# xPDFsuite Configuration #
[PDF]
wavelength = 0.1432
dataformat = twotheta
inputfile = 1_1Pd_CeO2_cycle-00379.chi
backgroundfile = background-00000.chi
mode = xray
bgscale = 1.007
composition = CeO2
outputtype = gr
qmaxinst = 28.8974762299
qmin = 0.5
qmax = 27.9
rmax = 50.0
rmin = 0.0
rstep = 0.01
rpoly = 1.8657

[Misc]
inputdir = G:/SankarDec16/1Pd/Chi
savedir = D:/DATA/APS_CeO2/1Pd
backgroundfilefull = G:/SankarDec16/Background/background-00000.chi

#### start data
#S 1
#L r($\AA$)  G($\AA^{-2}$)
0 0
0.01 -0.00426097
0.02 -0.00819986
0.03 -0.0114852
0.04 -0.0138673
0.05 -0.0152077
0.06 -0.0152836
0.07 -0.0142445
0.08 -0.0120197
0.09 -0.00889398
0.1 -0.00506473
0.11 -0.000833672
0.12 0.00347138
0.13 0.00748151
0.14 0.0109375
0.15 0.0135207
0.16 0.015046
0.17 0.0154407
0.18 0.0145551
0.19 0.0126101
0.2 0.00961741
0.21 0.00590964
0.22 0.00173319
0.23 -0.00257288
0.24 -0.00670092
0.25 -0.0102536
0.26 -0.0130473
0.27 -0.0147923
0.28 -0.0153773
0.29 -0.0147991
0.3 -0.0129887
0.31 -0.0102275
0.32 -0.00660908
0.33 -0.00249761
0.34 0.00182393
0.35 0.0059958
0.36 0.00974598
0.37 0.0126686
0.38 0.0146648
0.39 0.0154887
0.4 0.0151081
0.41 0.0135899
0.42 0.0109495
0.43 0.007515
0.44 0.00345716
0.45 -0.000846191
0.46 -0.00508972
0.47 -0.00891073
0.48 -0.0120867
0.49 -0.0142236
0.5 -0.0153125
0.51 -0.0151637
0.52 -0.0138263
0.53 -0.0114342
0.54 -0.00808679
0.55 -0.00414249
0.56 0.000158863
0.57 0.00444454
0.58 0.00840225
0.59 0.0116843
0.6 0.0141291
0.61 0.0153743
0.62 0.0155019
0.63 0.0143879
0.64 0.0121607
0.65 0.00901485
0.66 0.00512894
0.67 0.000874154
0.68 -0.0034526
0.69 -0.00750211
0.7 -0.0109709
0.71 -0.0135434
0.72 -0.0151275
0.73 -0.0154104
0.74 -0.0145605
0.75 -0.0125261
0.76 -0.00950758
0.77 -0.00574977
0.78 -0.00150075
0.79 0.00287504
0.8 0.0070406
0.81 0.0106885
0.82 0.0135412
0.83 0.0153331
0.84 0.0160463
0.85 0.0154362
0.86 0.013748
0.87 0.0110051
0.88 0.00746871
0.89 0.00341853
0.9 -0.000843727
0.91 -0.0049845
0.92 -0.00865141
0.93 -0.0116025
0.94 -0.0136108
0.95 -0.014488
0.96 -0.0142992
0.97 -0.0129057
0.98 -0.01062
0.99 -0.00756217
1 -0.00405238
1.01 -0.000397973
1.02 0.00303754
1.03 0.00598079
1.04 0.00806229
1.05 0.00913533
1.06 0.00904069
1.07 0.00769157
1.08 0.00526568
1.09 0.00176099
1.1 -0.00240964
1.11 -0.00698892
1.12 -0.0115547
1.13 -0.015735
1.14 -0.0190302
1.15 -0.0212069
1.16 -0.0217823
1.17 -0.0206767
1.18 -0.0177325
1.19 -0.0128863
1.2 -0.00643492
1.21 0.00162672
1.22 0.0107176
1.23 0.0205181
1.24 0.0304809
1.25 0.0401228
1.26 0.0488153
1.27 0.0562176
1.28 0.0616889
1.29 0.0650453
1.3 0.0659928
1.31 0.0642989
1.32 0.0602162
1.33 0.0534527
1.34 0.0446272
1.35 0.0338446
1.36 0.0215866
1.37 0.00831986
1.38 -0.00551783
1.39 -0.019398
1.4 -0.0328276
1.41 -0.0454007
1.42 -0.0567326
1.43 -0.0664241
1.44 -0.0744149
1.45 -0.0802022
1.46 -0.084007
1.47 -0.0855875
1.48 -0.0850224
1.49 -0.0824513
1.5 -0.0777759
1.51 -0.0713929
1.52 -0.0632387
1.53 -0.053667
1.54 -0.0428347
1.55 -0.0309501
1.56 -0.0183434
1.57 -0.00520621
1.58 0.00808544
1.59 0.0212273
1.6 0.0338507
1.61 0.0456443
1.62 0.0560967
1.63 0.0650354
1.64 0.0718812
1.65 0.0765023
1.66 0.0785946
1.67 0.07786
1.68 0.0744953
1.69 0.0680506
1.7 0.0591008
1.71 0.0476269
1.72 0.0340694
1.73 0.0189143
1.74 0.00258426
1.75 -0.0142257
1.76 -0.0309374
1.77 -0.0469392
1.78 -0.0616823
1.79 -0.0745787
1.8 -0.0854686
1.81 -0.0937075
1.82 -0.0995795
1.83 -0.102894
1.84 -0.103929
1.85 -0.10308
1.86 -0.100649
1.87 -0.0973397
1.88 -0.0936482
1.89 -0.0902151
1.9 -0.0875672
1.91 -0.0862589
1.92 -0.0864785
1.93 -0.0887389
1.94 -0.0927866
1.95 -0.0986742
1.96 -0.106035
1.97 -0.114399
1.98 -0.123218
1.99 -0.1318
2 -0.139341
2.01 -0.145174
2.02 -0.148597
2.03 -0.148832
2.04 -0.145753
2.05 -0.138379
2.06 -0.127158
2.07 -0.111694
2.08 -0.0922565
2.09 -0.0692679
2.1 -0.0427955
2.11 -0.0137381
2.12 0.0177123
2.13 0.0508116
2.14 0.0851579
2.15 0.120358
2.16 0.156056
2.17 0.192118
2.18 0.228412
2.19 0.264974
2.2 0.301885
2.21 0.339235
2.22 0.37719
2.23 0.415713
2.24 0.454817
2.25 0.494235
2.26 0.533608
2.27 0.572285
2.28 0.609632
2.29 0.644301
2.3 0.675561
2.31 0.70186
2.32 0.721952
2.33 0.73495
2.34 0.738776
2.35 0.733726
2.36 0.717869
2.37 0.69182
2.38 0.655374
2.39 0.608646
2.4 0.553474
2.41 0.489889
2.42 0.420764
2.43 0.347472
2.44 0.272422
2.45 0.197721
2.46 0.125913
2.47 0.0585585
2.48 -0.00182718
2.49 -0.0543667
2.5 -0.0979137
2.51 -0.13153
2.52 -0.156205
2.53 -0.170962
2.54 -0.178207
2.55 -0.178558
2.56 -0.173994
2.57 -0.166427
2.58 -0.157736
2.59 -0.149842
2.6 -0.144663
2.61 -0.143431
2.62 -0.147232
2.63 -0.156947
2.64 -0.172113
2.65 -0.193304
2.66 -0.218893
2.67 -0.248198
2.68 -0.279623
2.69 -0.31165
2.7 -0.342513
2.71 -0.370919
2.72 -0.395113
2.73 -0.414385
2.74 -0.427982
2.75 -0.435397
2.76 -0.437424
2.77 -0.433843
2.78 -0.426462
2.79 -0.416199
2.8 -0.404747
2.81 -0.393611
2.82 -0.384598
2.83 -0.37875
2.84 -0.377693
2.85 -0.381804
2.86 -0.391529
2.87 -0.40698
2.88 -0.427073
2.89 -0.451487
2.9 -0.478279
2.91 -0.506124
2.92 -0.533157
2.93 -0.557849
2.94 -0.578133
2.95 -0.59333
2.96 -0.601721
2.97 -0.603356
2.98 -0.598045
2.99 -0.586018
3 -0.568806
3.01 -0.547075
3.02 -0.523154
3.03 -0.498688
3.04 -0.475793
3.05 -0.456108
3.06 -0.441879
3.07 -0.433621
3.08 -0.433048
3.09 -0.439833
3.1 -0.45394
3.11 -0.47483
3.12 -0.5007
3.13 -0.530527
3.14 -0.56184
3.15 -0.59278
3.16 -0.621195
3.17 -0.645543
3.18 -0.663689
3.19 -0.675498
3.2 -0.679649
3.21 -0.676987
3.22 -0.668103
3.23 -0.654247
3.24 -0.637573
3.25 -0.620103
3.26 -0.604305
3.27 -0.592662
3.28 -0.587428
3.29 -0.589971
3.3 -0.602632
3.31 -0.624668
3.32 -0.657213
3.33 -0.698427
3.34 -0.746955
3.35 -0.800563
3.36 -0.856225
3.37 -0.910727
3.38 -0.961047
3.39 -1.00378
3.4 -1.0362
3.41 -1.05685
3.42 -1.06288
3.43 -1.05583
3.44 -1.03455
3.45 -1.00191
3.46 -0.960023
3.47 -0.912104
3.48 -0.862178
3.49 -0.814545
3.5 -0.772841
3.51 -0.741144
3.52 -0.722318
3.53 -0.717464
3.54 -0.728793
3.55 -0.753283
3.56 -0.79001
3.57 -0.833608
3.58 -0.878884
3.59 -0.918173
3.6 -0.944965
3.61 -0.947357
3.62 -0.920235
3.63 -0.852721
3.64 -0.73773
3.65 -0.571901
3.66 -0.344608
3.67 -0.0620223
3.68 0.282767
3.69 0.681151
3.7 1.12869
3.71 1.61809
3.72 2.13531
3.73 2.67045
3.74 3.20673
3.75 3.72935
3.76 4.22188
3.77 4.67196
3.78 5.05865
3.79 5.37858
3.8 5.61205
3.81 5.75861
3.82 5.81227
3.83 5.76749
3.84 5.63612
3.85 5.40911
3.86 5.10797
3.87 4.73601
3.88 4.30809
3.89 3.83931
3.9 3.34154
3.91 2.83244
3.92 2.32544
3.93 1.83404
3.94 1.36952
3.95 0.943901
3.96 0.559942
3.97 0.230616
3.98 -0.0491772
3.99 -0.274562
4 -0.448626
4.01 -0.577057
4.02 -0.660422
4.03 -0.710513
4.04 -0.730114
4.05 -0.729179
4.06 -0.713855
4.07 -0.690684
4.08 -0.665561
4.09 -0.643429
4.1 -0.627273
4.11 -0.619787
4.12 -0.621879
4.13 -0.633022
4.14 -0.653066
4.15 -0.679119
4.16 -0.709494
4.17 -0.741044
4.18 -0.771184
4.19 -0.796898
4.2 -0.81652
4.21 -0.826809
4.22 -0.827695
4.23 -0.817506
4.24 -0.796171
4.25 -0.764434
4.26 -0.721868
4.27 -0.670885
4.28 -0.611706
4.29 -0.546485
4.3 -0.476459
4.31 -0.402938
4.32 -0.327398
4.33 -0.250696
4.34 -0.173835
4.35 -0.0974314
4.36 -0.0219944
4.37 0.0521974
4.38 0.124665
4.39 0.195361
4.4 0.263685
4.41 0.329359
4.42 0.391771
4.43 0.449921
4.44 0.503427
4.45 0.550301
4.46 0.590337
4.47 0.621773
4.48 0.643564
4.49 0.655257
4.5 0.654747
4.51 0.643141
4.52 0.618749
4.53 0.582809
4.54 0.535645
4.55 0.477806
4.56 0.411585
4.57 0.337418
4.58 0.258284
4.59 0.175711
4.6 0.0920098
4.61 0.00908703
4.62 -0.0708022
4.63 -0.146483
4.64 -0.215958
4.65 -0.278684
4.66 -0.333951
4.67 -0.381143
4.68 -0.421221
4.69 -0.453524
4.7 -0.4799
4.71 -0.500774
4.72 -0.517452
4.73 -0.531196
4.74 -0.542959
4.75 -0.553987
4.76 -0.565108
4.77 -0.577023
4.78 -0.590174
4.79 -0.604864
4.8 -0.620929
4.81 -0.638363
4.82 -0.656605
4.83 -0.675244
4.84 -0.693673
4.85 -0.711388
4.86 -0.727696
4.87 -0.74236
4.88 -0.754804
4.89 -0.765001
4.9 -0.772855
4.91 -0.778346
4.92 -0.781906
4.93 -0.783567
4.94 -0.78398
4.95 -0.783459
4.96 -0.782504
4.97 -0.781525
4.98 -0.78096
4.99 -0.78106
5 -0.782177
5.01 -0.784411
5.02 -0.787875
5.03 -0.792668
5.04 -0.798633
5.05 -0.805897
5.06 -0.814182
5.07 -0.823458
5.08 -0.833547
5.09 -0.844248
5.1 -0.855383
5.11 -0.866632
5.12 -0.877636
5.13 -0.887934
5.14 -0.896961
5.15 -0.903842
5.16 -0.908002
5.17 -0.907799
5.18 -0.902655
5.19 -0.890864
5.2 -0.87106
5.21 -0.842383
5.22 -0.802251
5.23 -0.751061
5.24 -0.686342
5.25 -0.60852
5.26 -0.517164
5.27 -0.411883
5.28 -0.294829
5.29 -0.165544
5.3 -0.0276372
5.31 0.11723
5.32 0.265727
5.33 0.4146
5.34 0.559684
5.35 0.697828
5.36 0.824054
5.37 0.93543
5.38 1.02851
5.39 1.09908
5.4 1.14737
5.41 1.16777
5.42 1.16331
5.43 1.13185
5.44 1.07482
5.45 0.995064
5.46 0.892667
5.47 0.77361
5.48 0.639519
5.49 0.495767
5.5 0.346146
5.51 0.195051
5.52 0.046274
5.53 -0.095596
5.54 -0.228307
5.55 -0.348503
5.56 -0.454255
5.57 -0.545134
5.58 -0.618663
5.59 -0.677224
5.6 -0.719535
5.61 -0.748088
5.62 -0.764109
5.63 -0.768945
5.64 -0.76547
5.65 -0.754402
5.66 -0.738506
5.67 -0.718822
5.68 -0.696711
5.69 -0.673084
5.7 -0.648347
5.71 -0.622819
5.72 -0.596285
5.73 -0.568485
5.74 -0.538965
5.75 -0.50707
5.76 -0.472626
5.77 -0.434825
5.78 -0.393998
5.79 -0.350016
5.8 -0.303385
5.81 -0.254897
5.82 -0.205475
5.83 -0.156432
5.84 -0.109317
5.85 -0.0655819
5.86 -0.0267328
5.87 0.0053356
5.88 0.0301565
5.89 0.0453153
5.9 0.0513979
5.91 0.0472649
5.92 0.0330845
5.93 0.00973573
5.94 -0.0230446
5.95 -0.0629831
5.96 -0.109644
5.97 -0.160955
5.98 -0.215513
5.99 -0.27175
6 -0.328172
6.01 -0.383352
6.02 -0.436415
6.03 -0.486433
6.04 -0.532933
6.05 -0.575929
6.06 -0.615086
6.07 -0.65121
6.08 -0.684405
6.09 -0.715505
6.1 -0.745052
6.11 -0.773602
6.12 -0.801684
6.13 -0.829578
6.14 -0.857436
6.15 -0.885183
6.16 -0.912539
6.17 -0.939137
6.18 -0.964259
6.19 -0.987523
6.2 -1.00805
6.21 -1.02548
6.22 -1.0394
6.23 -1.04938
6.24 -1.05582
6.25 -1.05838
6.26 -1.05804
6.27 -1.05518
6.28 -1.05063
6.29 -1.04521
6.3 -1.03961
6.31 -1.03438
6.32 -1.02982
6.33 -1.02568
6.34 -1.02137
6.35 -1.01548
6.36 -1.00654
6.37 -0.991289
6.38 -0.967576
6.39 -0.931317
6.4 -0.87858
6.41 -0.806657
6.42 -0.708686
6.43 -0.5847
6.44 -0.428029
6.45 -0.2387
6.46 -0.0149825
6.47 0.245222
6.48 0.537087
6.49 0.863093
6.5 1.2147
6.51 1.58882
6.52 1.97797
6.53 2.37429
6.54 2.76875
6.55 3.15277
6.56 3.51503
6.57 3.8473
6.58 4.14075
6.59 4.38415
6.6 4.57644
6.61 4.70277
6.62 4.76818
6.63 4.76564
6.64 4.69599
6.65 4.5646
6.66 4.36806
6.67 4.12042
6.68 3.82238
6.69 3.48646
6.7 3.12083
6.71 2.73479
6.72 2.33947
6.73 1.94428
6.74 1.5583
6.75 1.19026
6.76 0.847602
6.77 0.534136
6.78 0.258401
6.79 0.0179005
6.8 -0.181535
6.81 -0.343262
6.82 -0.468279
6.83 -0.557522
6.84 -0.617954
6.85 -0.649424
6.86 -0.66027
6.87 -0.653235
6.88 -0.633354
6.89 -0.605074
6.9 -0.571509
6.91 -0.536274
6.92 -0.501648
6.93 -0.4694
6.94 -0.440589
6.95 -0.416013
6.96 -0.395291
6.97 -0.378757
6.98 -0.36536
6.99 -0.354789
7 -0.346406
7.01 -0.339697
7.02 -0.3346
7.03 -0.330902
7.04 -0.329055
7.05 -0.329432
7.06 -0.332693
7.07 -0.339887
7.08 -0.351348
7.09 -0.368663
7.1 -0.391679
7.11 -0.421246
7.12 -0.4574
7.13 -0.499561
7.14 -0.547807
7.15 -0.600408
7.16 -0.656604
7.17 -0.714532
7.18 -0.772621
7.19 -0.828901
7.2 -0.881997
7.21 -0.929591
7.22 -0.971078
7.23 -1.00499
7.24 -1.03076
7.25 -1.04868
7.26 -1.05806
7.27 -1.0607
7.28 -1.05685
7.29 -1.04837
7.3 -1.03664
7.31 -1.02325
7.32 -1.00974
7.33 -0.997585
7.34 -0.987615
7.35 -0.980593
7.36 -0.976633
7.37 -0.975223
7.38 -0.975662
7.39 -0.976372
7.4 -0.975493
7.41 -0.970893
7.42 -0.960325
7.43 -0.940737
7.44 -0.910969
7.45 -0.86696
7.46 -0.808872
7.47 -0.734401
7.48 -0.643071
7.49 -0.535912
7.5 -0.411826
7.51 -0.274574
7.52 -0.12478
7.53 0.0336557
7.54 0.197674
7.55 0.36342
7.56 0.527129
7.57 0.683947
7.58 0.83088
7.59 0.963606
7.6 1.07876
7.61 1.1749
7.62 1.24719
7.63 1.29752
7.64 1.32237
7.65 1.32365
7.66 1.30184
7.67 1.25715
7.68 1.19377
7.69 1.11127
7.7 1.0149
7.71 0.906411
7.72 0.789237
7.73 0.666672
7.74 0.541462
7.75 0.416681
7.76 0.295113
7.77 0.178996
7.78 0.0703055
7.79 -0.0285744
7.8 -0.117411
7.81 -0.193316
7.82 -0.25721
7.83 -0.30769
7.84 -0.344691
7.85 -0.369087
7.86 -0.379678
7.87 -0.378954
7.88 -0.366398
7.89 -0.344071
7.9 -0.313188
7.91 -0.27505
7.92 -0.232067
7.93 -0.185641
7.94 -0.138299
7.95 -0.0920377
7.96 -0.0491613
7.97 -0.0113394
7.98 0.0185778
7.99 0.0400547
8 0.050566
8.01 0.0498301
8.02 0.0371938
8.03 0.0117959
8.04 -0.0246912
8.05 -0.0731948
8.06 -0.130899
8.07 -0.196941
8.08 -0.269144
8.09 -0.345196
8.1 -0.423004
8.11 -0.500174
8.12 -0.574415
8.13 -0.643954
8.14 -0.707295
8.15 -0.762788
8.16 -0.810658
8.17 -0.849429
8.18 -0.88057
8.19 -0.904179
8.2 -0.921472
8.21 -0.934007
8.22 -0.942808
8.23 -0.949739
8.24 -0.955868
8.25 -0.962258
8.26 -0.969415
8.27 -0.977395
8.28 -0.985584
8.29 -0.992649
8.3 -0.996886
8.31 -0.995732
8.32 -0.986104
8.33 -0.965601
8.34 -0.928928
8.35 -0.875101
8.36 -0.798718
8.37 -0.698616
8.38 -0.572786
8.39 -0.418415
8.4 -0.238456
8.41 -0.0297688
8.42 0.201811
8.43 0.454894
8.44 0.724616
8.45 1.0052
8.46 1.29107
8.47 1.57511
8.48 1.84979
8.49 2.10829
8.5 2.34405
8.51 2.54849
8.52 2.71986
8.53 2.84743
8.54 2.93334
8.55 2.97226
8.56 2.96359
8.57 2.91072
8.58 2.81004
8.59 2.67116
8.6 2.49378
8.61 2.28616
8.62 2.0538
8.63 1.80247
8.64 1.54036
8.65 1.27318
8.66 1.00796
8.67 0.750512
8.68 0.506362
8.69 0.278592
8.7 0.0731976
8.71 -0.110665
8.72 -0.268905
8.73 -0.402964
8.74 -0.513228
8.75 -0.599749
8.76 -0.666911
8.77 -0.714323
8.78 -0.747333
8.79 -0.767713
8.8 -0.778771
8.81 -0.783641
8.82 -0.784481
8.83 -0.784002
8.84 -0.783964
8.85 -0.785838
8.86 -0.790562
8.87 -0.798956
8.88 -0.810793
8.89 -0.826477
8.9 -0.845108
8.91 -0.866326
8.92 -0.889343
8.93 -0.913362
8.94 -0.937668
8.95 -0.961582
8.96 -0.984479
8.97 -1.00599
8.98 -1.02585
8.99 -1.04382
9 -1.06011
9.01 -1.07458
9.02 -1.08764
9.03 -1.0994
9.04 -1.11011
9.05 -1.12
9.06 -1.12908
9.07 -1.13744
9.08 -1.14486
9.09 -1.15114
9.1 -1.15588
9.11 -1.15843
9.12 -1.15843
9.13 -1.1547
9.14 -1.14696
9.15 -1.1342
9.16 -1.11571
9.17 -1.09128
9.18 -1.05962
9.19 -1.02144
9.2 -0.975876
9.21 -0.923615
9.22 -0.86504
9.23 -0.800539
9.24 -0.731617
9.25 -0.658872
9.26 -0.584167
9.27 -0.508832
9.28 -0.434632
9.29 -0.362994
9.3 -0.296137
9.31 -0.234876
9.32 -0.181347
9.33 -0.136247
9.34 -0.10045
9.35 -0.0752051
9.36 -0.0595955
9.37 -0.0550887
9.38 -0.0598388
9.39 -0.0737969
9.4 -0.0957861
9.41 -0.124148
9.42 -0.158064
9.43 -0.195264
9.44 -0.234495
9.45 -0.273964
9.46 -0.312303
9.47 -0.347985
9.48 -0.380329
9.49 -0.407904
9.5 -0.430817
9.51 -0.448541
9.52 -0.461216
9.53 -0.469499
9.54 -0.473499
9.55 -0.47457
9.56 -0.473295
9.57 -0.470864
9.58 -0.468184
9.59 -0.46626
9.6 -0.465734
9.61 -0.467537
9.62 -0.47182
9.63 -0.479
9.64 -0.489119
9.65 -0.501879
9.66 -0.517328
9.67 -0.534737
9.68 -0.553912
9.69 -0.574281
9.7 -0.595482
9.71 -0.617219
9.72 -0.639246
9.73 -0.661515
9.74 -0.684022
9.75 -0.706896
9.76 -0.730307
9.77 -0.75435
9.78 -0.779178
9.79 -0.804577
9.8 -0.830254
9.81 -0.85548
9.82 -0.879272
9.83 -0.899873
9.84 -0.91588
9.85 -0.923903
9.86 -0.922153
9.87 -0.90692
9.88 -0.874628
9.89 -0.823283
9.9 -0.746443
9.91 -0.644668
9.92 -0.512092
9.93 -0.348612
9.94 -0.153001
9.95 0.0771849
9.96 0.337463
9.97 0.630606
9.98 0.94943
9.99 1.29173
10 1.65172
10.01 2.02269
10.02 2.39813
10.03 2.7702
10.04 3.13041
10.05 3.47124
10.06 3.78553
10.07 4.06354
10.08 4.30348
10.09 4.49324
10.1 4.63495
10.11 4.72251
10.12 4.75458
10.13 4.73488
10.14 4.65811
10.15 4.53505
10.16 4.36427
10.17 4.15447
10.18 3.91134
10.19 3.64023
10.2 3.35069
10.21 3.04774
10.22 2.74003
10.23 2.43356
10.24 2.13479
10.25 1.84786
10.26 1.57932
10.27 1.32976
10.28 1.10385
10.29 0.901384
10.3 0.722688
10.31 0.568741
10.32 0.435646
10.33 0.324675
10.34 0.230732
10.35 0.152479
10.36 0.0868556
10.37 0.0305031
10.38 -0.0184074
10.39 -0.0633116
10.4 -0.105997
10.41 -0.148592
10.42 -0.192508
10.43 -0.239101
10.44 -0.288755
10.45 -0.342382
10.46 -0.399528
10.47 -0.460189
10.48 -0.523806
10.49 -0.589542
10.5 -0.656687
10.51 -0.724092
10.52 -0.790693
10.53 -0.855381
10.54 -0.917124
10.55 -0.974515
10.56 -1.0271
10.57 -1.07308
10.58 -1.11241
10.59 -1.14396
10.6 -1.16714
10.61 -1.18214
10.62 -1.1876
10.63 -1.18483
10.64 -1.17303
10.65 -1.15321
10.66 -1.12596
10.67 -1.09168
10.68 -1.05206
10.69 -1.00751
10.7 -0.959909
10.71 -0.910324
10.72 -0.860243
10.73 -0.810915
10.74 -0.763927
10.75 -0.720088
10.76 -0.680856
10.77 -0.646843
10.78 -0.618661
10.79 -0.597207
10.8 -0.581938
10.81 -0.573861
10.82 -0.571908
10.83 -0.57616
10.84 -0.586085
10.85 -0.60077
10.86 -0.620127
10.87 -0.642848
10.88 -0.668649
10.89 -0.696651
10.9 -0.726297
10.91 -0.757105
10.92 -0.788527
10.93 -0.82023
10.94 -0.851853
10.95 -0.883123
10.96 -0.913774
10.97 -0.943639
10.98 -0.972347
10.99 -0.999833
11 -1.02569
11.01 -1.04974
11.02 -1.07174
11.03 -1.09127
11.04 -1.10839
11.05 -1.12253
11.06 -1.13395
11.07 -1.14248
11.08 -1.14821
11.09 -1.15155
11.1 -1.15253
11.11 -1.15191
11.12 -1.14999
11.13 -1.14742
11.14 -1.14467
11.15 -1.1422
11.16 -1.14024
11.17 -1.13894
11.18 -1.138
11.19 -1.13696
11.2 -1.13485
11.21 -1.13063
11.22 -1.12219
11.23 -1.10828
11.24 -1.086
11.25 -1.0534
11.26 -1.00829
11.27 -0.947158
11.28 -0.869863
11.29 -0.771839
11.3 -0.6543
11.31 -0.515266
11.32 -0.354732
11.33 -0.174888
11.34 0.0251047
11.35 0.240014
11.36 0.468267
11.37 0.70476
11.38 0.945122
11.39 1.18385
11.4 1.41616
11.41 1.63494
11.42 1.83641
11.43 2.01459
11.44 2.16457
11.45 2.28493
11.46 2.36819
11.47 2.4178
11.48 2.42891
11.49 2.40428
11.5 2.34539
11.51 2.2526
11.52 2.13277
11.53 1.98614
11.54 1.82062
11.55 1.63973
11.56 1.44898
11.57 1.25357
11.58 1.05824
11.59 0.867103
11.6 0.684396
11.61 0.512724
11.62 0.35408
11.63 0.210949
11.64 0.0821445
11.65 -0.0301887
11.66 -0.128806
11.67 -0.214035
11.68 -0.287658
11.69 -0.352197
11.7 -0.408667
11.71 -0.460097
11.72 -0.507725
11.73 -0.553413
11.74 -0.598286
11.75 -0.64319
11.76 -0.68847
11.77 -0.734132
11.78 -0.779674
11.79 -0.824312
11.8 -0.866856
11.81 -0.906277
11.82 -0.94048
11.83 -0.968771
11.84 -0.98894
11.85 -1.00006
11.86 -1.00107
11.87 -0.990149
11.88 -0.967993
11.89 -0.932329
11.9 -0.884621
11.91 -0.824209
11.92 -0.751494
11.93 -0.667938
11.94 -0.573035
11.95 -0.469481
11.96 -0.357599
11.97 -0.239503
11.98 -0.116785
11.99 0.00884433
12 0.135296
12.01 0.260487
12.02 0.382499
12.03 0.499144
12.04 0.608184
12.05 0.708387
12.06 0.796362
12.07 0.872227
12.08 0.93304
12.09 0.978485
12.1 1.00787
12.11 1.01952
12.12 1.0154
12.13 0.993424
12.14 0.956532
12.15 0.904923
12.16 0.840269
12.17 0.765205
12.18 0.680716
12.19 0.590391
12.2 0.496006
12.21 0.400353
12.22 0.305582
12.23 0.214113
12.24 0.12722
12.25 0.0472034
12.26 -0.0257447
12.27 -0.0906449
12.28 -0.147359
12.29 -0.196768
12.3 -0.238651
12.31 -0.275085
12.32 -0.306724
12.33 -0.335355
12.34 -0.362341
12.35 -0.389099
12.36 -0.416736
12.37 -0.446385
12.38 -0.478354
