# xPDFsuite Configuration #
[PDF]
wavelength = 0.1432
dataformat = twotheta
inputfile = 1_1Pd_CeO2_cycle-00230.chi
backgroundfile = background-00000.chi
mode = xray
bgscale = 1.007
composition = CeO2
outputtype = gr
qmaxinst = 28.8974762299
qmin = 0.5
qmax = 27.9
rmax = 50.0
rmin = 0.0
rstep = 0.01
rpoly = 1.8657

[Misc]
inputdir = G:/SankarDec16/1Pd/Chi
savedir = D:/DATA/APS_CeO2/1Pd
backgroundfilefull = G:/SankarDec16/Background/background-00000.chi

#### start data
#S 1
#L r($\AA$)  G($\AA^{-2}$)
0 0
0.01 -0.0081789
0.02 -0.0157427
0.03 -0.0220581
0.04 -0.0266477
0.05 -0.0292458
0.06 -0.0294246
0.07 -0.0274679
0.08 -0.023237
0.09 -0.0172735
0.1 -0.00995174
0.11 -0.00184517
0.12 0.00641933
0.13 0.0141398
0.14 0.0208163
0.15 0.0258384
0.16 0.0288469
0.17 0.0296969
0.18 0.0280945
0.19 0.0244553
0.2 0.018792
0.21 0.0117358
0.22 0.00375166
0.23 -0.00451658
0.24 -0.0124777
0.25 -0.0193754
0.26 -0.0248478
0.27 -0.028336
0.28 -0.0296152
0.29 -0.0286687
0.3 -0.0253499
0.31 -0.0201876
0.32 -0.0133456
0.33 -0.00551532
0.34 0.00276853
0.35 0.0108214
0.36 0.0181153
0.37 0.0238744
0.38 0.0278919
0.39 0.0296864
0.4 0.0291786
0.41 0.0264806
0.42 0.0216008
0.43 0.0151571
0.44 0.00745683
0.45 -0.000779485
0.46 -0.00897266
0.47 -0.0164284
0.48 -0.0227068
0.49 -0.0270488
0.5 -0.0294123
0.51 -0.0294166
0.52 -0.0271316
0.53 -0.022794
0.54 -0.0165675
0.55 -0.00913055
0.56 -0.000920469
0.57 0.00734615
0.58 0.0150726
0.59 0.0215867
0.6 0.0265578
0.61 0.0292787
0.62 0.0298749
0.63 0.0280844
0.64 0.024124
0.65 0.0183446
0.66 0.0110584
0.67 0.00297333
0.68 -0.00536324
0.69 -0.0132715
0.7 -0.0201653
0.71 -0.0254254
0.72 -0.0288464
0.73 -0.029806
0.74 -0.0285919
0.75 -0.0250732
0.76 -0.0196039
0.77 -0.0126325
0.78 -0.00460503
0.79 0.00377451
0.8 0.0118756
0.81 0.0190876
0.82 0.0248638
0.83 0.0286683
0.84 0.0304316
0.85 0.0296481
0.86 0.0267535
0.87 0.0217556
0.88 0.015128
0.89 0.00739387
0.9 -0.000889801
0.91 -0.00906094
0.92 -0.0164418
0.93 -0.0225264
0.94 -0.0268425
0.95 -0.0289752
0.96 -0.0290013
0.97 -0.0265776
0.98 -0.022271
0.99 -0.0162467
1 -0.00908663
1.01 -0.00136956
1.02 0.00624274
1.03 0.0131726
1.04 0.0187113
1.05 0.0224975
1.06 0.0241629
1.07 0.0234477
1.08 0.0206013
1.09 0.0154845
1.1 0.00881082
1.11 0.00093965
1.12 -0.00741362
1.13 -0.0155959
1.14 -0.0227882
1.15 -0.0284983
1.16 -0.031919
1.17 -0.032824
1.18 -0.0309048
1.19 -0.0260029
1.2 -0.0185485
1.21 -0.00849974
1.22 0.00323176
1.23 0.0161522
1.24 0.0293969
1.25 0.042204
1.26 0.0536025
1.27 0.0630684
1.28 0.0696541
1.29 0.0731252
1.3 0.0731114
1.31 0.0693832
1.32 0.0624107
1.33 0.0519876
1.34 0.0391137
1.35 0.024165
1.36 0.00798774
1.37 -0.00865582
1.38 -0.0249237
1.39 -0.0401721
1.4 -0.0535702
1.41 -0.0647455
1.42 -0.073279
1.43 -0.0788334
1.44 -0.0816541
1.45 -0.0813722
1.46 -0.0786735
1.47 -0.0736396
1.48 -0.0667667
1.49 -0.0585227
1.5 -0.0492558
1.51 -0.0394779
1.52 -0.0294928
1.53 -0.0196117
1.54 -0.0100322
1.55 -0.000911115
1.56 0.00773856
1.57 0.0158171
1.58 0.023424
1.59 0.0305329
1.6 0.037164
1.61 0.0433096
1.62 0.0488281
1.63 0.0536732
1.64 0.0575486
1.65 0.0602966
1.66 0.0616337
1.67 0.0612039
1.68 0.0589574
1.69 0.0543439
1.7 0.0475924
1.71 0.0384698
1.72 0.0271504
1.73 0.0139293
1.74 -0.000992408
1.75 -0.0169509
1.76 -0.0334847
1.77 -0.0498888
1.78 -0.0655398
1.79 -0.0797039
1.8 -0.092018
1.81 -0.101625
1.82 -0.108612
1.83 -0.112577
1.84 -0.11365
1.85 -0.112156
1.86 -0.108284
1.87 -0.102871
1.88 -0.0964229
1.89 -0.0898046
1.9 -0.0837266
1.91 -0.0789985
1.92 -0.0760313
1.93 -0.0756569
1.94 -0.0777492
1.95 -0.0825885
1.96 -0.0898911
1.97 -0.099175
1.98 -0.109943
1.99 -0.121256
2 -0.132217
2.01 -0.141849
2.02 -0.149202
2.03 -0.153186
2.04 -0.153449
2.05 -0.148661
2.06 -0.139199
2.07 -0.124474
2.08 -0.104745
2.09 -0.080521
2.1 -0.0519156
2.11 -0.0201336
2.12 0.0144398
2.13 0.0507209
2.14 0.0880219
2.15 0.125619
2.16 0.16299
2.17 0.199658
2.18 0.235545
2.19 0.270576
2.2 0.304953
2.21 0.338967
2.22 0.37299
2.23 0.407367
2.24 0.442464
2.25 0.478387
2.26 0.515125
2.27 0.552397
2.28 0.589653
2.29 0.625918
2.3 0.660232
2.31 0.691079
2.32 0.716932
2.33 0.736554
2.34 0.747489
2.35 0.749523
2.36 0.74019
2.37 0.719646
2.38 0.687241
2.39 0.642631
2.4 0.58762
2.41 0.521762
2.42 0.448316
2.43 0.368632
2.44 0.285517
2.45 0.20155
2.46 0.119756
2.47 0.042351
2.48 -0.0275025
2.49 -0.0883611
2.5 -0.138547
2.51 -0.176574
2.52 -0.203389
2.53 -0.217453
2.54 -0.221608
2.55 -0.216427
2.56 -0.20432
2.57 -0.187712
2.58 -0.168966
2.59 -0.150726
2.6 -0.135552
2.61 -0.125279
2.62 -0.121524
2.63 -0.125709
2.64 -0.137425
2.65 -0.157757
2.66 -0.184665
2.67 -0.21748
2.68 -0.25418
2.69 -0.292755
2.7 -0.330963
2.71 -0.366861
2.72 -0.398106
2.73 -0.423481
2.74 -0.441798
2.75 -0.45214
2.76 -0.45533
2.77 -0.450825
2.78 -0.440876
2.79 -0.426525
2.8 -0.409937
2.81 -0.393106
2.82 -0.378384
2.83 -0.367314
2.84 -0.362104
2.85 -0.36345
2.86 -0.372098
2.87 -0.388374
2.88 -0.410983
2.89 -0.439682
2.9 -0.471939
2.91 -0.506093
2.92 -0.539673
2.93 -0.570602
2.94 -0.596112
2.95 -0.615154
2.96 -0.625363
2.97 -0.626657
2.98 -0.618677
2.99 -0.601618
3 -0.577464
3.01 -0.547032
3.02 -0.513467
3.03 -0.478989
3.04 -0.446518
3.05 -0.418355
3.06 -0.39766
3.07 -0.385244
3.08 -0.383591
3.09 -0.392358
3.1 -0.411597
3.11 -0.440675
3.12 -0.477092
3.13 -0.519517
3.14 -0.564404
3.15 -0.609112
3.16 -0.650481
3.17 -0.686173
3.18 -0.712935
3.19 -0.730358
3.2 -0.736223
3.21 -0.731486
3.22 -0.716698
3.23 -0.693299
3.24 -0.664325
3.25 -0.632225
3.26 -0.600752
3.27 -0.573327
3.28 -0.553373
3.29 -0.543154
3.3 -0.546267
3.31 -0.562223
3.32 -0.593111
3.33 -0.636892
3.34 -0.692175
3.35 -0.75642
3.36 -0.825564
3.37 -0.895799
3.38 -0.962673
3.39 -1.02168
3.4 -1.06881
3.41 -1.10164
3.42 -1.11597
3.43 -1.11316
3.44 -1.09112
3.45 -1.05307
3.46 -1.00129
3.47 -0.939514
3.48 -0.87302
3.49 -0.806992
3.5 -0.746673
3.51 -0.697517
3.52 -0.663871
3.53 -0.647877
3.54 -0.653361
3.55 -0.67731
3.56 -0.719906
3.57 -0.775191
3.58 -0.837661
3.59 -0.898926
3.6 -0.950884
3.61 -0.980445
3.62 -0.980505
3.63 -0.938424
3.64 -0.845245
3.65 -0.696292
3.66 -0.478816
3.67 -0.198959
3.68 0.151747
3.69 0.564052
3.7 1.0333
3.71 1.55152
3.72 2.10275
3.73 2.67602
3.74 3.25197
3.75 3.81384
3.76 4.3429
3.77 4.82499
3.78 5.23658
3.79 5.57382
3.8 5.81489
3.81 5.95958
3.82 6.0017
3.83 5.93587
3.84 5.77583
3.85 5.51295
3.86 5.17156
3.87 4.75664
3.88 4.28547
3.89 3.77516
3.9 3.24012
3.91 2.69913
3.92 2.16788
3.93 1.66025
3.94 1.18816
3.95 0.764023
3.96 0.389235
3.97 0.077021
3.98 -0.180146
3.99 -0.378445
4 -0.522966
4.01 -0.621179
4.02 -0.675599
4.03 -0.699381
4.04 -0.69709
4.05 -0.679382
4.06 -0.653113
4.07 -0.62536
4.08 -0.601224
4.09 -0.58599
4.1 -0.580956
4.11 -0.58812
4.12 -0.606952
4.13 -0.635606
4.14 -0.672521
4.15 -0.713751
4.16 -0.756309
4.17 -0.7965
4.18 -0.831221
4.19 -0.85708
4.2 -0.872987
4.21 -0.875523
4.22 -0.865846
4.23 -0.842855
4.24 -0.807559
4.25 -0.76167
4.26 -0.705844
4.27 -0.643198
4.28 -0.57492
4.29 -0.50348
4.3 -0.430438
4.31 -0.357299
4.32 -0.28502
4.33 -0.214492
4.34 -0.14574
4.35 -0.0788755
4.36 -0.0135538
4.37 0.0506778
4.38 0.11419
4.39 0.177403
4.4 0.240432
4.41 0.30316
4.42 0.365156
4.43 0.425497
4.44 0.483342
4.45 0.536654
4.46 0.584459
4.47 0.624569
4.48 0.655286
4.49 0.675616
4.5 0.682817
4.51 0.677697
4.52 0.65805
4.53 0.625041
4.54 0.57889
4.55 0.520108
4.56 0.451337
4.57 0.37303
4.58 0.288701
4.59 0.20013
4.6 0.110024
4.61 0.0206105
4.62 -0.0655413
4.63 -0.147079
4.64 -0.221797
4.65 -0.289129
4.66 -0.348349
4.67 -0.398868
4.68 -0.441795
4.69 -0.47651
4.7 -0.50503
4.71 -0.527836
4.72 -0.546287
4.73 -0.561648
4.74 -0.574789
4.75 -0.586882
4.76 -0.598554
4.77 -0.610361
4.78 -0.622556
4.79 -0.635213
4.8 -0.648159
4.81 -0.661128
4.82 -0.673752
4.83 -0.68562
4.84 -0.69636
4.85 -0.705774
4.86 -0.71352
4.87 -0.719801
4.88 -0.724557
4.89 -0.728187
4.9 -0.731023
4.91 -0.733528
4.92 -0.736165
4.93 -0.739478
4.94 -0.74376
4.95 -0.749371
4.96 -0.756445
4.97 -0.764905
4.98 -0.774735
4.99 -0.785472
5 -0.796809
5.01 -0.808203
5.02 -0.819192
5.03 -0.829241
5.04 -0.838105
5.05 -0.845289
5.06 -0.850924
5.07 -0.85493
5.08 -0.857568
5.09 -0.859219
5.1 -0.860252
5.11 -0.861179
5.12 -0.862407
5.13 -0.864198
5.14 -0.866629
5.15 -0.869505
5.16 -0.872308
5.17 -0.874023
5.18 -0.873554
5.19 -0.869162
5.2 -0.858904
5.21 -0.841212
5.22 -0.812768
5.23 -0.773046
5.24 -0.71861
5.25 -0.649097
5.26 -0.56335
5.27 -0.460202
5.28 -0.341836
5.29 -0.207071
5.3 -0.0602288
5.31 0.0969441
5.32 0.260378
5.33 0.425931
5.34 0.588529
5.35 0.743895
5.36 0.885874
5.37 1.01058
5.38 1.11366
5.39 1.18995
5.4 1.23968
5.41 1.25629
5.42 1.2436
5.43 1.19949
5.44 1.12614
5.45 1.02738
5.46 0.904187
5.47 0.763885
5.48 0.609296
5.49 0.446945
5.5 0.281632
5.51 0.118854
5.52 -0.0374538
5.53 -0.181618
5.54 -0.312071
5.55 -0.425323
5.56 -0.520112
5.57 -0.596929
5.58 -0.654041
5.59 -0.695187
5.6 -0.720164
5.61 -0.732627
5.62 -0.734783
5.63 -0.729041
5.64 -0.718498
5.65 -0.704874
5.66 -0.690384
5.67 -0.676195
5.68 -0.663074
5.69 -0.6511
5.7 -0.639967
5.71 -0.628763
5.72 -0.616245
5.73 -0.60109
5.74 -0.581934
5.75 -0.557132
5.76 -0.526343
5.77 -0.487823
5.78 -0.44247
5.79 -0.390061
5.8 -0.331704
5.81 -0.269012
5.82 -0.203626
5.83 -0.138044
5.84 -0.0748392
5.85 -0.0164893
5.86 0.0346099
5.87 0.0755836
5.88 0.105807
5.89 0.121912
5.9 0.125035
5.91 0.113903
5.92 0.0892269
5.93 0.0526648
5.94 0.00455989
5.95 -0.0516483
5.96 -0.114626
5.97 -0.181296
5.98 -0.249419
5.99 -0.316507
6 -0.380843
6.01 -0.440117
6.02 -0.493862
6.03 -0.540976
6.04 -0.581401
6.05 -0.61579
6.06 -0.644254
6.07 -0.668603
6.08 -0.689637
6.09 -0.709039
6.1 -0.728033
6.11 -0.747907
6.12 -0.769399
6.13 -0.793447
6.14 -0.819909
6.15 -0.848813
6.16 -0.87954
6.17 -0.911225
6.18 -0.942763
6.19 -0.973036
6.2 -1.00062
6.21 -1.02456
6.22 -1.04398
6.23 -1.05797
6.24 -1.06689
6.25 -1.07008
6.26 -1.06883
6.27 -1.06365
6.28 -1.05579
6.29 -1.04653
6.3 -1.03714
6.31 -1.02865
6.32 -1.02196
6.33 -1.01721
6.34 -1.01411
6.35 -1.01157
6.36 -1.00788
6.37 -0.999908
6.38 -0.98491
6.39 -0.958432
6.4 -0.915855
6.41 -0.85381
6.42 -0.764538
6.43 -0.64752
6.44 -0.495135
6.45 -0.307002
6.46 -0.0809345
6.47 0.185648
6.48 0.487549
6.49 0.827679
6.5 1.19657
6.51 1.59084
6.52 2.00216
6.53 2.42173
6.54 2.83956
6.55 3.24607
6.56 3.62876
6.57 3.97857
6.58 4.28584
6.59 4.53838
6.6 4.73517
6.61 4.86029
6.62 4.91947
6.63 4.90546
6.64 4.81959
6.65 4.668
6.66 4.44766
6.67 4.17393
6.68 3.84821
6.69 3.48418
6.7 3.09093
6.71 2.67883
6.72 2.25962
6.73 1.84385
6.74 1.44073
6.75 1.05968
6.76 0.708313
6.77 0.390259
6.78 0.114449
6.79 -0.12247
6.8 -0.314597
6.81 -0.466085
6.82 -0.578432
6.83 -0.653126
6.84 -0.697904
6.85 -0.713129
6.86 -0.707807
6.87 -0.685204
6.88 -0.650848
6.89 -0.60947
6.9 -0.564692
6.91 -0.520061
6.92 -0.478204
6.93 -0.440746
6.94 -0.408712
6.95 -0.382862
6.96 -0.362436
6.97 -0.347763
6.98 -0.337313
6.99 -0.330584
7 -0.326607
7.01 -0.32457
7.02 -0.32413
7.03 -0.32484
7.04 -0.326892
7.05 -0.330517
7.06 -0.336246
7.07 -0.344998
7.08 -0.357179
7.09 -0.374261
7.1 -0.396289
7.11 -0.424164
7.12 -0.458092
7.13 -0.497685
7.14 -0.543202
7.15 -0.59313
7.16 -0.646926
7.17 -0.7029
7.18 -0.759635
7.19 -0.815337
7.2 -0.868623
7.21 -0.91734
7.22 -0.960743
7.23 -0.99736
7.24 -1.02648
7.25 -1.04823
7.26 -1.06175
7.27 -1.0686
7.28 -1.06879
7.29 -1.06397
7.3 -1.05533
7.31 -1.04422
7.32 -1.03215
7.33 -1.02036
7.34 -1.0098
7.35 -1.00118
7.36 -0.994714
7.37 -0.990071
7.38 -0.98666
7.39 -0.983186
7.4 -0.97798
7.41 -0.96916
7.42 -0.954679
7.43 -0.931712
7.44 -0.899173
7.45 -0.853207
7.46 -0.793902
7.47 -0.718989
7.48 -0.62789
7.49 -0.521474
7.5 -0.3985
7.51 -0.262478
7.52 -0.113814
7.53 0.0438155
7.54 0.207541
7.55 0.373719
7.56 0.538608
7.57 0.697527
7.58 0.847334
7.59 0.983672
7.6 1.10299
7.61 1.20358
7.62 1.28034
7.63 1.33485
7.64 1.36321
7.65 1.36703
7.66 1.3465
7.67 1.30148
7.68 1.23618
7.69 1.1498
7.7 1.04784
7.71 0.932014
7.72 0.806009
7.73 0.673461
7.74 0.537399
7.75 0.401428
7.76 0.268783
7.77 0.142208
7.78 0.0241296
7.79 -0.082515
7.8 -0.177327
7.81 -0.256796
7.82 -0.321974
7.83 -0.371207
7.84 -0.404505
7.85 -0.423029
7.86 -0.425613
7.87 -0.415386
7.88 -0.392101
7.89 -0.358425
7.9 -0.316054
7.91 -0.266858
7.92 -0.21364
7.93 -0.15842
7.94 -0.103882
7.95 -0.052393
7.96 -0.00639462
7.97 0.0325377
7.98 0.0613852
7.99 0.0800852
8 0.0861795
8.01 0.079867
8.02 0.0608547
8.03 0.0287021
8.04 -0.0145008
8.05 -0.0692397
8.06 -0.132426
8.07 -0.202882
8.08 -0.278244
8.09 -0.356195
8.1 -0.434488
8.11 -0.511021
8.12 -0.583552
8.13 -0.650655
8.14 -0.711118
8.15 -0.76364
8.16 -0.808767
8.17 -0.845424
8.18 -0.875281
8.19 -0.898717
8.2 -0.917096
8.21 -0.931959
8.22 -0.944452
8.23 -0.956137
8.24 -0.967997
8.25 -0.980727
8.26 -0.994516
8.27 -1.00901
8.28 -1.02325
8.29 -1.03538
8.3 -1.04347
8.31 -1.04457
8.32 -1.03533
8.33 -1.01333
8.34 -0.972961
8.35 -0.913561
8.36 -0.829628
8.37 -0.720369
8.38 -0.584043
8.39 -0.418161
8.4 -0.226149
8.41 -0.00526182
8.42 0.238217
8.43 0.502478
8.44 0.782255
8.45 1.07154
8.46 1.36431
8.47 1.65349
8.48 1.93124
8.49 2.19085
8.5 2.42578
8.51 2.62748
8.52 2.79451
8.53 2.91613
8.54 2.99492
8.55 3.02566
8.56 3.00804
8.57 2.94567
8.58 2.83511
8.59 2.68622
8.6 2.4988
8.61 2.28128
8.62 2.03923
8.63 1.77856
8.64 1.5075
8.65 1.2319
8.66 0.958834
8.67 0.694236
8.68 0.443756
8.69 0.210544
8.7 0.000873838
8.71 -0.186116
8.72 -0.346039
8.73 -0.480299
8.74 -0.589175
8.75 -0.672544
8.76 -0.734966
8.77 -0.775838
8.78 -0.800855
8.79 -0.811859
8.8 -0.812447
8.81 -0.806117
8.82 -0.795372
8.83 -0.783386
8.84 -0.772396
8.85 -0.764311
8.86 -0.760477
8.87 -0.762229
8.88 -0.769414
8.89 -0.783005
8.9 -0.801877
8.91 -0.825833
8.92 -0.853914
8.93 -0.884943
8.94 -0.918034
8.95 -0.951812
8.96 -0.985224
8.97 -1.01724
8.98 -1.04705
8.99 -1.07373
9 -1.09717
9.01 -1.11651
9.02 -1.13214
9.03 -1.14387
9.04 -1.15194
9.05 -1.15686
9.06 -1.15866
9.07 -1.15815
9.08 -1.15544
9.09 -1.15103
9.1 -1.14513
9.11 -1.13773
9.12 -1.12896
9.13 -1.11836
9.14 -1.10578
9.15 -1.09058
9.16 -1.0721
9.17 -1.04992
9.18 -1.02275
9.19 -0.990612
9.2 -0.952308
9.21 -0.907828
9.22 -0.856962
9.23 -0.799389
9.24 -0.736176
9.25 -0.667175
9.26 -0.594147
9.27 -0.518077
9.28 -0.44072
9.29 -0.3638
9.3 -0.289636
9.31 -0.219797
9.32 -0.156903
9.33 -0.10245
9.34 -0.0580063
9.35 -0.0256913
9.36 -0.00502047
9.37 0.00159621
9.38 -0.00400988
9.39 -0.0221963
9.4 -0.0517494
9.41 -0.0905868
9.42 -0.137761
9.43 -0.189997
9.44 -0.245435
9.45 -0.301242
9.46 -0.355148
9.47 -0.404507
9.48 -0.448042
9.49 -0.483077
9.5 -0.509626
9.51 -0.526561
9.52 -0.533952
9.53 -0.532903
9.54 -0.52349
9.55 -0.50829
9.56 -0.488448
9.57 -0.466399
9.58 -0.444101
9.59 -0.423839
9.6 -0.407103
9.61 -0.396247
9.62 -0.391745
9.63 -0.39481
9.64 -0.405744
9.65 -0.42391
9.66 -0.449602
9.67 -0.480844
9.68 -0.517023
9.69 -0.556278
9.7 -0.597185
9.71 -0.638172
9.72 -0.677991
9.73 -0.715194
9.74 -0.749269
9.75 -0.779494
9.76 -0.805669
9.77 -0.828128
9.78 -0.846709
9.79 -0.862352
9.8 -0.875125
9.81 -0.885527
9.82 -0.893588
9.83 -0.898771
9.84 -0.900646
9.85 -0.897138
9.86 -0.886941
9.87 -0.867105
9.88 -0.83434
9.89 -0.786355
9.9 -0.716831
9.91 -0.625161
9.92 -0.5049
9.93 -0.354653
9.94 -0.172066
9.95 0.046714
9.96 0.298109
9.97 0.586469
9.98 0.904923
9.99 1.2521
10 1.62242
10.01 2.00868
10.02 2.40446
10.03 2.80039
10.04 3.18719
10.05 3.55569
10.06 3.89728
10.07 4.20037
10.08 4.46199
10.09 4.66786
10.1 4.81959
10.11 4.9098
10.12 4.93661
10.13 4.90412
10.14 4.8064
10.15 4.65606
10.16 4.45204
10.17 4.20495
10.18 3.92202
10.19 3.61052
10.2 3.28175
10.21 2.9429
10.22 2.60387
10.23 2.27228
10.24 1.95567
10.25 1.65833
10.26 1.38802
10.27 1.14391
10.28 0.930949
10.29 0.747367
10.3 0.592277
10.31 0.46527
10.32 0.360588
10.33 0.277889
10.34 0.210509
10.35 0.155635
10.36 0.108955
10.37 0.0666386
10.38 0.0256165
10.39 -0.0168019
10.4 -0.0628145
10.41 -0.113553
10.42 -0.169616
10.43 -0.231395
10.44 -0.297808
10.45 -0.368581
10.46 -0.44194
10.47 -0.516706
10.48 -0.591269
10.49 -0.66434
10.5 -0.73419
10.51 -0.800175
10.52 -0.860877
10.53 -0.91593
10.54 -0.964929
10.55 -1.00722
10.56 -1.04352
10.57 -1.07295
10.58 -1.09657
10.59 -1.11416
10.6 -1.12598
10.61 -1.13258
10.62 -1.13342
10.63 -1.12939
10.64 -1.11998
10.65 -1.10557
10.66 -1.08623
10.67 -1.06177
10.68 -1.03293
10.69 -0.999363
10.7 -0.962112
10.71 -0.921511
10.72 -0.878405
10.73 -0.833792
10.74 -0.788671
10.75 -0.744219
10.76 -0.701755
10.77 -0.662419
10.78 -0.627281
10.79 -0.597795
10.8 -0.57414
10.81 -0.558008
10.82 -0.548921
10.83 -0.547549
10.84 -0.553818
10.85 -0.566933
10.86 -0.58722
10.87 -0.612961
10.88 -0.643896
10.89 -0.678625
10.9 -0.716142
10.91 -0.755417
10.92 -0.7953
10.93 -0.834812
10.94 -0.873142
10.95 -0.909521
10.96 -0.943332
10.97 -0.974374
10.98 -1.00196
10.99 -1.02645
11 -1.04747
11.01 -1.06534
11.02 -1.08025
11.03 -1.09227
11.04 -1.10199
11.05 -1.10941
11.06 -1.11517
11.07 -1.11948
11.08 -1.12274
11.09 -1.12532
11.1 -1.12752
11.11 -1.12969
11.12 -1.13208
11.13 -1.1349
11.14 -1.13823
11.15 -1.14212
11.16 -1.14636
11.17 -1.15062
11.18 -1.15433
11.19 -1.15667
11.2 -1.1565
11.21 -1.15278
11.22 -1.1432
11.23 -1.12683
11.24 -1.10082
11.25 -1.06355
11.26 -1.01308
11.27 -0.946193
11.28 -0.863048
11.29 -0.759345
11.3 -0.636482
11.31 -0.492638
11.32 -0.327891
11.33 -0.144396
11.34 0.0586698
11.35 0.276255
11.36 0.506878
11.37 0.745609
11.38 0.98821
11.39 1.2293
11.4 1.46415
11.41 1.68567
11.42 1.89001
11.43 2.07106
11.44 2.22369
11.45 2.34627
11.46 2.43094
11.47 2.48097
11.48 2.49107
11.49 2.46383
11.5 2.40053
11.51 2.30127
11.52 2.17314
11.53 2.01617
11.54 1.83872
11.55 1.64451
11.56 1.43952
11.57 1.22943
11.58 1.01958
11.59 0.814608
11.6 0.619434
11.61 0.43714
11.62 0.270147
11.63 0.12151
11.64 -0.0100574
11.65 -0.121866
11.66 -0.217121
11.67 -0.296157
11.68 -0.361123
11.69 -0.415128
11.7 -0.459563
11.71 -0.498272
11.72 -0.533083
11.73 -0.566551
11.74 -0.600368
11.75 -0.636061
11.76 -0.674155
11.77 -0.715304
11.78 -0.758831
11.79 -0.804108
11.8 -0.849775
11.81 -0.894364
11.82 -0.935583
11.83 -0.971975
11.84 -1.00086
11.85 -1.02061
11.86 -1.0296
11.87 -1.02531
11.88 -1.00811
11.89 -0.975009
11.9 -0.927475
11.91 -0.864541
11.92 -0.786595
11.93 -0.69541
11.94 -0.590447
11.95 -0.475127
11.96 -0.350071
11.97 -0.218079
11.98 -0.0813185
11.99 0.0578053
12 0.196708
12.01 0.332515
12.02 0.463039
12.03 0.585579
12.04 0.697585
12.05 0.797894
12.06 0.882677
12.07 0.952625
12.08 1.0047
12.09 1.03913
12.1 1.05564
12.11 1.05299
12.12 1.03383
12.13 0.996605
12.14 0.944872
12.15 0.879397
12.16 0.80241
12.17 0.716833
12.18 0.624317
12.19 0.528338
12.2 0.431095
12.21 0.335234
12.22 0.242797
12.23 0.156157
12.24 0.0760217
12.25 0.00456287
12.26 -0.0587091
12.27 -0.113231
12.28 -0.159439
12.29 -0.198702
12.3 -0.231428
12.31 -0.259991
12.32 -0.285596
12.33 -0.310229
12.34 -0.33542
12.35 -0.362835
12.36 -0.393265
12.37 -0.428007
12.38 -0.466823
12.39 -0.509746
12.4 -0.555985
12.41 -0.604204
12.42 -0.65278
