# xPDFsuite Configuration #
[PDF]
wavelength = 0.1432
dataformat = twotheta
inputfile = 1_1Pd_CeO2_cycle-00453.chi
backgroundfile = background-00000.chi
mode = xray
bgscale = 1.007
composition = CeO2
outputtype = gr
qmaxinst = 28.8974762299
qmin = 0.5
qmax = 27.9
rmax = 50.0
rmin = 0.0
rstep = 0.01
rpoly = 1.8657

[Misc]
inputdir = G:/SankarDec16/1Pd/Chi
savedir = D:/DATA/APS_CeO2/1Pd
backgroundfilefull = G:/SankarDec16/Background/background-00000.chi

#### start data
#S 1
#L r($\AA$)  G($\AA^{-2}$)
0 0
0.01 -0.00435094
0.02 -0.00837314
0.03 -0.0117281
0.04 -0.0141612
0.05 -0.0155309
0.06 -0.0156098
0.07 -0.0145503
0.08 -0.0122803
0.09 -0.00909027
0.1 -0.00518178
0.11 -0.000862647
0.12 0.00353251
0.13 0.00762722
0.14 0.0111568
0.15 0.0137959
0.16 0.0153557
0.17 0.0157616
0.18 0.0148607
0.19 0.0128784
0.2 0.00982629
0.21 0.00604378
0.22 0.00178218
0.23 -0.00261263
0.24 -0.00682659
0.25 -0.0104543
0.26 -0.0133083
0.27 -0.0150928
0.28 -0.0156938
0.29 -0.015108
0.3 -0.0132647
0.31 -0.0104508
0.32 -0.00676143
0.33 -0.00256806
0.34 0.00184074
0.35 0.00609804
0.36 0.00992616
0.37 0.0129111
0.38 0.0149517
0.39 0.0157968
0.4 0.0154133
0.41 0.0138693
0.42 0.0111799
0.43 0.00767964
0.44 0.00354239
0.45 -0.000846558
0.46 -0.0051759
0.47 -0.00907571
0.48 -0.0123188
0.49 -0.0145033
0.5 -0.0156197
0.51 -0.0154741
0.52 -0.0141162
0.53 -0.0116823
0.54 -0.00827304
0.55 -0.004254
0.56 0.000130801
0.57 0.00450125
0.58 0.00853901
0.59 0.0118895
0.6 0.0143877
0.61 0.0156639
0.62 0.0158011
0.63 0.0146727
0.64 0.0124089
0.65 0.00920772
0.66 0.00525074
0.67 0.000916191
0.68 -0.00349366
0.69 -0.00762269
0.7 -0.0111615
0.71 -0.0137882
0.72 -0.0154085
0.73 -0.0157029
0.74 -0.0148427
0.75 -0.0127744
0.76 -0.0097017
0.77 -0.0058737
0.78 -0.00154263
0.79 0.00291993
0.8 0.00717078
0.81 0.010896
0.82 0.0138123
0.83 0.0156478
0.84 0.0163831
0.85 0.0157673
0.86 0.0140487
0.87 0.0112491
0.88 0.00763273
0.89 0.00348324
0.9 -0.000894781
0.91 -0.0051611
0.92 -0.00895924
0.93 -0.0120415
0.94 -0.0141766
0.95 -0.0151716
0.96 -0.0150894
0.97 -0.0137866
0.98 -0.0115762
0.99 -0.00857506
1 -0.00510271
1.01 -0.00146586
1.02 0.00197626
1.03 0.00494971
1.04 0.00709219
1.05 0.00825911
1.06 0.00829778
1.07 0.00713031
1.08 0.00493612
1.09 0.00173037
1.1 -0.00207767
1.11 -0.00621926
1.12 -0.0102717
1.13 -0.0138664
1.14 -0.0165018
1.15 -0.017963
1.16 -0.0177759
1.17 -0.015887
1.18 -0.0121635
1.19 -0.00657803
1.2 0.000543386
1.21 0.00914712
1.22 0.0186292
1.23 0.0286128
1.24 0.0385131
1.25 0.0478228
1.26 0.0558508
1.27 0.0622792
1.28 0.0664137
1.29 0.0681069
1.3 0.0670721
1.31 0.0631016
1.32 0.05652
1.33 0.0470693
1.34 0.0354722
1.35 0.0219127
1.36 0.00697671
1.37 -0.00877841
1.38 -0.024776
1.39 -0.040434
1.4 -0.0551065
1.41 -0.0683513
1.42 -0.0797056
1.43 -0.0886968
1.44 -0.0953177
1.45 -0.0989545
1.46 -0.0999784
1.47 -0.0981453
1.48 -0.0936492
1.49 -0.0867551
1.5 -0.0774788
1.51 -0.0663974
1.52 -0.0536105
1.53 -0.0396424
1.54 -0.0248161
1.55 -0.00953154
1.56 0.00581332
1.57 0.0207747
1.58 0.0350257
1.59 0.048124
1.6 0.0597148
1.61 0.0695498
1.62 0.0770946
1.63 0.0823984
1.64 0.0849325
1.65 0.0848039
1.66 0.0818804
1.67 0.0760858
1.68 0.0678122
1.69 0.0568763
1.7 0.0439819
1.71 0.0293295
1.72 0.0134837
1.73 -0.00301755
1.74 -0.0195925
1.75 -0.0356853
1.76 -0.0506347
1.77 -0.0640197
1.78 -0.0753966
1.79 -0.0843388
1.8 -0.0909222
1.81 -0.0946873
1.82 -0.0961596
1.83 -0.0953638
1.84 -0.0927801
1.85 -0.088933
1.86 -0.0843393
1.87 -0.0796726
1.88 -0.0755739
1.89 -0.0725787
1.9 -0.0711709
1.91 -0.0718073
1.92 -0.0744669
1.93 -0.0795358
1.94 -0.0865043
1.95 -0.0952289
1.96 -0.105125
1.97 -0.115568
1.98 -0.125781
1.99 -0.135056
2 -0.142422
2.01 -0.147281
2.02 -0.14895
2.03 -0.146732
2.04 -0.140701
2.05 -0.130003
2.06 -0.115354
2.07 -0.0965776
2.08 -0.0741919
2.09 -0.0488076
2.1 -0.0207761
2.11 0.00896378
2.12 0.0399851
2.13 0.0715914
2.14 0.103364
2.15 0.134949
2.16 0.166216
2.17 0.1971
2.18 0.227806
2.19 0.258585
2.2 0.289815
2.21 0.321834
2.22 0.355134
2.23 0.389805
2.24 0.426161
2.25 0.463963
2.26 0.50294
2.27 0.542484
2.28 0.581773
2.29 0.619491
2.3 0.654563
2.31 0.685292
2.32 0.710139
2.33 0.727963
2.34 0.736397
2.35 0.73554
2.36 0.723184
2.37 0.69984
2.38 0.665186
2.39 0.619254
2.4 0.563997
2.41 0.499384
2.42 0.428557
2.43 0.352991
2.44 0.27533
2.45 0.197894
2.46 0.12346
2.47 0.0537654
2.48 -0.00845457
2.49 -0.0622317
2.5 -0.106329
2.51 -0.139751
2.52 -0.163591
2.53 -0.176855
2.54 -0.182175
2.55 -0.180289
2.56 -0.173388
2.57 -0.163568
2.58 -0.152935
2.59 -0.143528
2.6 -0.137466
2.61 -0.136016
2.62 -0.140311
2.63 -0.151234
2.64 -0.168179
2.65 -0.191665
2.66 -0.219813
2.67 -0.251766
2.68 -0.285679
2.69 -0.31984
2.7 -0.352204
2.71 -0.381397
2.72 -0.405434
2.73 -0.423619
2.74 -0.435175
2.75 -0.439634
2.76 -0.438005
2.77 -0.430177
2.78 -0.418289
2.79 -0.403514
2.8 -0.387868
2.81 -0.373114
2.82 -0.361437
2.83 -0.353973
2.84 -0.352671
2.85 -0.357889
2.86 -0.37012
2.87 -0.389448
2.88 -0.414511
2.89 -0.444903
2.9 -0.47823
2.91 -0.512877
2.92 -0.546559
2.93 -0.577404
2.94 -0.60287
2.95 -0.622098
2.96 -0.63294
2.97 -0.635398
2.98 -0.629167
2.99 -0.614428
3 -0.593
3.01 -0.565544
3.02 -0.534908
3.03 -0.503011
3.04 -0.472436
3.05 -0.445236
3.06 -0.424165
3.07 -0.410032
3.08 -0.405038
3.09 -0.409006
3.1 -0.422087
3.11 -0.443883
3.12 -0.472342
3.13 -0.506542
3.14 -0.543487
3.15 -0.581091
3.16 -0.616729
3.17 -0.64842
3.18 -0.673513
3.19 -0.691505
3.2 -0.700553
3.21 -0.701274
3.22 -0.694009
3.23 -0.679797
3.24 -0.660991
3.25 -0.639439
3.26 -0.618119
3.27 -0.599707
3.28 -0.586931
3.29 -0.581624
3.3 -0.586661
3.31 -0.601743
3.32 -0.628588
3.33 -0.665672
3.34 -0.711977
3.35 -0.765589
3.36 -0.823341
3.37 -0.882334
3.38 -0.939036
3.39 -0.989934
3.4 -1.03183
3.41 -1.06277
3.42 -1.07936
3.43 -1.08257
3.44 -1.07059
3.45 -1.0458
3.46 -1.00979
3.47 -0.965273
3.48 -0.916241
3.49 -0.866368
3.5 -0.819707
3.51 -0.780183
3.52 -0.750986
3.53 -0.733662
3.54 -0.730725
3.55 -0.739918
3.56 -0.760841
3.57 -0.788853
3.58 -0.819397
3.59 -0.845562
3.6 -0.861206
3.61 -0.855359
3.62 -0.822908
3.63 -0.753549
3.64 -0.640318
3.65 -0.479745
3.66 -0.26152
3.67 0.00887309
3.68 0.338258
3.69 0.718736
3.7 1.1463
3.71 1.6142
3.72 2.10913
3.73 2.62181
3.74 3.13615
3.75 3.63802
3.76 4.11164
3.77 4.54508
3.78 4.91823
3.79 5.2277
3.8 5.45454
3.81 5.5982
3.82 5.65287
3.83 5.61316
3.84 5.49039
3.85 5.27586
3.86 4.99016
3.87 4.63648
3.88 4.22906
3.89 3.78235
3.9 3.30767
3.91 2.82194
3.92 2.33791
3.93 1.86843
3.94 1.42417
3.95 1.01645
3.96 0.647824
3.97 0.330387
3.98 0.0592479
3.99 -0.161168
4 -0.333904
4.01 -0.464387
4.02 -0.553319
4.03 -0.611708
4.04 -0.642233
4.05 -0.654078
4.06 -0.65287
4.07 -0.644509
4.08 -0.634246
4.09 -0.626326
4.1 -0.623259
4.11 -0.627148
4.12 -0.638502
4.13 -0.656619
4.14 -0.680889
4.15 -0.708736
4.16 -0.738235
4.17 -0.766673
4.18 -0.791714
4.19 -0.810699
4.2 -0.82255
4.21 -0.824431
4.22 -0.81688
4.23 -0.798723
4.24 -0.770387
4.25 -0.732943
4.26 -0.686484
4.27 -0.633398
4.28 -0.574275
4.29 -0.511097
4.3 -0.445048
4.31 -0.377309
4.32 -0.308916
4.33 -0.240562
4.34 -0.172686
4.35 -0.105554
4.36 -0.0392169
4.37 0.0264021
4.38 0.0912919
4.39 0.155557
4.4 0.218988
4.41 0.281332
4.42 0.342066
4.43 0.40025
4.44 0.45524
4.45 0.505113
4.46 0.549243
4.47 0.585721
4.48 0.613191
4.49 0.630918
4.5 0.636536
4.51 0.630911
4.52 0.612112
4.53 0.581238
4.54 0.538489
4.55 0.4843
4.56 0.421022
4.57 0.348983
4.58 0.271325
4.59 0.189589
4.6 0.106199
4.61 0.023174
4.62 -0.0571649
4.63 -0.13351
4.64 -0.203812
4.65 -0.267448
4.66 -0.323667
4.67 -0.371823
4.68 -0.412865
4.69 -0.446128
4.7 -0.473467
4.71 -0.495316
4.72 -0.512985
4.73 -0.527736
4.74 -0.540515
4.75 -0.552549
4.76 -0.564633
4.77 -0.577434
4.78 -0.59135
4.79 -0.606626
4.8 -0.623077
4.81 -0.64062
4.82 -0.658703
4.83 -0.67688
4.84 -0.694554
4.85 -0.711253
4.86 -0.726302
4.87 -0.739544
4.88 -0.750458
4.89 -0.759103
4.9 -0.765458
4.91 -0.76959
4.92 -0.771975
4.93 -0.772737
4.94 -0.77252
4.95 -0.771672
4.96 -0.770674
4.97 -0.769889
4.98 -0.769719
4.99 -0.770322
5 -0.771976
5.01 -0.774689
5.02 -0.778496
5.03 -0.78341
5.04 -0.789247
5.05 -0.796056
5.06 -0.803602
5.07 -0.811854
5.08 -0.820696
5.09 -0.83001
5.1 -0.839715
5.11 -0.849606
5.12 -0.859461
5.13 -0.868925
5.14 -0.877544
5.15 -0.884561
5.16 -0.889406
5.17 -0.890565
5.18 -0.887367
5.19 -0.878119
5.2 -0.861373
5.21 -0.836153
5.22 -0.79979
5.23 -0.752512
5.24 -0.691724
5.25 -0.617713
5.26 -0.529934
5.27 -0.42788
5.28 -0.313681
5.29 -0.186779
5.3 -0.0508503
5.31 0.0924427
5.32 0.239693
5.33 0.387554
5.34 0.531775
5.35 0.669092
5.36 0.794435
5.37 0.904807
5.38 0.996715
5.39 1.06594
5.4 1.11277
5.41 1.13166
5.42 1.12577
5.43 1.09314
5.44 1.03537
5.45 0.955493
5.46 0.853884
5.47 0.736583
5.48 0.605502
5.49 0.466029
5.5 0.322019
5.51 0.177909
5.52 0.0372598
5.53 -0.0953456
5.54 -0.218059
5.55 -0.327767
5.56 -0.422943
5.57 -0.503524
5.58 -0.567541
5.59 -0.617654
5.6 -0.653116
5.61 -0.676628
5.62 -0.689681
5.63 -0.693908
5.64 -0.691995
5.65 -0.68498
5.66 -0.67514
5.67 -0.663447
5.68 -0.650871
5.69 -0.637878
5.7 -0.62449
5.71 -0.610476
5.72 -0.595143
5.73 -0.577782
5.74 -0.557548
5.75 -0.533354
5.76 -0.504969
5.77 -0.471139
5.78 -0.43244
5.79 -0.388641
5.8 -0.340449
5.81 -0.288963
5.82 -0.235284
5.83 -0.181228
5.84 -0.128642
5.85 -0.0794089
5.86 -0.035367
5.87 0.00122539
5.88 0.0297459
5.89 0.0474436
5.9 0.0549732
5.91 0.0510978
5.92 0.0360876
5.93 0.011015
5.94 -0.024251
5.95 -0.067092
5.96 -0.116833
5.97 -0.171088
5.98 -0.228198
5.99 -0.286308
6 -0.343824
6.01 -0.399044
6.02 -0.451177
6.03 -0.499224
6.04 -0.542818
6.05 -0.582152
6.06 -0.617019
6.07 -0.648534
6.08 -0.677025
6.09 -0.703603
6.1 -0.729047
6.11 -0.754178
6.12 -0.779611
6.13 -0.805893
6.14 -0.833094
6.15 -0.861216
6.16 -0.88989
6.17 -0.918585
6.18 -0.946478
6.19 -0.97289
6.2 -0.996737
6.21 -1.01739
6.22 -1.03419
6.23 -1.04643
6.24 -1.0544
6.25 -1.05746
6.26 -1.05661
6.27 -1.05209
6.28 -1.04476
6.29 -1.03555
6.3 -1.02518
6.31 -1.01446
6.32 -1.00383
6.33 -0.993349
6.34 -0.982651
6.35 -0.970665
6.36 -0.956134
6.37 -0.936195
6.38 -0.908854
6.39 -0.870351
6.4 -0.816965
6.41 -0.746069
6.42 -0.651166
6.43 -0.532104
6.44 -0.382497
6.45 -0.202192
6.46 0.0105837
6.47 0.257976
6.48 0.535532
6.49 0.845769
6.5 1.18065
6.51 1.53739
6.52 1.90893
6.53 2.28785
6.54 2.6657
6.55 3.03427
6.56 3.38291
6.57 3.70373
6.58 3.98837
6.59 4.22615
6.6 4.41596
6.61 4.54373
6.62 4.61406
6.63 4.62022
6.64 4.56285
6.65 4.44689
6.66 4.2689
6.67 4.04203
6.68 3.76667
6.69 3.45448
6.7 3.113
6.71 2.7507
6.72 2.37812
6.73 2.0037
6.74 1.63617
6.75 1.28358
6.76 0.952963
6.77 0.648087
6.78 0.376929
6.79 0.137571
6.8 -0.0644083
6.81 -0.231746
6.82 -0.365065
6.83 -0.464854
6.84 -0.537302
6.85 -0.581799
6.86 -0.605935
6.87 -0.611907
6.88 -0.6042
6.89 -0.58692
6.9 -0.56267
6.91 -0.535106
6.92 -0.506218
6.93 -0.477967
6.94 -0.451538
6.95 -0.427907
6.96 -0.407125
6.97 -0.389748
6.98 -0.375186
6.99 -0.363427
7 -0.354153
7.01 -0.347038
7.02 -0.342254
7.03 -0.339541
7.04 -0.339398
7.05 -0.342012
7.06 -0.347859
7.07 -0.357715
7.08 -0.371638
7.09 -0.390833
7.1 -0.414935
7.11 -0.444491
7.12 -0.479351
7.13 -0.518917
7.14 -0.563095
7.15 -0.610451
7.16 -0.660277
7.17 -0.711094
7.18 -0.761658
7.19 -0.810437
7.2 -0.856442
7.21 -0.897904
7.22 -0.934481
7.23 -0.965116
7.24 -0.989474
7.25 -1.00786
7.26 -1.01983
7.27 -1.0268
7.28 -1.02896
7.29 -1.02771
7.3 -1.02403
7.31 -1.01899
7.32 -1.01363
7.33 -1.0088
7.34 -1.00497
7.35 -1.00241
7.36 -1.00091
7.37 -0.99991
7.38 -0.998386
7.39 -0.995175
7.4 -0.98841
7.41 -0.976482
7.42 -0.957572
7.43 -0.929185
7.44 -0.890749
7.45 -0.838902
7.46 -0.774271
7.47 -0.695145
7.48 -0.601472
7.49 -0.49441
7.5 -0.373333
7.51 -0.241595
7.52 -0.099964
7.53 0.0481848
7.54 0.200189
7.55 0.35271
7.56 0.502677
7.57 0.645888
7.58 0.779987
7.59 0.901314
7.6 1.00709
7.61 1.09614
7.62 1.16429
7.63 1.21323
7.64 1.23981
7.65 1.2456
7.66 1.23087
7.67 1.19559
7.68 1.14329
7.69 1.07326
7.7 0.990005
7.71 0.894811
7.72 0.790563
7.73 0.680153
7.74 0.565787
7.75 0.450432
7.76 0.33648
7.77 0.226193
7.78 0.121517
7.79 0.024806
7.8 -0.0633876
7.81 -0.140223
7.82 -0.206205
7.83 -0.259808
7.84 -0.300725
7.85 -0.329611
7.86 -0.345153
7.87 -0.349657
7.88 -0.342547
7.89 -0.325804
7.9 -0.300612
7.91 -0.268249
7.92 -0.231099
7.93 -0.190536
7.94 -0.149027
7.95 -0.108487
7.96 -0.0710932
7.97 -0.0383903
7.98 -0.0129719
7.99 0.00473714
8 0.0125274
8.01 0.0102578
8.02 -0.00254604
8.03 -0.0265105
8.04 -0.0600648
8.05 -0.103885
8.06 -0.155466
8.07 -0.213998
8.08 -0.277595
8.09 -0.344314
8.1 -0.412425
8.11 -0.48001
8.12 -0.54527
8.13 -0.606864
8.14 -0.663691
8.15 -0.714573
8.16 -0.759756
8.17 -0.798233
8.18 -0.831166
8.19 -0.858686
8.2 -0.881704
8.21 -0.901323
8.22 -0.918187
8.23 -0.933494
8.24 -0.947734
8.25 -0.961367
8.26 -0.974376
8.27 -0.986212
8.28 -0.996155
8.29 -1.0023
8.3 -1.00326
8.31 -0.996439
8.32 -0.97912
8.33 -0.949468
8.34 -0.902725
8.35 -0.838739
8.36 -0.752934
8.37 -0.644954
8.38 -0.513532
8.39 -0.356769
8.4 -0.177775
8.41 0.0256184
8.42 0.247979
8.43 0.487689
8.44 0.740259
8.45 1.00063
8.46 1.26369
8.47 1.52359
8.48 1.7737
8.49 2.00847
8.5 2.22239
8.51 2.40826
8.52 2.56485
8.53 2.683
8.54 2.76475
8.55 2.80551
8.56 2.80473
8.57 2.76521
8.58 2.68354
8.59 2.56784
8.6 2.41733
8.61 2.23886
8.62 2.03678
8.63 1.81554
8.64 1.5822
8.65 1.34098
8.66 1.09829
8.67 0.858887
8.68 0.627738
8.69 0.407953
8.7 0.204825
8.71 0.0185146
8.72 -0.147003
8.73 -0.292125
8.74 -0.416486
8.75 -0.519273
8.76 -0.603745
8.77 -0.668593
8.78 -0.718247
8.79 -0.75366
8.8 -0.777466
8.81 -0.792535
8.82 -0.800404
8.83 -0.804179
8.84 -0.805423
8.85 -0.806149
8.86 -0.807711
8.87 -0.811422
8.88 -0.817771
8.89 -0.827717
8.9 -0.840959
8.91 -0.85764
8.92 -0.877378
8.93 -0.899521
8.94 -0.923651
8.95 -0.948805
8.96 -0.974334
8.97 -0.999443
8.98 -1.0235
8.99 -1.04578
9 -1.06605
9.01 -1.0836
9.02 -1.09857
9.03 -1.11068
9.04 -1.11999
9.05 -1.12679
9.06 -1.13096
9.07 -1.13309
9.08 -1.13314
9.09 -1.13147
9.1 -1.12819
9.11 -1.12326
9.12 -1.11679
9.13 -1.10834
9.14 -1.09785
9.15 -1.08477
9.16 -1.06855
9.17 -1.04889
9.18 -1.02464
9.19 -0.995906
9.2 -0.961601
9.21 -0.921728
9.22 -0.876084
9.23 -0.82433
9.24 -0.767374
9.25 -0.70497
9.26 -0.638625
9.27 -0.569093
9.28 -0.497823
9.29 -0.426295
9.3 -0.356384
9.31 -0.289536
9.32 -0.227942
9.33 -0.17299
9.34 -0.126105
9.35 -0.0892089
9.36 -0.0620723
9.37 -0.0469326
9.38 -0.0424393
9.39 -0.0491349
9.4 -0.0662405
9.41 -0.0921495
9.42 -0.126432
9.43 -0.166316
9.44 -0.21055
9.45 -0.256742
9.46 -0.303029
9.47 -0.347277
9.48 -0.388147
9.49 -0.423483
9.5 -0.452897
9.51 -0.475288
9.52 -0.490393
9.53 -0.498806
9.54 -0.500255
9.55 -0.496573
9.56 -0.488356
9.57 -0.477393
9.58 -0.465105
9.59 -0.453146
9.6 -0.44283
9.61 -0.435901
9.62 -0.433024
9.63 -0.435267
9.64 -0.443133
9.65 -0.456402
9.66 -0.475605
9.67 -0.49947
9.68 -0.527841
9.69 -0.55947
9.7 -0.59342
9.71 -0.628658
9.72 -0.664107
9.73 -0.698757
9.74 -0.731899
9.75 -0.762803
9.76 -0.790949
9.77 -0.816206
9.78 -0.837915
9.79 -0.856391
9.8 -0.871025
9.81 -0.881763
9.82 -0.888162
9.83 -0.889146
9.84 -0.884391
9.85 -0.871459
9.86 -0.849657
9.87 -0.816362
9.88 -0.769073
9.89 -0.706397
9.9 -0.623216
9.91 -0.519895
9.92 -0.39146
9.93 -0.237477
9.94 -0.0565325
9.95 0.153979
9.96 0.390732
9.97 0.656824
9.98 0.946508
9.99 1.25848
10 1.58819
10.01 1.92992
10.02 2.27852
10.03 2.62674
10.04 2.96724
10.05 3.2929
10.06 3.59692
10.07 3.87011
10.08 4.11005
10.09 4.30516
10.1 4.4565
10.11 4.55772
10.12 4.60677
10.13 4.60644
10.14 4.55089
10.15 4.44989
10.16 4.30134
10.17 4.11324
10.18 3.89072
10.19 3.63856
10.2 3.36619
10.21 3.07807
10.22 2.78307
10.23 2.48703
10.24 2.1965
10.25 1.91593
10.26 1.6518
10.27 1.40519
10.28 1.18081
10.29 0.978741
10.3 0.799461
10.31 0.644015
10.32 0.508681
10.33 0.394655
10.34 0.296949
10.35 0.214168
10.36 0.143239
10.37 0.0808522
10.38 0.0251123
10.39 -0.0272387
10.4 -0.0779387
10.41 -0.128891
10.42 -0.181286
10.43 -0.236164
10.44 -0.293631
10.45 -0.354132
10.46 -0.41697
10.47 -0.481736
10.48 -0.547555
10.49 -0.613513
10.5 -0.678469
10.51 -0.741585
10.52 -0.801627
10.53 -0.857856
10.54 -0.90955
10.55 -0.955685
10.56 -0.996429
10.57 -1.03053
10.58 -1.05859
10.59 -1.08012
10.6 -1.09517
10.61 -1.10426
10.62 -1.1068
10.63 -1.10398
10.64 -1.09546
10.65 -1.082
10.66 -1.06399
10.67 -1.04162
10.68 -1.01583
10.69 -0.986639
10.7 -0.955025
10.71 -0.921383
10.72 -0.886385
10.73 -0.850698
10.74 -0.814988
10.75 -0.779906
10.76 -0.746227
10.77 -0.714564
10.78 -0.685518
10.79 -0.659946
10.8 -0.637968
10.81 -0.620702
10.82 -0.607978
10.83 -0.600413
10.84 -0.59824
10.85 -0.601196
10.86 -0.609991
10.87 -0.62369
10.88 -0.642653
10.89 -0.66617
10.9 -0.693806
10.91 -0.72521
10.92 -0.759367
10.93 -0.795915
10.94 -0.833774
10.95 -0.872248
10.96 -0.910432
10.97 -0.947605
10.98 -0.982726
10.99 -1.01539
11 -1.04464
11.01 -1.07016
11.02 -1.09159
11.03 -1.10843
11.04 -1.12114
11.05 -1.1292
11.06 -1.13352
11.07 -1.13429
11.08 -1.13219
11.09 -1.12809
11.1 -1.12262
11.11 -1.11679
11.12 -1.11136
11.13 -1.10705
11.14 -1.10436
11.15 -1.10379
11.16 -1.10513
11.17 -1.10841
11.18 -1.11277
11.19 -1.11733
11.2 -1.12064
11.21 -1.12127
11.22 -1.11661
11.23 -1.10529
11.24 -1.08412
11.25 -1.05125
11.26 -1.0046
11.27 -0.940906
11.28 -0.860487
11.29 -0.759245
11.3 -0.638965
11.31 -0.49825
11.32 -0.337694
11.33 -0.159799
11.34 0.0355766
11.35 0.243375
11.36 0.461681
11.37 0.685736
11.38 0.911502
11.39 1.13393
11.4 1.34907
11.41 1.55056
11.42 1.73558
11.43 1.89907
11.44 2.03712
11.45 2.14884
11.46 2.228
11.47 2.27788
11.48 2.29441
11.49 2.28006
11.5 2.23605
11.51 2.1625
11.52 2.06511
11.53 1.9436
11.54 1.80448
11.55 1.65023
11.56 1.48509
11.57 1.31328
11.58 1.13811
11.59 0.963326
11.6 0.792064
11.61 0.626822
11.62 0.469511
11.63 0.322445
11.64 0.185434
11.65 0.060697
11.66 -0.0531287
11.67 -0.155571
11.68 -0.247219
11.69 -0.329534
11.7 -0.402274
11.71 -0.467774
11.72 -0.526213
11.73 -0.579068
11.74 -0.627188
11.75 -0.671085
11.76 -0.711769
11.77 -0.749173
11.78 -0.783898
11.79 -0.815775
11.8 -0.84461
11.81 -0.870312
11.82 -0.891871
11.83 -0.909279
11.84 -0.921296
11.85 -0.92742
11.86 -0.926905
11.87 -0.918333
11.88 -0.901863
11.89 -0.875402
11.9 -0.839477
11.91 -0.792954
11.92 -0.7354
11.93 -0.667445
11.94 -0.587695
11.95 -0.498166
11.96 -0.398357
11.97 -0.289942
11.98 -0.174191
11.99 -0.0524269
12 0.072894
12.01 0.199893
12.02 0.325932
12.03 0.448489
12.04 0.564696
12.05 0.672668
12.06 0.768383
12.07 0.851408
12.08 0.918229
12.09 0.968212
12.1 1.00046
12.11 1.0131
12.12 1.00838
12.13 0.984208
12.14 0.944078
12.15 0.888539
12.16 0.819798
12.17 0.740956
12.18 0.653594
12.19 0.561572
12.2 0.467127
12.21 0.373159
12.22 0.281857
12.23 0.195672
12.24 0.115468
12.25 0.0433849
12.26 -0.0209771
12.27 -0.0770787
12.28 -0.125352
12.29 -0.167114
12.3 -0.202781
12.31 -0.234582
12.32 -0.263623
12.33 -0.291695
12.34 -0.320127
12.35 -0.350297
12.36 -0.382821
12.37 -0.418619
12.38 -0.457362
