# xPDFsuite Configuration #
[PDF]
wavelength = 0.1432
dataformat = twotheta
inputfile = 1_1Pd_CeO2_cycle-00149.chi
backgroundfile = background-00000.chi
mode = xray
bgscale = 1.007
composition = CeO2
outputtype = gr
qmaxinst = 28.8974762299
qmin = 0.5
qmax = 27.9
rmax = 50.0
rmin = 0.0
rstep = 0.01
rpoly = 1.8657

[Misc]
inputdir = G:/SankarDec16/1Pd/Chi
savedir = D:/DATA/APS_CeO2/1Pd
backgroundfilefull = G:/SankarDec16/Background/background-00000.chi

#### start data
#S 1
#L r($\AA$)  G($\AA^{-2}$)
0 0
0.01 -0.00645563
0.02 -0.0124243
0.03 -0.0174046
0.04 -0.021019
0.05 -0.0230576
0.06 -0.023183
0.07 -0.0216206
0.08 -0.0182624
0.09 -0.0135385
0.1 -0.00774637
0.11 -0.00134156
0.12 0.00518003
0.13 0.0112613
0.14 0.016509
0.15 0.0204405
0.16 0.0227744
0.17 0.0233988
0.18 0.0220852
0.19 0.0191656
0.2 0.0146549
0.21 0.00905492
0.22 0.00273664
0.23 -0.00378832
0.24 -0.0100536
0.25 -0.0154591
0.26 -0.0197238
0.27 -0.022408
0.28 -0.0233396
0.29 -0.0225107
0.3 -0.0198128
0.31 -0.0156688
0.32 -0.0102159
0.33 -0.00400383
0.34 0.00254116
0.35 0.00887557
0.36 0.0145855
0.37 0.0190566
0.38 0.0221343
0.39 0.0234431
0.4 0.0229289
0.41 0.0206886
0.42 0.0167394
0.43 0.0115749
0.44 0.00544824
0.45 -0.00106921
0.46 -0.00751656
0.47 -0.0133444
0.48 -0.0182118
0.49 -0.0215204
0.5 -0.0232494
0.51 -0.0231063
0.52 -0.0211585
0.53 -0.0176032
0.54 -0.0125831
0.55 -0.0066392
0.56 -0.000128509
0.57 0.00638327
0.58 0.0124232
0.59 0.0174624
0.6 0.0212499
0.61 0.0232324
0.62 0.023525
0.63 0.0219329
0.64 0.018642
0.65 0.013941
0.66 0.00809229
0.67 0.00165778
0.68 -0.00491832
0.69 -0.0111032
0.7 -0.016435
0.71 -0.0204308
0.72 -0.0229424
0.73 -0.0234884
0.74 -0.0223144
0.75 -0.0193326
0.76 -0.0148388
0.77 -0.00919865
0.78 -0.0027806
0.79 0.00386023
0.8 0.010216
0.81 0.0158132
0.82 0.0202256
0.83 0.0230412
0.84 0.0242222
0.85 0.0233854
0.86 0.0208933
0.87 0.01677
0.88 0.0114046
0.89 0.00521861
0.9 -0.00133545
0.91 -0.00774256
0.92 -0.0134652
0.93 -0.0181211
0.94 -0.0213517
0.95 -0.0228515
0.96 -0.0227026
0.97 -0.0206651
0.98 -0.0172028
0.99 -0.0124726
1 -0.00694795
1.01 -0.00109024
1.02 0.00456562
1.03 0.00958598
1.04 0.0134157
1.05 0.0158044
1.06 0.016491
1.07 0.0153132
1.08 0.0125056
1.09 0.00802012
1.1 0.00244723
1.11 -0.00387393
1.12 -0.0103463
1.13 -0.0164379
1.14 -0.0214569
1.15 -0.0250467
1.16 -0.026542
1.17 -0.0258117
1.18 -0.0226366
1.19 -0.0169333
1.2 -0.00910775
1.21 0.000819441
1.22 0.0120527
1.23 0.024129
1.24 0.0362908
1.25 0.0478789
1.26 0.0580277
1.27 0.0663103
1.28 0.071879
1.29 0.0745491
1.3 0.0739911
1.31 0.0699925
1.32 0.0629759
1.33 0.0527169
1.34 0.0401121
1.35 0.0254606
1.36 0.00950507
1.37 -0.00707556
1.38 -0.0235507
1.39 -0.0393018
1.4 -0.0535784
1.41 -0.0659797
1.42 -0.0760703
1.43 -0.083458
1.44 -0.0882799
1.45 -0.0900656
1.46 -0.0893629
1.47 -0.0861132
1.48 -0.0806791
1.49 -0.0734371
1.5 -0.0645868
1.51 -0.054663
1.52 -0.0438746
1.53 -0.03262
1.54 -0.0211458
1.55 -0.00970852
1.56 0.00151278
1.57 0.0122768
1.58 0.0224953
1.59 0.0319664
1.6 0.040549
1.61 0.0481321
1.62 0.0544131
1.63 0.0593873
1.64 0.0626735
1.65 0.0642354
1.66 0.0638707
1.67 0.061366
1.68 0.0568684
1.69 0.0500266
1.7 0.0412691
1.71 0.0305779
1.72 0.0182997
1.73 0.00482883
1.74 -0.00946004
1.75 -0.02399
1.76 -0.0382254
1.77 -0.0516378
1.78 -0.0637286
1.79 -0.0739637
1.8 -0.0822266
1.81 -0.0879325
1.82 -0.0914002
1.83 -0.0925034
1.84 -0.0915788
1.85 -0.0890663
1.86 -0.0853765
1.87 -0.0812207
1.88 -0.077212
1.89 -0.0739901
1.9 -0.0721207
1.91 -0.0721815
1.92 -0.0742762
1.93 -0.0789349
1.94 -0.0857312
1.95 -0.0946247
1.96 -0.105072
1.97 -0.116437
1.98 -0.127946
1.99 -0.138771
2 -0.147861
2.01 -0.154464
2.02 -0.15776
2.03 -0.156885
2.04 -0.151821
2.05 -0.141528
2.06 -0.126737
2.07 -0.107195
2.08 -0.0834659
2.09 -0.0562527
2.1 -0.0259925
2.11 0.00617441
2.12 0.0396525
2.13 0.07354
2.14 0.107234
2.15 0.14018
2.16 0.172183
2.17 0.202981
2.18 0.232878
2.19 0.262097
2.2 0.291159
2.21 0.320578
2.22 0.351053
2.23 0.382942
2.24 0.416853
2.25 0.452798
2.26 0.490749
2.27 0.530352
2.28 0.570796
2.29 0.611022
2.3 0.649728
2.31 0.685205
2.32 0.715664
2.33 0.739672
2.34 0.754532
2.35 0.75995
2.36 0.753279
2.37 0.734681
2.38 0.70348
2.39 0.659339
2.4 0.6042
2.41 0.537623
2.42 0.463067
2.43 0.38196
2.44 0.297244
2.45 0.211602
2.46 0.128147
2.47 0.0491537
2.48 -0.0221671
2.49 -0.0843698
2.5 -0.135783
2.51 -0.174947
2.52 -0.202852
2.53 -0.218001
2.54 -0.223278
2.55 -0.21929
2.56 -0.208461
2.57 -0.193214
2.58 -0.175894
2.59 -0.159096
2.6 -0.145318
2.61 -0.136321
2.62 -0.133643
2.63 -0.138601
2.64 -0.150749
2.65 -0.171037
2.66 -0.19745
2.67 -0.229256
2.68 -0.264454
2.69 -0.301089
2.7 -0.336945
2.71 -0.370218
2.72 -0.398648
2.73 -0.421164
2.74 -0.436704
2.75 -0.4445
2.76 -0.44546
2.77 -0.439215
2.78 -0.428024
2.79 -0.413028
2.8 -0.396397
2.81 -0.38009
2.82 -0.366473
2.83 -0.35695
2.84 -0.353694
2.85 -0.357256
2.86 -0.36828
2.87 -0.386975
2.88 -0.411943
2.89 -0.442824
2.9 -0.477035
2.91 -0.51284
2.92 -0.54774
2.93 -0.579664
2.94 -0.605817
2.95 -0.625221
2.96 -0.635515
2.97 -0.636691
2.98 -0.628428
2.99 -0.61097
3 -0.586347
3.01 -0.5554
3.02 -0.521299
3.03 -0.486267
3.04 -0.453222
3.05 -0.424455
3.06 -0.403102
3.07 -0.389965
3.08 -0.387504
3.09 -0.395375
3.1 -0.413629
3.11 -0.441645
3.12 -0.476955
3.13 -0.518262
3.14 -0.562072
3.15 -0.605801
3.16 -0.646347
3.17 -0.681415
3.18 -0.707825
3.19 -0.725162
3.2 -0.73126
3.21 -0.727039
3.22 -0.713028
3.23 -0.690623
3.24 -0.662773
3.25 -0.631856
3.26 -0.601519
3.27 -0.575088
3.28 -0.55589
3.29 -0.546131
3.3 -0.54931
3.31 -0.564963
3.32 -0.595133
3.33 -0.637852
3.34 -0.691791
3.35 -0.754507
3.36 -0.822068
3.37 -0.890817
3.38 -0.956435
3.39 -1.01458
3.4 -1.06135
3.41 -1.09442
3.42 -1.10971
3.43 -1.10852
3.44 -1.0888
3.45 -1.05364
3.46 -1.0052
3.47 -0.947068
3.48 -0.884292
3.49 -0.821822
3.5 -0.764692
3.51 -0.718104
3.52 -0.686203
3.53 -0.671017
3.54 -0.676137
3.55 -0.69865
3.56 -0.738606
3.57 -0.790233
3.58 -0.848143
3.59 -0.904133
3.6 -0.950404
3.61 -0.974119
3.62 -0.968502
3.63 -0.921223
3.64 -0.82362
3.65 -0.671207
3.66 -0.451564
3.67 -0.170784
3.68 0.179379
3.69 0.589827
3.7 1.05597
3.71 1.56999
3.72 2.11623
3.73 2.68392
3.74 3.25409
3.75 3.81029
3.76 4.3341
3.77 4.81161
3.78 5.21964
3.79 5.55436
3.8 5.7942
3.81 5.93888
3.82 5.98219
3.83 5.91867
3.84 5.76179
3.85 5.50278
3.86 5.16563
3.87 4.75507
3.88 4.28808
3.89 3.78155
3.9 3.2496
3.91 2.71095
3.92 2.18107
3.93 1.67388
3.94 1.20132
3.95 0.775843
3.96 0.399078
3.97 0.0843444
3.98 -0.175599
3.99 -0.376736
4 -0.523923
4.01 -0.624459
4.02 -0.680638
4.03 -0.70558
4.04 -0.703708
4.05 -0.685736
4.06 -0.658556
4.07 -0.629332
4.08 -0.603354
4.09 -0.586046
4.1 -0.578933
4.11 -0.584205
4.12 -0.601527
4.13 -0.62918
4.14 -0.665799
4.15 -0.707414
4.16 -0.751152
4.17 -0.793215
4.18 -0.83043
4.19 -0.859286
4.2 -0.878485
4.21 -0.884433
4.22 -0.878057
4.23 -0.858042
4.24 -0.825189
4.25 -0.781078
4.26 -0.726137
4.27 -0.663517
4.28 -0.594251
4.29 -0.520912
4.3 -0.445106
4.31 -0.368427
4.32 -0.292048
4.33 -0.216977
4.34 -0.143505
4.35 -0.071933
4.36 -0.00214243
4.37 0.0661539
4.38 0.133083
4.39 0.199016
4.4 0.263864
4.41 0.327516
4.42 0.389496
4.43 0.448849
4.44 0.504873
4.45 0.555476
4.46 0.599907
4.47 0.636035
4.48 0.662316
4.49 0.677909
4.5 0.680202
4.51 0.670165
4.52 0.64574
4.53 0.608227
4.54 0.557975
4.55 0.495654
4.56 0.423952
4.57 0.343542
4.58 0.257913
4.59 0.168989
4.6 0.0795163
4.61 -0.00829756
4.62 -0.0917671
4.63 -0.169711
4.64 -0.239871
4.65 -0.301869
4.66 -0.355097
4.67 -0.399139
4.68 -0.435348
4.69 -0.463342
4.7 -0.485402
4.71 -0.502304
4.72 -0.51569
4.73 -0.52702
4.74 -0.537542
4.75 -0.548414
4.76 -0.560577
4.77 -0.574501
4.78 -0.590443
4.79 -0.608434
4.8 -0.627968
4.81 -0.648687
4.82 -0.669733
4.83 -0.690378
4.84 -0.709793
4.85 -0.727395
4.86 -0.742309
4.87 -0.754509
4.88 -0.763429
4.89 -0.769353
4.9 -0.772439
4.91 -0.772999
4.92 -0.771786
4.93 -0.76922
4.94 -0.766157
4.95 -0.763193
4.96 -0.760961
4.97 -0.759862
4.98 -0.760431
4.99 -0.762635
5 -0.766742
5.01 -0.772511
5.02 -0.779788
5.03 -0.788346
5.04 -0.797771
5.05 -0.807858
5.06 -0.818234
5.07 -0.828701
5.08 -0.839074
5.09 -0.849259
5.1 -0.859156
5.11 -0.86875
5.12 -0.877907
5.13 -0.886491
5.14 -0.894212
5.15 -0.900506
5.16 -0.90491
5.17 -0.90606
5.18 -0.903256
5.19 -0.894801
5.2 -0.879117
5.21 -0.855055
5.22 -0.819687
5.23 -0.773
5.24 -0.712035
5.25 -0.636833
5.26 -0.546586
5.27 -0.440488
5.28 -0.320714
5.29 -0.1864
5.3 -0.0415468
5.31 0.112137
5.32 0.270905
5.33 0.430995
5.34 0.587701
5.35 0.737216
5.36 0.873839
5.37 0.994056
5.38 1.09386
5.39 1.16841
5.4 1.21794
5.41 1.23618
5.42 1.22665
5.43 1.18716
5.44 1.11958
5.45 1.02739
5.46 0.911161
5.47 0.777765
5.48 0.629558
5.49 0.472683
5.5 0.311595
5.51 0.151426
5.52 -0.00388297
5.53 -0.14901
5.54 -0.282078
5.55 -0.399594
5.56 -0.500006
5.57 -0.58344
5.58 -0.647842
5.59 -0.696465
5.6 -0.728681
5.61 -0.747738
5.62 -0.755492
5.63 -0.75397
5.64 -0.74622
5.65 -0.73359
5.66 -0.718527
5.67 -0.702149
5.68 -0.685444
5.69 -0.668794
5.7 -0.652127
5.71 -0.634988
5.72 -0.616473
5.73 -0.595647
5.74 -0.571467
5.75 -0.542638
5.76 -0.508908
5.77 -0.468874
5.78 -0.423285
5.79 -0.371989
5.8 -0.315943
5.81 -0.256523
5.82 -0.195203
5.83 -0.134103
5.84 -0.0755238
5.85 -0.0216142
5.86 0.0255031
5.87 0.0632544
5.88 0.0911112
5.89 0.105998
5.9 0.108952
5.91 0.0987763
5.92 0.0760754
5.93 0.0423214
5.94 -0.00226452
5.95 -0.05456
5.96 -0.113446
5.97 -0.176133
5.98 -0.240614
5.99 -0.304668
6 -0.366678
6.01 -0.424603
6.02 -0.477917
6.03 -0.52561
6.04 -0.567565
6.05 -0.604294
6.06 -0.635846
6.07 -0.663759
6.08 -0.688679
6.09 -0.712037
6.1 -0.734853
6.11 -0.758182
6.12 -0.782636
6.13 -0.808904
6.14 -0.83684
6.15 -0.866351
6.16 -0.896815
6.17 -0.927444
6.18 -0.957118
6.19 -0.984933
6.2 -1.00953
6.21 -1.03018
6.22 -1.04615
6.23 -1.05674
6.24 -1.06245
6.25 -1.06282
6.26 -1.05925
6.27 -1.05237
6.28 -1.0435
6.29 -1.03394
6.3 -1.02503
6.31 -1.01767
6.32 -1.01279
6.33 -1.01035
6.34 -1.00997
6.35 -1.01041
6.36 -1.0098
6.37 -1.00485
6.38 -0.992643
6.39 -0.968578
6.4 -0.927895
6.41 -0.86715
6.42 -0.778421
6.43 -0.661242
6.44 -0.507894
6.45 -0.318082
6.46 -0.0896748
6.47 0.179831
6.48 0.485055
6.49 0.828795
6.5 1.20136
6.51 1.59921
6.52 2.01378
6.53 2.43616
6.54 2.85609
6.55 3.26398
6.56 3.64713
6.57 3.9965
6.58 4.30243
6.59 4.55275
6.6 4.74662
6.61 4.86819
6.62 4.92345
6.63 4.90536
6.64 4.81551
6.65 4.66026
6.66 4.43691
6.67 4.1609
6.68 3.83395
6.69 3.46975
6.7 3.07749
6.71 2.66757
6.72 2.25154
6.73 1.83995
6.74 1.44166
6.75 1.06587
6.76 0.719874
6.77 0.406988
6.78 0.135741
6.79 -0.0974351
6.8 -0.287034
6.81 -0.437343
6.82 -0.550011
6.83 -0.626673
6.84 -0.674862
6.85 -0.695036
6.86 -0.695777
6.87 -0.680147
6.88 -0.653268
6.89 -0.619471
6.9 -0.581895
6.91 -0.543727
6.92 -0.507083
6.93 -0.473321
6.94 -0.443199
6.95 -0.41719
6.96 -0.394702
6.97 -0.375816
6.98 -0.359471
6.99 -0.345311
7 -0.332807
7.01 -0.321632
7.02 -0.311959
7.03 -0.303868
7.04 -0.298161
7.05 -0.295503
7.06 -0.296835
7.07 -0.303537
7.08 -0.315948
7.09 -0.335995
7.1 -0.363281
7.11 -0.398683
7.12 -0.442003
7.13 -0.492332
7.14 -0.549471
7.15 -0.611208
7.16 -0.676361
7.17 -0.742624
7.18 -0.808027
7.19 -0.870129
7.2 -0.927437
7.21 -0.977115
7.22 -1.01872
7.23 -1.05061
7.24 -1.07233
7.25 -1.08446
7.26 -1.0864
7.27 -1.08054
7.28 -1.06739
7.29 -1.04936
7.3 -1.02827
7.31 -1.0062
7.32 -0.985008
7.33 -0.966741
7.34 -0.952301
7.35 -0.942774
7.36 -0.938354
7.37 -0.938411
7.38 -0.942366
7.39 -0.948167
7.4 -0.953858
7.41 -0.956817
7.42 -0.95442
7.43 -0.943152
7.44 -0.921424
7.45 -0.88463
7.46 -0.832632
7.47 -0.762691
7.48 -0.674043
7.49 -0.567641
7.5 -0.442021
7.51 -0.301252
7.52 -0.145803
7.53 0.0200613
7.54 0.193033
7.55 0.368939
7.56 0.543503
7.57 0.711461
7.58 0.869296
7.59 1.01219
7.6 1.1363
7.61 1.23985
7.62 1.31739
7.63 1.37086
7.64 1.39625
7.65 1.39558
7.66 1.36932
7.67 1.31767
7.68 1.24529
7.69 1.15178
7.7 1.04304
7.71 0.921164
7.72 0.790135
7.73 0.653741
7.74 0.515322
7.75 0.378332
7.76 0.246145
7.77 0.121277
7.78 0.00599664
7.79 -0.0969656
7.8 -0.187557
7.81 -0.262511
7.82 -0.323217
7.83 -0.368296
7.84 -0.39802
7.85 -0.413697
7.86 -0.414416
7.87 -0.403243
7.88 -0.380056
7.89 -0.34739
7.9 -0.306843
7.91 -0.260149
7.92 -0.209859
7.93 -0.157816
7.94 -0.106444
7.95 -0.0578982
7.96 -0.0144072
7.97 0.0225753
7.98 0.05024
7.99 0.0684858
8 0.0749647
8.01 0.0697774
8.02 0.0525574
8.03 0.0227623
8.04 -0.0177224
8.05 -0.0695241
8.06 -0.12977
8.07 -0.197461
8.08 -0.270411
8.09 -0.346411
8.1 -0.423392
8.11 -0.499227
8.12 -0.57177
8.13 -0.639515
8.14 -0.701192
8.15 -0.755414
8.16 -0.802555
8.17 -0.841422
8.18 -0.873501
8.19 -0.89902
8.2 -0.919195
8.21 -0.935476
8.22 -0.948869
8.23 -0.96096
8.24 -0.972666
8.25 -0.98476
8.26 -0.997494
8.27 -1.01061
8.28 -1.02329
8.29 -1.03382
8.3 -1.04041
8.31 -1.04024
8.32 -1.03011
8.33 -1.00763
8.34 -0.967317
8.35 -0.908445
8.36 -0.825537
8.37 -0.717689
8.38 -0.58306
8.39 -0.419024
8.4 -0.22885
8.41 -0.0096026
8.42 0.232567
8.43 0.496014
8.44 0.775591
8.45 1.06533
8.46 1.3593
8.47 1.65032
8.48 1.93054
8.49 2.19309
8.5 2.43127
8.51 2.6363
8.52 2.80655
8.53 2.931
8.54 3.01206
8.55 3.04428
8.56 3.0272
8.57 2.96439
8.58 2.85224
8.59 2.70081
8.6 2.50987
8.61 2.28811
8.62 2.0413
8.63 1.77564
8.64 1.49963
8.65 1.21951
8.66 0.942585
8.67 0.675105
8.68 0.422954
8.69 0.189349
8.7 -0.0191817
8.71 -0.203722
8.72 -0.359829
8.73 -0.489202
8.74 -0.59237
8.75 -0.669533
8.76 -0.725653
8.77 -0.760562
8.78 -0.78031
8.79 -0.787154
8.8 -0.785028
8.81 -0.77756
8.82 -0.767633
8.83 -0.758195
8.84 -0.751629
8.85 -0.749521
8.86 -0.75296
8.87 -0.76294
8.88 -0.778805
8.89 -0.801058
8.9 -0.828077
8.91 -0.859163
8.92 -0.892892
8.93 -0.927854
8.94 -0.962634
8.95 -0.996027
8.96 -1.0267
8.97 -1.05391
8.98 -1.07706
8.99 -1.09549
9 -1.10968
9.01 -1.11914
9.02 -1.12493
9.03 -1.12735
9.04 -1.12719
9.05 -1.12532
9.06 -1.12235
9.07 -1.11906
9.08 -1.11592
9.09 -1.11325
9.1 -1.11112
9.11 -1.10936
9.12 -1.10752
9.13 -1.10486
9.14 -1.10057
9.15 -1.09355
9.16 -1.08256
9.17 -1.06683
9.18 -1.04446
9.19 -1.01547
9.2 -0.978257
9.21 -0.932938
9.22 -0.879393
9.23 -0.817439
9.24 -0.748632
9.25 -0.673095
9.26 -0.593181
9.27 -0.510328
9.28 -0.426812
9.29 -0.344715
9.3 -0.266907
9.31 -0.194999
9.32 -0.131963
9.33 -0.0791889
9.34 -0.0381563
9.35 -0.0108444
9.36 0.00370101
9.37 0.0033426
9.38 -0.00951821
9.39 -0.0347935
9.4 -0.070759
9.41 -0.114987
9.42 -0.165985
9.43 -0.220442
9.44 -0.276147
9.45 -0.330374
9.46 -0.380936
9.47 -0.425314
9.48 -0.462696
9.49 -0.490653
9.5 -0.509762
9.51 -0.519316
9.52 -0.519875
9.53 -0.512882
9.54 -0.498925
9.55 -0.480628
9.56 -0.459466
9.57 -0.437783
9.58 -0.417461
9.59 -0.400675
9.6 -0.38849
9.61 -0.383038
9.62 -0.38429
9.63 -0.393086
9.64 -0.409302
9.65 -0.432011
9.66 -0.461086
9.67 -0.49453
9.68 -0.531491
9.69 -0.57022
9.7 -0.609407
9.71 -0.647645
9.72 -0.684067
9.73 -0.717506
9.74 -0.747873
9.75 -0.77481
9.76 -0.798483
9.77 -0.819431
9.78 -0.837859
9.79 -0.854616
9.8 -0.869924
9.81 -0.884065
9.82 -0.89687
9.83 -0.907522
9.84 -0.915167
9.85 -0.917314
9.86 -0.912235
9.87 -0.896542
9.88 -0.866549
9.89 -0.819791
9.9 -0.749514
9.91 -0.65531
9.92 -0.53056
9.93 -0.374176
9.94 -0.184067
9.95 0.0432808
9.96 0.303756
9.97 0.601224
9.98 0.928287
9.99 1.28305
10 1.65945
10.01 2.05003
10.02 2.44783
10.03 2.84366
10.04 3.22797
10.05 3.59188
10.06 3.92701
10.07 4.22206
10.08 4.47464
10.09 4.6709
10.1 4.81309
10.11 4.89432
10.12 4.91327
10.13 4.87438
10.14 4.77229
10.15 4.61954
10.16 4.41543
10.17 4.17036
10.18 3.89143
10.19 3.5857
10.2 3.26396
10.21 2.93308
10.22 2.60235
10.23 2.27893
10.24 1.96986
10.25 1.67905
10.26 1.41376
10.27 1.17312
10.28 0.961726
10.29 0.777912
10.3 0.620873
10.31 0.490306
10.32 0.380889
10.33 0.292487
10.34 0.218956
10.35 0.157851
10.36 0.105298
10.37 0.0577739
10.38 0.012651
10.39 -0.0326983
10.4 -0.0801892
10.41 -0.13101
10.42 -0.185813
10.43 -0.245072
10.44 -0.308052
10.45 -0.374652
10.46 -0.443519
10.47 -0.513782
10.48 -0.584195
10.49 -0.653719
10.5 -0.721001
10.51 -0.785439
10.52 -0.845851
10.53 -0.901817
10.54 -0.952878
10.55 -0.998303
10.56 -1.0385
10.57 -1.07244
10.58 -1.10078
10.59 -1.12306
10.6 -1.13919
10.61 -1.1495
10.62 -1.15309
10.63 -1.15081
10.64 -1.1419
10.65 -1.1268
10.66 -1.10559
10.67 -1.07813
10.68 -1.04542
10.69 -1.00724
10.7 -0.964957
10.71 -0.919161
10.72 -0.870996
10.73 -0.821692
10.74 -0.772579
10.75 -0.724928
10.76 -0.680308
10.77 -0.639892
10.78 -0.604776
10.79 -0.576459
10.8 -0.554913
10.81 -0.541831
10.82 -0.536444
10.83 -0.539268
10.84 -0.549989
10.85 -0.567591
10.86 -0.592158
10.87 -0.621808
10.88 -0.656065
10.89 -0.693423
10.9 -0.732791
10.91 -0.773034
10.92 -0.813093
10.93 -0.851905
10.94 -0.888842
10.95 -0.923189
10.96 -0.954472
10.97 -0.982657
10.98 -1.00719
10.99 -1.02861
11 -1.04669
11.01 -1.0619
11.02 -1.07452
11.03 -1.08476
11.04 -1.09322
11.05 -1.10002
11.06 -1.10572
11.07 -1.11056
11.08 -1.11488
11.09 -1.11897
11.1 -1.12307
11.11 -1.12738
11.12 -1.13207
11.13 -1.13721
11.14 -1.1428
11.15 -1.14873
11.16 -1.15474
11.17 -1.16037
11.18 -1.16503
11.19 -1.16786
11.2 -1.16766
11.21 -1.16347
11.22 -1.15294
11.23 -1.13526
11.24 -1.10759
11.25 -1.06844
11.26 -1.01594
11.27 -0.946993
11.28 -0.861835
11.29 -0.756279
11.3 -0.631782
11.31 -0.486597
11.32 -0.320851
11.33 -0.136694
11.34 0.0666441
11.35 0.284188
11.36 0.514456
11.37 0.752597
11.38 0.994434
11.39 1.23466
11.4 1.46862
11.41 1.6893
11.42 1.8929
11.43 2.07336
11.44 2.22559
11.45 2.34794
11.46 2.43258
11.47 2.48271
11.48 2.49302
11.49 2.46603
11.5 2.40296
11.51 2.30384
11.52 2.17571
11.53 2.01853
11.54 1.84065
11.55 1.64577
11.56 1.43986
11.57 1.22867
11.58 1.01758
11.59 0.811306
11.6 0.614853
11.61 0.431406
11.62 0.263473
11.63 0.114223
11.64 -0.0175983
11.65 -0.129187
11.66 -0.223781
11.67 -0.30169
11.68 -0.365102
11.69 -0.417214
11.7 -0.459476
11.71 -0.495883
11.72 -0.52838
11.73 -0.559665
11.74 -0.591549
11.75 -0.625708
11.76 -0.662707
11.77 -0.703341
11.78 -0.74689
11.79 -0.792752
11.8 -0.839516
11.81 -0.885604
11.82 -0.928654
11.83 -0.967034
11.84 -0.997941
11.85 -1.0196
11.86 -1.03026
11.87 -1.02726
11.88 -1.01097
11.89 -0.978286
11.9 -0.930753
11.91 -0.867434
11.92 -0.788821
11.93 -0.696825
11.94 -0.591065
11.95 -0.475119
11.96 -0.349795
11.97 -0.218021
11.98 -0.0820613
11.99 0.0555641
12 0.192344
12.01 0.325367
12.02 0.452646
12.03 0.57162
12.04 0.679991
12.05 0.776838
12.06 0.85869
12.07 0.926439
12.08 0.977411
12.09 1.012
12.1 1.03006
12.11 1.03057
12.12 1.01597
12.13 0.984811
12.14 0.940254
12.15 0.882844
12.16 0.814399
12.17 0.737412
12.18 0.652997
12.19 0.564237
12.2 0.472761
12.21 0.380884
12.22 0.290367
12.23 0.203204
12.24 0.120308
12.25 0.0435634
12.26 -0.027015
12.27 -0.0906733
12.28 -0.147367
12.29 -0.197883
12.3 -0.242047
12.31 -0.281604
12.32 -0.317072
12.33 -0.349911
12.34 -0.381215
12.35 -0.412095
12.36 -0.443447
12.37 -0.476108
12.38 -0.510314
12.39 -0.546205
12.4 -0.583442
12.41 -0.621319
