# xPDFsuite Configuration #
[PDF]
wavelength = 0.1432
dataformat = twotheta
inputfile = 1_1Pd_CeO2_cycle-00201.chi
backgroundfile = background-00000.chi
mode = xray
bgscale = 1.007
composition = CeO2
outputtype = gr
qmaxinst = 28.8974762299
qmin = 0.5
qmax = 27.9
rmax = 50.0
rmin = 0.0
rstep = 0.01
rpoly = 1.8657

[Misc]
inputdir = G:/SankarDec16/1Pd/Chi
savedir = D:/DATA/APS_CeO2/1Pd
backgroundfilefull = G:/SankarDec16/Background/background-00000.chi

#### start data
#S 1
#L r($\AA$)  G($\AA^{-2}$)
0 0
0.01 -0.00731834
0.02 -0.0140876
0.03 -0.0197422
0.04 -0.0238557
0.05 -0.0261905
0.06 -0.0263638
0.07 -0.024628
0.08 -0.0208579
0.09 -0.0155362
0.1 -0.00899589
0.11 -0.00174782
0.12 0.00564803
0.13 0.012566
0.14 0.018558
0.15 0.0230781
0.16 0.0258034
0.17 0.026602
0.18 0.0252084
0.19 0.021991
0.2 0.0169573
0.21 0.010669
0.22 0.00353916
0.23 -0.0038591
0.24 -0.0109965
0.25 -0.0171988
0.26 -0.0221384
0.27 -0.0253141
0.28 -0.0265205
0.29 -0.0257379
0.3 -0.02283
0.31 -0.0182651
0.32 -0.0121835
0.33 -0.00520088
0.34 0.00220768
0.35 0.00943201
0.36 0.0159973
0.37 0.0212107
0.38 0.0248801
0.39 0.0265714
0.4 0.0262061
0.41 0.0238783
0.42 0.0195871
0.43 0.0138806
0.44 0.00702567
0.45 -0.000334734
0.46 -0.00768503
0.47 -0.0144046
0.48 -0.0200948
0.49 -0.0240751
0.5 -0.0262979
0.51 -0.0264158
0.52 -0.0244817
0.53 -0.0206995
0.54 -0.0152048
0.55 -0.00860109
0.56 -0.00127065
0.57 0.00614468
0.58 0.0131119
0.59 0.0190273
0.6 0.0235869
0.61 0.0261529
0.62 0.0268251
0.63 0.0253592
0.64 0.0219376
0.65 0.0168657
0.66 0.0104107
0.67 0.00320455
0.68 -0.00427145
0.69 -0.0114049
0.7 -0.0176691
0.71 -0.0225042
0.72 -0.0257149
0.73 -0.0267348
0.74 -0.025807
0.75 -0.0228016
0.76 -0.0180226
0.77 -0.0118632
0.78 -0.00471011
0.79 0.00280435
0.8 0.0101227
0.81 0.0166894
0.82 0.0220092
0.83 0.0255917
0.84 0.0273595
0.85 0.0268445
0.86 0.0244213
0.87 0.0200799
0.88 0.0142311
0.89 0.00733551
0.9 -0.00012181
0.91 -0.00754108
0.92 -0.0143213
0.93 -0.0199953
0.94 -0.0241305
0.95 -0.0263397
0.96 -0.0266724
0.97 -0.0248005
0.98 -0.0212135
0.99 -0.0160383
1 -0.00978012
1.01 -0.00294834
1.02 0.00388165
1.03 0.0101839
1.04 0.0153335
1.05 0.0189916
1.06 0.0208204
1.07 0.0205742
1.08 0.0184563
1.09 0.0143281
1.1 0.00880827
1.11 0.00220332
1.12 -0.00486038
1.13 -0.0118066
1.14 -0.0179142
1.15 -0.0227394
1.16 -0.0255661
1.17 -0.0261846
1.18 -0.0243158
1.19 -0.0198131
1.2 -0.0130536
1.21 -0.00399958
1.22 0.00653927
1.23 0.0181186
1.24 0.029962
1.25 0.0413831
1.26 0.0515002
1.27 0.0598402
1.28 0.065537
1.29 0.0683755
1.3 0.0680132
1.31 0.0642344
1.32 0.0574657
1.33 0.0475084
1.34 0.0352779
1.35 0.0211127
1.36 0.0057881
1.37 -0.00999498
1.38 -0.025464
1.39 -0.0400197
1.4 -0.0528956
1.41 -0.0637402
1.42 -0.0721615
1.43 -0.0778415
1.44 -0.0809997
1.45 -0.0812886
1.46 -0.0793363
1.47 -0.0752118
1.48 -0.0693676
1.49 -0.0622311
1.5 -0.0541119
1.51 -0.0454782
1.52 -0.03659
1.53 -0.0277224
1.54 -0.019035
1.55 -0.01064
1.56 -0.00253628
1.57 0.00524577
1.58 0.0127987
1.59 0.020148
1.6 0.0273304
1.61 0.0343422
1.62 0.0410869
1.63 0.0474711
1.64 0.0532274
1.65 0.0581377
1.66 0.0618832
1.67 0.0640479
1.68 0.0644923
1.69 0.0625735
1.7 0.0584134
1.71 0.051655
1.72 0.0423523
1.73 0.0307105
1.74 0.0167675
1.75 0.00118704
1.76 -0.0157119
1.77 -0.0331803
1.78 -0.0506004
1.79 -0.0672039
1.8 -0.0824759
1.81 -0.0954973
1.82 -0.106123
1.83 -0.113788
1.84 -0.118399
1.85 -0.1201
1.86 -0.118822
1.87 -0.115314
1.88 -0.109849
1.89 -0.103283
1.9 -0.0962727
1.91 -0.089625
1.92 -0.0839318
1.93 -0.0800593
1.94 -0.0781978
1.95 -0.0788237
1.96 -0.0819521
1.97 -0.0873552
1.98 -0.0948758
1.99 -0.10372
2 -0.113307
2.01 -0.122698
2.02 -0.131029
2.03 -0.137232
2.04 -0.140738
2.05 -0.140184
2.06 -0.135547
2.07 -0.125993
2.08 -0.1114
2.09 -0.0919513
2.1 -0.0673238
2.11 -0.0385323
2.12 -0.00555843
2.13 0.0305692
2.14 0.0692748
2.15 0.109868
2.16 0.151549
2.17 0.193805
2.18 0.236049
2.19 0.277896
2.2 0.319063
2.21 0.359424
2.22 0.398797
2.23 0.437276
2.24 0.474708
2.25 0.511118
2.26 0.546337
2.27 0.580022
2.28 0.611959
2.29 0.641185
2.3 0.66737
2.31 0.68936
2.32 0.706221
2.33 0.717235
2.34 0.720616
2.35 0.716487
2.36 0.703025
2.37 0.680527
2.38 0.648565
2.39 0.60692
2.4 0.557031
2.41 0.49851
2.42 0.433884
2.43 0.364137
2.44 0.291407
2.45 0.217674
2.46 0.145227
2.47 0.0758417
2.48 0.0119655
2.49 -0.0451786
2.5 -0.0941982
2.51 -0.133801
2.52 -0.164581
2.53 -0.185128
2.54 -0.197526
2.55 -0.202007
2.56 -0.200294
2.57 -0.194189
2.58 -0.18532
2.59 -0.175837
2.6 -0.167583
2.61 -0.162129
2.62 -0.16079
2.63 -0.164775
2.64 -0.173998
2.65 -0.189413
2.66 -0.209707
2.67 -0.234541
2.68 -0.262556
2.69 -0.292342
2.7 -0.32236
2.71 -0.351134
2.72 -0.37699
2.73 -0.398938
2.74 -0.41605
2.75 -0.427564
2.76 -0.433965
2.77 -0.434756
2.78 -0.431483
2.79 -0.42481
2.8 -0.416248
2.81 -0.407213
2.82 -0.399353
2.83 -0.39383
2.84 -0.392215
2.85 -0.395069
2.86 -0.402958
2.87 -0.416149
2.88 -0.43376
2.89 -0.455622
2.9 -0.479952
2.91 -0.505554
2.92 -0.530651
2.93 -0.553748
2.94 -0.572832
2.95 -0.587151
2.96 -0.594985
2.97 -0.596288
2.98 -0.590806
2.99 -0.578702
3 -0.561444
3.01 -0.539663
3.02 -0.515672
3.03 -0.491128
3.04 -0.468188
3.05 -0.448542
3.06 -0.434521
3.07 -0.426693
3.08 -0.426867
3.09 -0.434746
3.1 -0.450321
3.11 -0.473063
3.12 -0.501087
3.13 -0.533328
3.14 -0.567156
3.15 -0.600576
3.16 -0.631255
3.17 -0.657498
3.18 -0.676935
3.19 -0.689371
3.2 -0.693277
3.21 -0.689505
3.22 -0.678621
3.23 -0.661898
3.24 -0.641682
3.25 -0.62008
3.26 -0.599865
3.27 -0.583747
3.28 -0.574273
3.29 -0.57305
3.3 -0.582749
3.31 -0.602718
3.32 -0.634357
3.33 -0.675798
3.34 -0.725695
3.35 -0.781752
3.36 -0.840671
3.37 -0.899089
3.38 -0.953587
3.39 -1.00046
3.4 -1.03661
3.41 -1.0603
3.42 -1.06831
3.43 -1.06212
3.44 -1.04033
3.45 -1.00591
3.46 -0.96105
3.47 -0.909178
3.48 -0.854704
3.49 -0.80229
3.5 -0.756063
3.51 -0.720601
3.52 -0.699258
3.53 -0.693465
3.54 -0.705998
3.55 -0.733762
3.56 -0.776196
3.57 -0.827636
3.58 -0.882703
3.59 -0.933357
3.6 -0.972427
3.61 -0.987391
3.62 -0.972337
3.63 -0.915557
3.64 -0.809144
3.65 -0.649173
3.66 -0.423998
3.67 -0.139844
3.68 0.210978
3.69 0.619529
3.7 1.08128
3.71 1.58862
3.72 2.12657
3.73 2.68472
3.74 3.24497
3.75 3.79151
3.76 4.30669
3.77 4.77713
3.78 5.18045
3.79 5.51287
3.8 5.75338
3.81 5.90147
3.82 5.95082
3.83 5.89569
3.84 5.74886
3.85 5.50109
3.86 5.17547
3.87 4.776
3.88 4.31888
3.89 3.82042
3.9 3.29387
3.91 2.75792
3.92 2.22741
3.93 1.71654
3.94 1.23731
3.95 0.802478
3.96 0.414421
3.97 0.0869039
3.98 -0.186334
3.99 -0.400525
4 -0.559658
4.01 -0.670402
4.02 -0.734121
4.03 -0.763823
4.04 -0.763238
4.05 -0.743262
4.06 -0.710824
4.07 -0.67328
4.08 -0.636674
4.09 -0.606764
4.1 -0.586095
4.11 -0.57756
4.12 -0.581706
4.13 -0.597488
4.14 -0.624471
4.15 -0.658906
4.16 -0.698649
4.17 -0.739833
4.18 -0.779339
4.19 -0.813573
4.2 -0.840577
4.21 -0.856559
4.22 -0.861486
4.23 -0.853447
4.24 -0.832424
4.25 -0.799345
4.26 -0.753794
4.27 -0.698621
4.28 -0.634176
4.29 -0.563002
4.3 -0.486596
4.31 -0.406551
4.32 -0.324579
4.33 -0.241789
4.34 -0.159304
4.35 -0.0779047
4.36 0.00181654
4.37 0.0795657
4.38 0.154749
4.39 0.227426
4.4 0.296913
4.41 0.363023
4.42 0.425162
4.43 0.482339
4.44 0.534284
4.45 0.578965
4.46 0.616327
4.47 0.644631
4.48 0.66293
4.49 0.670878
4.5 0.666468
4.51 0.650946
4.52 0.62276
4.53 0.58328
4.54 0.532962
4.55 0.472507
4.56 0.404245
4.57 0.328791
4.58 0.249052
4.59 0.16661
4.6 0.0837071
4.61 0.00212739
4.62 -0.0759662
4.63 -0.149621
4.64 -0.217017
4.65 -0.27783
4.66 -0.331545
4.67 -0.377769
4.68 -0.41754
4.69 -0.450428
4.7 -0.478202
4.71 -0.501343
4.72 -0.521047
4.73 -0.538404
4.74 -0.554202
4.75 -0.569392
4.76 -0.584525
4.77 -0.600011
4.78 -0.61602
4.79 -0.632544
4.8 -0.649344
4.81 -0.666079
4.82 -0.682336
4.83 -0.697624
4.84 -0.711493
4.85 -0.723682
4.86 -0.733698
4.87 -0.741714
4.88 -0.747487
4.89 -0.751375
4.9 -0.75362
4.91 -0.754584
4.92 -0.754808
4.93 -0.754715
4.94 -0.754805
4.95 -0.755489
4.96 -0.757096
4.97 -0.759771
4.98 -0.763747
4.99 -0.768828
5 -0.775032
5.01 -0.782061
5.02 -0.789699
5.03 -0.797693
5.04 -0.805801
5.05 -0.813841
5.06 -0.821724
5.07 -0.829419
5.08 -0.836994
5.09 -0.844561
5.1 -0.852283
5.11 -0.860253
5.12 -0.868553
5.13 -0.877065
5.14 -0.885537
5.15 -0.893402
5.16 -0.900025
5.17 -0.903991
5.18 -0.90433
5.19 -0.899169
5.2 -0.886682
5.21 -0.86552
5.22 -0.832484
5.23 -0.787467
5.24 -0.727282
5.25 -0.651957
5.26 -0.560642
5.27 -0.452525
5.28 -0.32996
5.29 -0.192118
5.3 -0.0432905
5.31 0.114639
5.32 0.277656
5.33 0.441777
5.34 0.601997
5.35 0.754377
5.36 0.892945
5.37 1.01413
5.38 1.11383
5.39 1.18715
5.4 1.23447
5.41 1.24947
5.42 1.23599
5.43 1.19196
5.44 1.11952
5.45 1.02238
5.46 0.901412
5.47 0.763688
5.48 0.611857
5.49 0.452202
5.5 0.289325
5.51 0.128507
5.52 -0.0264039
5.53 -0.169942
5.54 -0.300482
5.55 -0.414589
5.56 -0.510922
5.57 -0.589839
5.58 -0.649508
5.59 -0.693441
5.6 -0.721267
5.61 -0.73644
5.62 -0.740995
5.63 -0.737158
5.64 -0.727969
5.65 -0.714969
5.66 -0.700443
5.67 -0.68552
5.68 -0.671045
5.69 -0.65722
5.7 -0.643832
5.71 -0.63017
5.72 -0.61514
5.73 -0.597596
5.74 -0.576325
5.75 -0.549847
5.76 -0.517873
5.77 -0.478829
5.78 -0.433559
5.79 -0.381892
5.8 -0.324884
5.81 -0.264055
5.82 -0.200994
5.83 -0.138024
5.84 -0.077615
5.85 -0.022082
5.86 0.026312
5.87 0.0648489
5.88 0.0929857
5.89 0.107532
5.9 0.109635
5.91 0.0981242
5.92 0.0737396
5.93 0.0381112
5.94 -0.00835695
5.95 -0.0623579
5.96 -0.122549
5.97 -0.185986
5.98 -0.250522
5.99 -0.313783
6 -0.374199
6.01 -0.429608
6.02 -0.479687
6.03 -0.523501
6.04 -0.561152
6.05 -0.593395
6.06 -0.620567
6.07 -0.644467
6.08 -0.666091
6.09 -0.687088
6.1 -0.708704
6.11 -0.732236
6.12 -0.758235
6.13 -0.787629
6.14 -0.819979
6.15 -0.855141
6.16 -0.89221
6.17 -0.930061
6.18 -0.967227
6.19 -1.00239
6.2 -1.03373
6.21 -1.06015
6.22 -1.08056
6.23 -1.09386
6.24 -1.10054
6.25 -1.0997
6.26 -1.09302
6.27 -1.08108
6.28 -1.06547
6.29 -1.04784
6.3 -1.02983
6.31 -1.01292
6.32 -0.998496
6.33 -0.98707
6.34 -0.978709
6.35 -0.972734
6.36 -0.967449
6.37 -0.960151
6.38 -0.947779
6.39 -0.925934
6.4 -0.889719
6.41 -0.835372
6.42 -0.754825
6.43 -0.646968
6.44 -0.503704
6.45 -0.324118
6.46 -0.105559
6.47 0.155092
6.48 0.452784
6.49 0.79099
6.5 1.16005
6.51 1.55675
6.52 1.97256
6.53 2.39836
6.54 2.82391
6.55 3.23903
6.56 3.63078
6.57 3.9895
6.58 4.30506
6.59 4.56466
6.6 4.76706
6.61 4.89573
6.62 4.95649
6.63 4.94186
6.64 4.85327
6.65 4.69717
6.66 4.47067
6.67 4.1897
6.68 3.85606
6.69 3.48398
6.7 3.08306
6.71 2.66419
6.72 2.23939
6.73 1.8198
6.74 1.41459
6.75 1.03339
6.76 0.683757
6.77 0.369072
6.78 0.0981552
6.79 -0.132899
6.8 -0.318513
6.81 -0.46337
6.82 -0.569402
6.83 -0.638598
6.84 -0.678943
6.85 -0.6913
6.86 -0.684643
6.87 -0.66242
6.88 -0.630074
6.89 -0.592092
6.9 -0.551954
6.91 -0.512704
6.92 -0.476638
6.93 -0.444897
6.94 -0.418108
6.95 -0.396572
6.96 -0.379338
6.97 -0.366287
6.98 -0.355978
6.99 -0.347778
7 -0.340854
7.01 -0.334669
7.02 -0.329082
7.03 -0.324135
7.04 -0.320395
7.05 -0.318554
7.06 -0.319532
7.07 -0.324697
7.08 -0.33459
7.09 -0.351116
7.1 -0.374168
7.11 -0.404736
7.12 -0.442839
7.13 -0.487768
7.14 -0.539533
7.15 -0.596102
7.16 -0.656516
7.17 -0.718612
7.18 -0.780568
7.19 -0.840128
7.2 -0.895793
7.21 -0.94496
7.22 -0.987077
7.23 -1.02059
7.24 -1.045
7.25 -1.06078
7.26 -1.06733
7.27 -1.06677
7.28 -1.05954
7.29 -1.04779
7.3 -1.03313
7.31 -1.0174
7.32 -1.00223
7.33 -0.989351
7.34 -0.979513
7.35 -0.973542
7.36 -0.971463
7.37 -0.972601
7.38 -0.976137
7.39 -0.98022
7.4 -0.982783
7.41 -0.981442
7.42 -0.973735
7.43 -0.95636
7.44 -0.928073
7.45 -0.884552
7.46 -0.826016
7.47 -0.750063
7.48 -0.656259
7.49 -0.545759
7.5 -0.417482
7.51 -0.275446
7.52 -0.120373
7.53 0.0436093
7.54 0.213272
7.55 0.384566
7.56 0.553587
7.57 0.715274
7.58 0.866565
7.59 1.003
7.6 1.12113
7.61 1.21949
7.62 1.2931
7.63 1.34396
7.64 1.36842
7.65 1.36846
7.66 1.34455
7.67 1.29686
7.68 1.22971
7.69 1.14258
7.7 1.04089
7.71 0.926381
7.72 0.80262
7.73 0.673029
7.74 0.540461
7.75 0.408196
7.76 0.279199
7.77 0.155925
7.78 0.0405617
7.79 -0.064227
7.8 -0.158091
7.81 -0.23777
7.82 -0.304181
7.83 -0.355695
7.84 -0.392179
7.85 -0.414583
7.86 -0.421575
7.87 -0.415976
7.88 -0.397297
7.89 -0.367947
7.9 -0.329411
7.91 -0.28332
7.92 -0.232438
7.93 -0.17857
7.94 -0.124517
7.95 -0.0726216
7.96 -0.0254381
7.97 0.0152847
7.98 0.0464106
7.99 0.0676315
8 0.0763244
8.01 0.0724997
8.02 0.0557246
8.03 0.0254198
8.04 -0.0163431
8.05 -0.0701373
8.06 -0.132779
8.07 -0.20305
8.08 -0.278466
8.09 -0.356575
8.1 -0.434977
8.11 -0.511442
8.12 -0.583573
8.13 -0.649864
8.14 -0.709045
8.15 -0.759772
8.16 -0.802679
8.17 -0.836719
8.18 -0.863749
8.19 -0.884294
8.2 -0.899937
8.21 -0.912397
8.22 -0.923108
8.23 -0.933726
8.24 -0.945492
8.25 -0.959147
8.26 -0.974938
8.27 -0.992566
8.28 -1.01088
8.29 -1.02801
8.3 -1.0417
8.31 -1.0488
8.32 -1.04564
8.33 -1.02951
8.34 -0.994393
8.35 -0.93943
8.36 -0.85873
8.37 -0.751356
8.38 -0.615411
8.39 -0.448228
8.4 -0.253417
8.41 -0.0280847
8.42 0.221102
8.43 0.492195
8.44 0.779588
8.45 1.07691
8.46 1.37775
8.47 1.67468
8.48 1.9594
8.49 2.22492
8.5 2.46442
8.51 2.66899
8.52 2.83726
8.53 2.95817
8.54 3.03456
8.55 3.06121
8.56 3.03803
8.57 2.96898
8.58 2.85084
8.59 2.69392
8.6 2.49839
8.61 2.27306
8.62 2.02385
8.63 1.75708
8.64 1.48107
8.65 1.20211
8.66 0.927171
8.67 0.66233
8.68 0.41317
8.69 0.182628
8.7 -0.0230713
8.71 -0.205216
8.72 -0.359618
8.73 -0.48807
8.74 -0.591158
8.75 -0.669116
8.76 -0.726725
8.77 -0.763752
8.78 -0.785948
8.79 -0.795345
8.8 -0.795578
8.81 -0.79004
8.82 -0.78127
8.83 -0.772123
8.84 -0.764723
8.85 -0.760662
8.86 -0.761031
8.87 -0.766863
8.88 -0.777777
8.89 -0.794424
8.9 -0.815569
8.91 -0.840824
8.92 -0.869151
8.93 -0.899426
8.94 -0.93069
8.95 -0.961827
8.96 -0.991855
8.97 -1.02002
8.98 -1.04572
8.99 -1.0683
9 -1.08789
9.01 -1.10389
9.02 -1.11684
9.03 -1.12673
9.04 -1.1339
9.05 -1.13883
9.06 -1.14163
9.07 -1.14291
9.08 -1.14272
9.09 -1.14134
9.1 -1.13878
9.11 -1.13481
9.12 -1.12937
9.13 -1.12174
9.14 -1.11168
9.15 -1.09838
9.16 -1.08113
9.17 -1.05953
9.18 -1.03225
9.19 -0.999502
9.2 -0.960169
9.21 -0.914444
9.22 -0.862293
9.23 -0.803602
9.24 -0.739578
9.25 -0.670285
9.26 -0.597515
9.27 -0.52234
9.28 -0.446497
9.29 -0.371604
9.3 -0.299896
9.31 -0.232705
9.32 -0.172443
9.33 -0.120347
9.34 -0.0777501
9.35 -0.0464704
9.36 -0.0259268
9.37 -0.0182113
9.38 -0.0215642
9.39 -0.0362526
9.4 -0.0611542
9.41 -0.094405
9.42 -0.135209
9.43 -0.180695
9.44 -0.229327
9.45 -0.278686
9.46 -0.326872
9.47 -0.371703
9.48 -0.412069
9.49 -0.445804
9.5 -0.472851
9.51 -0.492272
9.52 -0.50407
9.53 -0.509081
9.54 -0.507284
9.55 -0.500685
9.56 -0.490085
9.57 -0.477353
9.58 -0.463954
9.59 -0.451575
9.6 -0.441386
9.61 -0.435079
9.62 -0.433079
9.63 -0.436274
9.64 -0.444925
9.65 -0.458623
9.66 -0.477621
9.67 -0.500584
9.68 -0.527164
9.69 -0.556142
9.7 -0.586629
9.71 -0.617698
9.72 -0.648559
9.73 -0.678478
9.74 -0.707148
9.75 -0.734269
9.76 -0.759811
9.77 -0.783974
9.78 -0.806776
9.79 -0.828563
9.8 -0.849258
9.81 -0.868748
9.82 -0.886569
9.83 -0.901596
9.84 -0.912879
9.85 -0.917695
9.86 -0.914425
9.87 -0.899686
9.88 -0.869943
9.89 -0.822948
9.9 -0.752143
9.91 -0.65739
9.92 -0.532306
9.93 -0.376
9.94 -0.186523
9.95 0.0395035
9.96 0.298031
9.97 0.592893
9.98 0.91691
9.99 1.26835
10 1.64143
10.01 2.02894
10.02 2.42428
10.03 2.81845
10.04 3.20224
10.05 3.56687
10.06 3.90407
10.07 4.20262
10.08 4.4599
10.09 4.66205
10.1 4.81089
10.11 4.89926
10.12 4.92542
10.13 4.8934
10.14 4.79733
10.15 4.64947
10.16 4.44863
10.17 4.20506
10.18 3.92568
10.19 3.6174
10.2 3.29127
10.21 2.95412
10.22 2.61577
10.23 2.28366
10.24 1.96537
10.25 1.66529
10.26 1.39127
10.27 1.14286
10.28 0.925241
10.29 0.73703
10.3 0.577669
10.31 0.447148
10.32 0.339891
10.33 0.255958
10.34 0.18866
10.35 0.135322
10.36 0.0915707
10.37 0.0533504
10.38 0.0174811
10.39 -0.0191709
10.4 -0.0590971
10.41 -0.103854
10.42 -0.154396
10.43 -0.211544
10.44 -0.27439
10.45 -0.343082
10.46 -0.415797
10.47 -0.491489
10.48 -0.568473
10.49 -0.645214
10.5 -0.719872
10.51 -0.791341
10.52 -0.857915
10.53 -0.918803
10.54 -0.973251
10.55 -1.0202
10.56 -1.06018
10.57 -1.09195
10.58 -1.11658
10.59 -1.13377
10.6 -1.14382
10.61 -1.14754
10.62 -1.14448
10.63 -1.13596
10.64 -1.12169
10.65 -1.10246
10.66 -1.07863
10.67 -1.05034
10.68 -1.01848
10.69 -0.982993
10.7 -0.944871
10.71 -0.904518
10.72 -0.86269
10.73 -0.820181
10.74 -0.777871
10.75 -0.736606
10.76 -0.697485
10.77 -0.66137
10.78 -0.629117
10.79 -0.601949
10.8 -0.579987
10.81 -0.564751
10.82 -0.555863
10.83 -0.554013
10.84 -0.559263
10.85 -0.571007
10.86 -0.589749
10.87 -0.613991
10.88 -0.643683
10.89 -0.677583
10.9 -0.714797
10.91 -0.754405
10.92 -0.795187
10.93 -0.836182
10.94 -0.876381
10.95 -0.914869
10.96 -0.950795
10.97 -0.98375
10.98 -1.01275
10.99 -1.03804
11 -1.05898
11.01 -1.07586
11.02 -1.08882
11.03 -1.09794
11.04 -1.10403
11.05 -1.10719
11.06 -1.10842
11.07 -1.10821
11.08 -1.10731
11.09 -1.1064
11.1 -1.1062
11.11 -1.10715
11.12 -1.10984
11.13 -1.11447
11.14 -1.12114
11.15 -1.12982
11.16 -1.13997
11.17 -1.15107
11.18 -1.16206
11.19 -1.17173
11.2 -1.17843
11.21 -1.18077
11.22 -1.17586
11.23 -1.16263
11.24 -1.13781
11.25 -1.09975
11.26 -1.04653
11.27 -0.974939
11.28 -0.885562
11.29 -0.774253
11.3 -0.643015
11.31 -0.49045
11.32 -0.317197
11.33 -0.125853
11.34 0.083778
11.35 0.306453
11.36 0.540213
11.37 0.780075
11.38 1.02177
11.39 1.25989
11.4 1.49014
11.41 1.70553
11.42 1.90283
11.43 2.07634
11.44 2.22147
11.45 2.33704
11.46 2.41578
11.47 2.46117
11.48 2.46836
11.49 2.44
11.5 2.37739
11.51 2.28066
11.52 2.15647
11.53 2.00473
11.54 1.83323
11.55 1.64531
11.56 1.4464
11.57 1.24181
11.58 1.03633
11.59 0.834417
11.6 0.640621
11.61 0.458009
11.62 0.289024
11.63 0.13676
11.64 0.000347737
11.65 -0.117327
11.66 -0.218924
11.67 -0.304363
11.68 -0.375285
11.69 -0.43443
11.7 -0.482629
11.71 -0.523633
11.72 -0.55889
11.73 -0.590989
11.74 -0.621674
11.75 -0.652536
11.76 -0.684547
11.77 -0.718571
11.78 -0.754493
11.79 -0.792106
11.8 -0.830568
11.81 -0.86878
11.82 -0.905018
11.83 -0.937926
11.84 -0.965221
11.85 -0.985267
11.86 -0.996401
11.87 -0.996097
11.88 -0.984309
11.89 -0.957922
11.9 -0.917862
11.91 -0.862819
11.92 -0.792723
11.93 -0.708986
11.94 -0.610597
11.95 -0.500814
11.96 -0.379908
11.97 -0.250621
11.98 -0.115085
11.99 0.0243537
12 0.164829
12.01 0.303466
12.02 0.437698
12.03 0.564638
12.04 0.681453
12.05 0.786726
12.06 0.876393
12.07 0.950974
12.08 1.00726
12.09 1.04539
12.1 1.06506
12.11 1.06498
12.12 1.04787
12.13 1.01215
12.14 0.961492
12.15 0.896682
12.16 0.819987
12.17 0.734371
12.18 0.641437
12.19 0.544689
12.2 0.446244
12.21 0.34872
12.22 0.254118
12.23 0.164733
12.24 0.0813306
12.25 0.00602412
12.26 -0.061537
12.27 -0.120705
12.28 -0.171737
12.29 -0.215797
12.3 -0.253007
12.31 -0.285524
12.32 -0.314207
12.33 -0.34082
12.34 -0.366691
12.35 -0.393203
12.36 -0.421244
12.37 -0.451874
12.38 -0.485159
12.39 -0.521236
12.4 -0.559631
12.41 -0.599417
