# xPDFsuite Configuration #
[PDF]
wavelength = 0.1432
dataformat = twotheta
inputfile = 1_1Pd_CeO2_cycle-00323.chi
backgroundfile = background-00000.chi
mode = xray
bgscale = 1.007
composition = CeO2
outputtype = gr
qmaxinst = 28.8974762299
qmin = 0.5
qmax = 27.9
rmax = 50.0
rmin = 0.0
rstep = 0.01
rpoly = 1.8657

[Misc]
inputdir = G:/SankarDec16/1Pd/Chi
savedir = D:/DATA/APS_CeO2/1Pd
backgroundfilefull = G:/SankarDec16/Background/background-00000.chi

#### start data
#S 1
#L r($\AA$)  G($\AA^{-2}$)
0 0
0.01 -0.00616598
0.02 -0.0118669
0.03 -0.0166238
0.04 -0.0200761
0.05 -0.0220235
0.06 -0.0221436
0.07 -0.0206517
0.08 -0.0174447
0.09 -0.0129333
0.1 -0.00740177
0.11 -0.001285
0.12 0.00494335
0.13 0.0107513
0.14 0.0157632
0.15 0.0195183
0.16 0.0217479
0.17 0.0223451
0.18 0.0210918
0.19 0.0183049
0.2 0.013999
0.21 0.00865291
0.22 0.00262111
0.23 -0.00360798
0.24 -0.00958911
0.25 -0.0147493
0.26 -0.0188204
0.27 -0.0213826
0.28 -0.0222718
0.29 -0.0214805
0.3 -0.0189053
0.31 -0.0149499
0.32 -0.00974551
0.33 -0.00381676
0.34 0.00242934
0.35 0.00847407
0.36 0.0139224
0.37 0.0181883
0.38 0.0211241
0.39 0.0223717
0.4 0.0218799
0.41 0.0197412
0.42 0.0159722
0.43 0.0110442
0.44 0.00519887
0.45 -0.00101859
0.46 -0.0071684
0.47 -0.0127265
0.48 -0.0173676
0.49 -0.0205212
0.5 -0.0221677
0.51 -0.0220285
0.52 -0.0201681
0.53 -0.016775
0.54 -0.0119856
0.55 -0.00631607
0.56 -0.000107205
0.57 0.00610155
0.58 0.0118592
0.59 0.0166616
0.6 0.0202696
0.61 0.0221561
0.62 0.0224313
0.63 0.0209098
0.64 0.0177694
0.65 0.0132857
0.66 0.00770923
0.67 0.00157577
0.68 -0.00469099
0.69 -0.0105834
0.7 -0.0156615
0.71 -0.0194651
0.72 -0.0218538
0.73 -0.0223692
0.74 -0.021246
0.75 -0.0184013
0.76 -0.0141173
0.77 -0.00874296
0.78 -0.00262979
0.79 0.0036935
0.8 0.00974286
0.81 0.0150678
0.82 0.0192627
0.83 0.0219357
0.84 0.0230519
0.85 0.0222471
0.86 0.0198675
0.87 0.0159371
0.88 0.0108273
0.89 0.00494007
0.9 -0.00129285
0.91 -0.00738141
0.92 -0.0128132
0.93 -0.017225
0.94 -0.0202759
0.95 -0.0216756
0.96 -0.0215037
0.97 -0.0195325
0.98 -0.0162049
0.99 -0.0116716
1 -0.0063842
1.01 -0.000782945
1.02 0.00462159
1.03 0.00941643
1.04 0.0130717
1.05 0.0153489
1.06 0.0159988
1.07 0.014866
1.08 0.0121741
1.09 0.00787503
1.1 0.00253172
1.11 -0.00353477
1.12 -0.0097567
1.13 -0.0156279
1.14 -0.0204918
1.15 -0.0240074
1.16 -0.0255433
1.17 -0.0249726
1.18 -0.0220859
1.19 -0.016802
1.2 -0.00950372
1.21 -0.000207575
1.22 0.010334
1.23 0.0216858
1.24 0.0331326
1.25 0.0440522
1.26 0.0536297
1.27 0.0614612
1.28 0.0667498
1.29 0.0693213
1.3 0.0688665
1.31 0.0651876
1.32 0.0586828
1.33 0.0491453
1.34 0.0374181
1.35 0.023786
1.36 0.00894781
1.37 -0.00645821
1.38 -0.0217438
1.39 -0.0363317
1.4 -0.0495172
1.41 -0.0609295
1.42 -0.0701638
1.43 -0.0768581
1.44 -0.0811474
1.45 -0.0825989
1.46 -0.0817322
1.47 -0.0785009
1.48 -0.0732512
1.49 -0.0663402
1.5 -0.0579639
1.51 -0.048621
1.52 -0.0385143
1.53 -0.0280129
1.54 -0.0173474
1.55 -0.00675622
1.56 0.00360084
1.57 0.0134983
1.58 0.0228644
1.59 0.031514
1.6 0.0393224
1.61 0.0461917
1.62 0.0518441
1.63 0.0562791
1.64 0.0591445
1.65 0.0604073
1.66 0.0598788
1.67 0.0573591
1.68 0.0529827
1.69 0.0464179
1.7 0.0380601
1.71 0.0278867
1.72 0.0162152
1.73 0.00340822
1.74 -0.0101941
1.75 -0.0240551
1.76 -0.0376851
1.77 -0.0505916
1.78 -0.0623132
1.79 -0.0723543
1.8 -0.0806
1.81 -0.0865085
1.82 -0.0903634
1.83 -0.0920414
1.84 -0.0918429
1.85 -0.0901644
1.86 -0.0873702
1.87 -0.0841091
1.88 -0.0809287
1.89 -0.0784116
1.9 -0.0770679
1.91 -0.0774172
1.92 -0.0795578
1.93 -0.0839597
1.94 -0.0902454
1.95 -0.0983739
1.96 -0.107856
1.97 -0.118124
1.98 -0.128477
1.99 -0.13818
2 -0.146288
2.01 -0.152133
2.02 -0.154982
2.03 -0.154063
2.04 -0.149365
2.05 -0.139946
2.06 -0.126458
2.07 -0.108653
2.08 -0.087009
2.09 -0.0621246
2.1 -0.0343212
2.11 -0.00458599
2.12 0.0266558
2.13 0.058651
2.14 0.0909508
2.15 0.123173
2.16 0.155155
2.17 0.186845
2.18 0.218445
2.19 0.250251
2.2 0.282692
2.21 0.316155
2.22 0.35124
2.23 0.388053
2.24 0.427018
2.25 0.467889
2.26 0.510412
2.27 0.553956
2.28 0.597587
2.29 0.639909
2.3 0.679648
2.31 0.714914
2.32 0.74393
2.33 0.765352
2.34 0.776477
2.35 0.777313
2.36 0.765322
2.37 0.740995
2.38 0.703912
2.39 0.654057
2.4 0.593617
2.41 0.522538
2.42 0.444399
2.43 0.360907
2.44 0.275119
2.45 0.189724
2.46 0.107983
2.47 0.0319121
2.48 -0.0352623
2.49 -0.0924127
2.5 -0.138085
2.51 -0.17112
2.52 -0.192829
2.53 -0.202079
2.54 -0.202023
2.55 -0.193607
2.56 -0.179501
2.57 -0.162258
2.58 -0.144516
2.59 -0.128725
2.6 -0.117563
2.61 -0.112562
2.62 -0.115143
2.63 -0.126431
2.64 -0.145631
2.65 -0.173462
2.66 -0.207506
2.67 -0.246709
2.68 -0.28872
2.69 -0.331328
2.7 -0.371919
2.71 -0.408649
2.72 -0.438919
2.73 -0.461715
2.74 -0.475923
2.75 -0.480781
2.76 -0.477472
2.77 -0.465622
2.78 -0.44793
2.79 -0.425732
2.8 -0.401562
2.81 -0.377693
2.82 -0.356869
2.83 -0.340743
2.84 -0.331868
2.85 -0.330961
2.86 -0.338867
2.87 -0.355986
2.88 -0.380815
2.89 -0.413222
2.9 -0.450298
2.91 -0.490287
2.92 -0.53043
2.93 -0.568375
2.94 -0.60108
2.95 -0.627197
2.96 -0.644044
2.97 -0.651298
2.98 -0.64835
2.99 -0.635126
3 -0.61358
3.01 -0.584186
3.02 -0.550257
3.03 -0.513883
3.04 -0.478094
3.05 -0.445368
3.06 -0.418941
3.07 -0.400003
3.08 -0.391237
3.09 -0.392685
3.1 -0.404719
3.11 -0.427097
3.12 -0.457572
3.13 -0.495294
3.14 -0.536798
3.15 -0.579763
3.16 -0.621123
3.17 -0.6585
3.18 -0.688771
3.19 -0.711155
3.2 -0.723382
3.21 -0.725962
3.22 -0.719112
3.23 -0.703827
3.24 -0.682724
3.25 -0.6577
3.26 -0.632209
3.27 -0.609214
3.28 -0.591866
3.29 -0.582337
3.3 -0.583918
3.31 -0.59645
3.32 -0.621941
3.33 -0.658812
3.34 -0.706002
3.35 -0.761438
3.36 -0.821599
3.37 -0.883273
3.38 -0.942485
3.39 -0.9953
3.4 -1.03812
3.41 -1.06876
3.42 -1.08345
3.43 -1.0833
3.44 -1.0664
3.45 -1.03553
3.46 -0.992662
3.47 -0.941058
3.48 -0.885343
3.49 -0.830092
3.5 -0.779907
3.51 -0.739578
3.52 -0.71288
3.53 -0.701626
3.54 -0.709013
3.55 -0.732232
3.56 -0.771099
3.57 -0.820073
3.58 -0.873892
3.59 -0.924571
3.6 -0.964716
3.61 -0.981768
3.62 -0.969404
3.63 -0.915657
3.64 -0.812234
3.65 -0.654892
3.66 -0.431578
3.67 -0.148358
3.68 0.202793
3.69 0.612941
3.7 1.0776
3.71 1.58912
3.72 2.13222
3.73 2.69636
3.74 3.26299
3.75 3.81599
3.76 4.33727
3.77 4.81314
3.78 5.22074
3.79 5.5562
3.8 5.79812
3.81 5.94604
3.82 5.9936
3.83 5.93513
3.84 5.78372
3.85 5.53029
3.86 5.19841
3.87 4.79241
3.88 4.32894
3.89 3.82465
3.9 3.29327
3.91 2.75361
3.92 2.2209
3.93 1.70931
3.94 1.23089
3.95 0.798347
3.96 0.413738
3.97 0.0907106
3.98 -0.177483
3.99 -0.386396
4 -0.54045
4.01 -0.646655
4.02 -0.706834
4.03 -0.734134
4.04 -0.732655
4.05 -0.713286
4.06 -0.682997
4.07 -0.649117
4.08 -0.617367
4.09 -0.593409
4.1 -0.5793
4.11 -0.577624
4.12 -0.588497
4.13 -0.610527
4.14 -0.64282
4.15 -0.681467
4.16 -0.723937
4.17 -0.766346
4.18 -0.805505
4.19 -0.83781
4.2 -0.861601
4.21 -0.873133
4.22 -0.872845
4.23 -0.8591
4.24 -0.832294
4.25 -0.793696
4.26 -0.743326
4.27 -0.684229
4.28 -0.617133
4.29 -0.544641
4.3 -0.468348
4.31 -0.389893
4.32 -0.310739
4.33 -0.231989
4.34 -0.154334
4.35 -0.0783242
4.36 -0.004168
4.37 0.0681696
4.38 0.138501
4.39 0.207105
4.4 0.273667
4.41 0.3381
4.42 0.399933
4.43 0.458268
4.44 0.512628
4.45 0.561034
4.46 0.603035
4.47 0.636711
4.48 0.66077
4.49 0.674547
4.5 0.67567
4.51 0.66513
4.52 0.641019
4.53 0.604558
4.54 0.556039
4.55 0.49602
4.56 0.42697
4.57 0.349383
4.58 0.266495
4.59 0.179999
4.6 0.0924213
4.61 0.00583092
4.62 -0.0773157
4.63 -0.155788
4.64 -0.227454
4.65 -0.291795
4.66 -0.34811
4.67 -0.395824
4.68 -0.436034
4.69 -0.468132
4.7 -0.494126
4.71 -0.514526
4.72 -0.530726
4.73 -0.544041
4.74 -0.555451
4.75 -0.566175
4.76 -0.576997
4.77 -0.588536
4.78 -0.60114
4.79 -0.614991
4.8 -0.629871
4.81 -0.645631
4.82 -0.661738
4.83 -0.677746
4.84 -0.693116
4.85 -0.707457
4.86 -0.720217
4.87 -0.731366
4.88 -0.74057
4.89 -0.748026
4.9 -0.753868
4.91 -0.758341
4.92 -0.761927
4.93 -0.764953
4.94 -0.767916
4.95 -0.771185
4.96 -0.775089
4.97 -0.779791
4.98 -0.785496
4.99 -0.792051
5 -0.799437
5.01 -0.807363
5.02 -0.815582
5.03 -0.823782
5.04 -0.831714
5.05 -0.839067
5.06 -0.845766
5.07 -0.851688
5.08 -0.856872
5.09 -0.861449
5.1 -0.865525
5.11 -0.869328
5.12 -0.872964
5.13 -0.876489
5.14 -0.879799
5.15 -0.882537
5.16 -0.884266
5.17 -0.883875
5.18 -0.880551
5.19 -0.872697
5.2 -0.858674
5.21 -0.837209
5.22 -0.805352
5.23 -0.762821
5.24 -0.706545
5.25 -0.636302
5.26 -0.551072
5.27 -0.449786
5.28 -0.334424
5.29 -0.203804
5.3 -0.0618244
5.31 0.0900388
5.32 0.24815
5.33 0.408753
5.34 0.567289
5.35 0.719725
5.36 0.860377
5.37 0.985453
5.38 1.09073
5.39 1.1711
5.4 1.22645
5.41 1.25016
5.42 1.24545
5.43 1.20978
5.44 1.14476
5.45 1.05372
5.46 0.936919
5.47 0.801402
5.48 0.649369
5.49 0.487241
5.5 0.319671
5.51 0.152079
5.52 -0.0111473
5.53 -0.164277
5.54 -0.304964
5.55 -0.429235
5.56 -0.535087
5.57 -0.622374
5.58 -0.688515
5.59 -0.736864
5.6 -0.766452
5.61 -0.780771
5.62 -0.781815
5.63 -0.771854
5.64 -0.754487
5.65 -0.731429
5.66 -0.705794
5.67 -0.679254
5.68 -0.653411
5.69 -0.629077
5.7 -0.606876
5.71 -0.586392
5.72 -0.567238
5.73 -0.548336
5.74 -0.528605
5.75 -0.506616
5.76 -0.481531
5.77 -0.451696
5.78 -0.417068
5.79 -0.376949
5.8 -0.331592
5.81 -0.281838
5.82 -0.228401
5.83 -0.173211
5.84 -0.117973
5.85 -0.0648626
5.86 -0.01596
5.87 0.0261158
5.88 0.060287
5.89 0.0833037
5.9 0.0954037
5.91 0.0948677
5.92 0.0815904
5.93 0.0564791
5.94 0.0190003
5.95 -0.0279718
5.96 -0.0839161
5.97 -0.146057
5.98 -0.212446
5.99 -0.280826
6 -0.349052
6.01 -0.414895
6.02 -0.477042
6.03 -0.533951
6.04 -0.584788
6.05 -0.629507
6.06 -0.66739
6.07 -0.69975
6.08 -0.726641
6.09 -0.749511
6.1 -0.769357
6.11 -0.787307
6.12 -0.804549
6.13 -0.822025
6.14 -0.840409
6.15 -0.8602
6.16 -0.881533
6.17 -0.904192
6.18 -0.927877
6.19 -0.951866
6.2 -0.975411
6.21 -0.997703
6.22 -1.01799
6.23 -1.03543
6.24 -1.04987
6.25 -1.06049
6.26 -1.06779
6.27 -1.0717
6.28 -1.07272
6.29 -1.07151
6.3 -1.06848
6.31 -1.06439
6.32 -1.05947
6.33 -1.05384
6.34 -1.04716
6.35 -1.03839
6.36 -1.02643
6.37 -1.0084
6.38 -0.982458
6.39 -0.944794
6.4 -0.891626
6.41 -0.820228
6.42 -0.723759
6.43 -0.601925
6.44 -0.447805
6.45 -0.260965
6.46 -0.0392238
6.47 0.220113
6.48 0.512559
6.49 0.841356
6.5 1.19803
6.51 1.57995
6.52 1.97969
6.53 2.38917
6.54 2.79942
6.55 3.20109
6.56 3.58246
6.57 3.9344
6.58 4.24729
6.59 4.50881
6.6 4.71719
6.61 4.85618
6.62 4.93041
6.63 4.93187
6.64 4.86088
6.65 4.7228
6.66 4.51351
6.67 4.24804
6.68 3.92692
6.69 3.5638
6.7 3.1677
6.71 2.74897
6.72 2.32009
6.73 1.89182
6.74 1.47447
6.75 1.07815
6.76 0.711463
6.77 0.37885
6.78 0.0902852
6.79 -0.157154
6.8 -0.356706
6.81 -0.512389
6.82 -0.625531
6.83 -0.69752
6.84 -0.736722
6.85 -0.743554
6.86 -0.728025
6.87 -0.693959
6.88 -0.647754
6.89 -0.594881
6.9 -0.539861
6.91 -0.48669
6.92 -0.438754
6.93 -0.397856
6.94 -0.365208
6.95 -0.341701
6.96 -0.326075
6.97 -0.318654
6.98 -0.317079
6.99 -0.320399
7 -0.326927
7.01 -0.33523
7.02 -0.344235
7.03 -0.353095
7.04 -0.361388
7.05 -0.369176
7.06 -0.376832
7.07 -0.385158
7.08 -0.394952
7.09 -0.407679
7.1 -0.424037
7.11 -0.445269
7.12 -0.47213
7.13 -0.504706
7.14 -0.543788
7.15 -0.588157
7.16 -0.637695
7.17 -0.690811
7.18 -0.746168
7.19 -0.802
7.2 -0.856624
7.21 -0.907809
7.22 -0.954349
7.23 -0.994487
7.24 -1.02713
7.25 -1.05209
7.26 -1.06815
7.27 -1.07677
7.28 -1.07773
7.29 -1.07273
7.3 -1.06302
7.31 -1.05009
7.32 -1.03574
7.33 -1.02145
7.34 -1.00853
7.35 -0.997986
7.36 -0.990351
7.37 -0.98545
7.38 -0.982981
7.39 -0.981543
7.4 -0.979562
7.41 -0.974914
7.42 -0.965338
7.43 -0.947695
7.44 -0.920516
7.45 -0.879496
7.46 -0.824376
7.47 -0.75246
7.48 -0.662845
7.49 -0.556277
7.5 -0.43116
7.51 -0.291268
7.52 -0.1369
7.53 0.0278892
7.54 0.199931
7.55 0.375176
7.56 0.549369
7.57 0.717296
7.58 0.875353
7.59 1.01867
7.6 1.14328
7.61 1.24731
7.62 1.32518
7.63 1.37875
7.64 1.40391
7.65 1.40266
7.66 1.37547
7.67 1.32255
7.68 1.24867
7.69 1.1535
7.7 1.04306
7.71 0.919569
7.72 0.787146
7.73 0.64966
7.74 0.510584
7.75 0.373364
7.76 0.241444
7.77 0.11728
7.78 0.00308999
7.79 -0.0984721
7.8 -0.187489
7.81 -0.260808
7.82 -0.319957
7.83 -0.363679
7.84 -0.392358
7.85 -0.407354
7.86 -0.407853
7.87 -0.396867
7.88 -0.374298
7.89 -0.342585
7.9 -0.303245
7.91 -0.257909
7.92 -0.209007
7.93 -0.158259
7.94 -0.108004
7.95 -0.0603073
7.96 -0.01735
7.97 0.0194068
7.98 0.0471647
7.99 0.065722
8 0.0726647
8.01 0.0679655
8.02 0.0511424
8.03 0.0215101
8.04 -0.0191207
8.05 -0.0715247
8.06 -0.13282
8.07 -0.20205
8.08 -0.276982
8.09 -0.355305
8.1 -0.434845
8.11 -0.513284
8.12 -0.588284
8.13 -0.658135
8.14 -0.721376
8.15 -0.776386
8.16 -0.823489
8.17 -0.861244
8.18 -0.891237
8.19 -0.913647
8.2 -0.929798
8.21 -0.941339
8.22 -0.949426
8.23 -0.955975
8.24 -0.962175
8.25 -0.969113
8.26 -0.977323
8.27 -0.986884
8.28 -0.997079
8.29 -1.00655
8.3 -1.0134
8.31 -1.01493
8.32 -1.00784
8.33 -0.989518
8.34 -0.954367
8.35 -0.901263
8.36 -0.824471
8.37 -0.722708
8.38 -0.593818
8.39 -0.434809
8.4 -0.248782
8.41 -0.0324297
8.42 0.20807
8.43 0.471216
8.44 0.751821
8.45 1.04374
8.46 1.34101
8.47 1.63608
8.48 1.92092
8.49 2.18833
8.5 2.43135
8.51 2.64094
8.52 2.81528
8.53 2.94313
8.54 3.02686
8.55 3.06095
8.56 3.04499
8.57 2.98267
8.58 2.87045
8.59 2.71862
8.6 2.5271
8.61 2.30476
8.62 2.05753
8.63 1.79173
8.64 1.5159
8.65 1.23633
8.66 0.960219
8.67 0.693747
8.68 0.442618
8.69 0.209876
8.7 0.00178835
8.71 -0.182869
8.72 -0.339915
8.73 -0.471141
8.74 -0.577158
8.75 -0.658242
8.76 -0.719173
8.77 -0.75976
8.78 -0.785711
8.79 -0.79903
8.8 -0.803274
8.81 -0.801737
8.82 -0.796806
8.83 -0.791215
8.84 -0.786885
8.85 -0.785272
8.86 -0.787327
8.87 -0.793903
8.88 -0.804644
8.89 -0.820013
8.9 -0.83894
8.91 -0.861039
8.92 -0.885426
8.93 -0.911195
8.94 -0.937576
8.95 -0.963757
8.96 -0.989034
8.97 -1.01293
8.98 -1.03509
8.99 -1.05516
9 -1.07331
9.01 -1.08924
9.02 -1.10337
9.03 -1.11573
9.04 -1.12652
9.05 -1.13601
9.06 -1.14414
9.07 -1.15114
9.08 -1.15679
9.09 -1.16099
9.1 -1.16345
9.11 -1.1636
9.12 -1.16122
9.13 -1.15523
9.14 -1.14543
9.15 -1.13089
9.16 -1.11093
9.17 -1.08537
9.18 -1.05291
9.19 -1.01418
9.2 -0.968257
9.21 -0.915714
9.22 -0.856827
9.23 -0.791847
9.24 -0.722202
9.25 -0.648349
9.26 -0.572144
9.27 -0.494873
9.28 -0.418335
9.29 -0.344057
9.3 -0.274367
9.31 -0.210276
9.32 -0.154139
9.33 -0.106885
9.34 -0.0696133
9.35 -0.0438753
9.36 -0.0288264
9.37 -0.0262734
9.38 -0.0342766
9.39 -0.0528867
9.4 -0.0808299
9.41 -0.116211
9.42 -0.158057
9.43 -0.203648
9.44 -0.251378
9.45 -0.298985
9.46 -0.344675
9.47 -0.386381
9.48 -0.423206
9.49 -0.453107
9.5 -0.476237
9.51 -0.491813
9.52 -0.500007
9.53 -0.501767
9.54 -0.497258
9.55 -0.488506
9.56 -0.47646
9.57 -0.46299
9.58 -0.449588
9.59 -0.437982
9.6 -0.429234
9.61 -0.425083
9.62 -0.425795
9.63 -0.432207
9.64 -0.444457
9.65 -0.462001
9.66 -0.484974
9.67 -0.511887
9.68 -0.542245
9.69 -0.574695
9.7 -0.608228
9.71 -0.641761
9.72 -0.674482
9.73 -0.705479
9.74 -0.734499
9.75 -0.761177
9.76 -0.785505
9.77 -0.807773
9.78 -0.827999
9.79 -0.846719
9.8 -0.863922
9.81 -0.879669
9.82 -0.89363
9.83 -0.904834
9.84 -0.912454
9.85 -0.913927
9.86 -0.907694
9.87 -0.890471
9.88 -0.858769
9.89 -0.810319
9.9 -0.738614
9.91 -0.643399
9.92 -0.518279
9.93 -0.362251
9.94 -0.173283
9.95 0.0520887
9.96 0.309908
9.97 0.604079
9.98 0.927472
9.99 1.27839
10 1.65105
10.01 2.03823
10.02 2.43332
10.03 2.82723
10.04 3.21072
10.05 3.57495
10.06 3.9116
10.07 4.20944
10.08 4.46583
10.09 4.66694
10.1 4.81466
10.11 4.9019
10.12 4.92704
10.13 4.89424
10.14 4.79781
10.15 4.65011
10.16 4.45014
10.17 4.20822
10.18 3.93136
10.19 3.62651
10.2 3.30462
10.21 2.97252
10.22 2.63979
10.23 2.31369
10.24 2.00147
10.25 1.70728
10.26 1.43853
10.27 1.19453
10.28 0.980012
10.29 0.793387
10.3 0.633875
10.31 0.501178
10.32 0.389883
10.33 0.299794
10.34 0.224628
10.35 0.161824
10.36 0.107382
10.37 0.0577007
10.38 0.010042
10.39 -0.0381908
10.4 -0.0889284
10.41 -0.143254
10.42 -0.201701
10.43 -0.264565
10.44 -0.33093
10.45 -0.400417
10.46 -0.471511
10.47 -0.543099
10.48 -0.613745
10.49 -0.68237
10.5 -0.747391
10.51 -0.808403
10.52 -0.864169
10.53 -0.914513
10.54 -0.959191
10.55 -0.997747
10.56 -1.03094
10.57 -1.05813
10.58 -1.0803
10.59 -1.09736
10.6 -1.10955
10.61 -1.11734
10.62 -1.1202
10.63 -1.11883
10.64 -1.11263
10.65 -1.10181
10.66 -1.08625
10.67 -1.06557
10.68 -1.04035
10.69 -1.01
10.7 -0.975458
10.71 -0.936886
10.72 -0.89502
10.73 -0.850854
10.74 -0.805261
10.75 -0.759575
10.76 -0.715107
10.77 -0.67318
10.78 -0.635015
10.79 -0.602259
10.8 -0.575313
10.81 -0.556112
10.82 -0.544366
10.83 -0.54096
10.84 -0.545992
10.85 -0.558717
10.86 -0.579648
10.87 -0.606917
10.88 -0.64031
10.89 -0.67823
10.9 -0.7195
10.91 -0.762874
10.92 -0.806921
10.93 -0.850367
10.94 -0.892149
10.95 -0.931217
10.96 -0.966714
10.97 -0.998358
10.98 -1.02519
10.99 -1.04775
11 -1.06557
11.01 -1.07922
11.02 -1.08906
11.03 -1.09545
11.04 -1.09934
11.05 -1.1011
11.06 -1.10171
11.07 -1.10177
11.08 -1.10201
11.09 -1.10296
11.1 -1.1053
11.11 -1.10921
11.12 -1.11511
11.13 -1.12297
11.14 -1.13266
11.15 -1.14394
11.16 -1.15613
11.17 -1.16851
11.18 -1.18
11.19 -1.18934
11.2 -1.19489
11.21 -1.19537
11.22 -1.18793
11.23 -1.17175
11.24 -1.14365
11.25 -1.10224
11.26 -1.04573
11.27 -0.971126
11.28 -0.879121
11.29 -0.765758
11.3 -0.633055
11.31 -0.479695
11.32 -0.306323
11.33 -0.115461
11.34 0.0930742
11.35 0.314214
11.36 0.546059
11.37 0.783777
11.38 1.02322
11.39 1.2591
11.4 1.48723
11.41 1.70076
11.42 1.89649
11.43 2.0688
11.44 2.21317
11.45 2.32839
11.46 2.40727
11.47 2.45321
11.48 2.4614
11.49 2.43445
11.5 2.37361
11.51 2.279
11.52 2.15721
11.53 2.00814
11.54 1.8395
11.55 1.65458
11.56 1.45876
11.57 1.25728
11.58 1.05481
11.59 0.855771
11.6 0.664567
11.61 0.48418
11.62 0.316958
11.63 0.165848
11.64 0.0299629
11.65 -0.0879988
11.66 -0.190656
11.67 -0.278011
11.68 -0.351707
11.69 -0.414395
11.7 -0.466937
11.71 -0.512867
11.72 -0.553563
11.73 -0.591404
11.74 -0.627954
11.75 -0.664583
11.76 -0.702081
11.77 -0.741042
11.78 -0.781227
11.79 -0.822229
11.8 -0.863064
11.81 -0.902626
11.82 -0.938997
11.83 -0.970998
11.84 -0.996275
11.85 -1.01337
11.86 -1.02074
11.87 -1.01599
11.88 -0.999345
11.89 -0.967828
11.9 -0.922608
11.91 -0.862562
11.92 -0.787813
11.93 -0.699887
11.94 -0.597984
11.95 -0.48535
11.96 -0.362391
11.97 -0.231823
11.98 -0.0957597
11.99 0.0434444
12 0.18307
12.01 0.320238
12.02 0.45255
12.03 0.577189
12.04 0.691436
12.05 0.793984
12.06 0.880861
12.07 0.952687
12.08 1.00635
12.09 1.04206
12.1 1.05959
12.11 1.05774
12.12 1.03927
12.13 1.00271
12.14 0.951736
12.15 0.887208
12.16 0.811431
12.17 0.727343
12.18 0.636629
12.19 0.542669
12.2 0.447587
12.21 0.353874
12.22 0.263414
12.23 0.178352
12.24 0.0992631
12.25 0.0280329
12.26 -0.0358841
12.27 -0.0920833
12.28 -0.141059
12.29 -0.184083
12.3 -0.221602
12.31 -0.255686
12.32 -0.287386
12.33 -0.318351
12.34 -0.349807
12.35 -0.383026
12.36 -0.418541
12.37 -0.457186
12.38 -0.498601
12.39 -0.542555
12.4 -0.588137
