# xPDFsuite Configuration #
[PDF]
wavelength = 0.1432
dataformat = twotheta
inputfile = 1_1Pd_CeO2_cycle-00408.chi
backgroundfile = background-00000.chi
mode = xray
bgscale = 1.007
composition = CeO2
outputtype = gr
qmaxinst = 28.8974762299
qmin = 0.5
qmax = 27.9
rmax = 50.0
rmin = 0.0
rstep = 0.01
rpoly = 1.8657

[Misc]
inputdir = G:/SankarDec16/1Pd/Chi
savedir = D:/DATA/APS_CeO2/1Pd
backgroundfilefull = G:/SankarDec16/Background/background-00000.chi

#### start data
#S 1
#L r($\AA$)  G($\AA^{-2}$)
0 0
0.01 -0.00628843
0.02 -0.0121052
0.03 -0.0169643
0.04 -0.0204996
0.05 -0.0225068
0.06 -0.0226569
0.07 -0.0211669
0.08 -0.0179289
0.09 -0.0133576
0.1 -0.00773889
0.11 -0.0015115
0.12 0.00484351
0.13 0.0107888
0.14 0.0159393
0.15 0.0198261
0.16 0.0221716
0.17 0.0228622
0.18 0.0216697
0.19 0.0189103
0.2 0.0145902
0.21 0.00919137
0.22 0.0030686
0.23 -0.00328614
0.24 -0.00941818
0.25 -0.0147486
0.26 -0.0189958
0.27 -0.0217292
0.28 -0.0227719
0.29 -0.0221068
0.3 -0.0196162
0.31 -0.015702
0.32 -0.0104841
0.33 -0.00449084
0.34 0.00187014
0.35 0.00807515
0.36 0.0137164
0.37 0.018199
0.38 0.0213578
0.39 0.0228195
0.4 0.0225163
0.41 0.0205284
0.42 0.0168542
0.43 0.0119637
0.44 0.00608537
0.45 -0.000229381
0.46 -0.00653834
0.47 -0.0123091
0.48 -0.0171992
0.49 -0.0206246
0.5 -0.0225437
0.51 -0.022658
0.52 -0.021012
0.53 -0.0177797
0.54 -0.0130766
0.55 -0.00741977
0.56 -0.00113624
0.57 0.00522363
0.58 0.011203
0.59 0.0162842
0.6 0.0202057
0.61 0.0224208
0.62 0.0230136
0.63 0.021774
0.64 0.0188572
0.65 0.014524
0.66 0.00900217
0.67 0.00283308
0.68 -0.00357197
0.69 -0.00968797
0.7 -0.0150638
0.71 -0.0192194
0.72 -0.0219865
0.73 -0.0228791
0.74 -0.0221039
0.75 -0.0195483
0.76 -0.0154712
0.77 -0.0102082
0.78 -0.00408836
0.79 0.00234691
0.8 0.00862188
0.81 0.0142605
0.82 0.018839
0.83 0.0219367
0.84 0.0234859
0.85 0.0230849
0.86 0.0210516
0.87 0.0173752
0.88 0.0124044
0.89 0.00653092
0.9 0.000165979
0.91 -0.00617844
0.92 -0.0119925
0.93 -0.0168771
0.94 -0.0204643
0.95 -0.0224246
0.96 -0.0227988
0.97 -0.0213089
0.98 -0.0183693
0.99 -0.0140882
1 -0.00889388
1.01 -0.00321799
1.02 0.00245192
1.03 0.00767199
1.04 0.011915
1.05 0.0148979
1.06 0.0163397
1.07 0.0160406
1.08 0.0141787
1.09 0.0106525
1.1 0.00599096
1.11 0.000469683
1.12 -0.00537037
1.13 -0.0110342
1.14 -0.0158929
1.15 -0.0195771
1.16 -0.0214653
1.17 -0.021391
1.18 -0.0191215
1.19 -0.0145428
1.2 -0.00799778
1.21 0.000528448
1.22 0.0103164
1.23 0.0209575
1.24 0.0317557
1.25 0.0420967
1.26 0.0511781
1.27 0.0585829
1.28 0.0635155
1.29 0.0657835
1.3 0.0650674
1.31 0.061158
1.32 0.0544422
1.33 0.0447118
1.34 0.0328082
1.35 0.019025
1.36 0.00407384
1.37 -0.0113931
1.38 -0.02666
1.39 -0.0411413
1.4 -0.0541023
1.41 -0.0651706
1.42 -0.0739344
1.43 -0.080033
1.44 -0.0836284
1.45 -0.0843019
1.46 -0.0826226
1.47 -0.0785855
1.48 -0.0725911
1.49 -0.0650415
1.5 -0.0561999
1.51 -0.0465813
1.52 -0.0364458
1.53 -0.0261531
1.54 -0.0159344
1.55 -0.006007
1.56 0.00353348
1.57 0.0125121
1.58 0.0209539
1.59 0.0287658
1.6 0.0359253
1.61 0.0424141
1.62 0.0480787
1.63 0.0529296
1.64 0.0567127
1.65 0.059358
1.66 0.0606645
1.67 0.0603787
1.68 0.0585075
1.69 0.0546171
1.7 0.0489242
1.71 0.0412368
1.72 0.031688
1.73 0.0204994
1.74 0.00778481
1.75 -0.00593804
1.76 -0.0203668
1.77 -0.0349539
1.78 -0.0492369
1.79 -0.0626609
1.8 -0.0749059
1.81 -0.0853212
1.82 -0.0938908
1.83 -0.100262
1.84 -0.104451
1.85 -0.106629
1.86 -0.106834
1.87 -0.105639
1.88 -0.10331
1.89 -0.100462
1.9 -0.0975679
1.91 -0.0951823
1.92 -0.0936521
1.93 -0.0935285
1.94 -0.0948239
1.95 -0.0977498
1.96 -0.102168
1.97 -0.107795
1.98 -0.114306
1.99 -0.121091
2 -0.127522
2.01 -0.132919
2.02 -0.136589
2.03 -0.137715
2.04 -0.136009
2.05 -0.130404
2.06 -0.12112
2.07 -0.107597
2.08 -0.0899112
2.09 -0.0683442
2.1 -0.0427796
2.11 -0.0141006
2.12 0.0176121
2.13 0.0515386
2.14 0.0872242
2.15 0.124162
2.16 0.161811
2.17 0.199859
2.18 0.237965
2.19 0.275951
2.2 0.313707
2.21 0.351208
2.22 0.388419
2.23 0.425368
2.24 0.461961
2.25 0.498087
2.26 0.533491
2.27 0.567699
2.28 0.60033
2.29 0.630286
2.3 0.657102
2.31 0.679513
2.32 0.696517
2.33 0.707381
2.34 0.71031
2.35 0.705523
2.36 0.691276
2.37 0.66801
2.38 0.635439
2.39 0.593522
2.4 0.543791
2.41 0.486074
2.42 0.422888
2.43 0.355316
2.44 0.285461
2.45 0.215211
2.46 0.146779
2.47 0.0817063
2.48 0.022252
2.49 -0.0306227
2.5 -0.0757703
2.51 -0.112192
2.52 -0.140616
2.53 -0.15999
2.54 -0.172354
2.55 -0.178115
2.56 -0.178954
2.57 -0.176542
2.58 -0.172453
2.59 -0.168482
2.6 -0.166274
2.61 -0.167021
2.62 -0.171718
2.63 -0.181185
2.64 -0.195104
2.65 -0.213969
2.66 -0.236428
2.67 -0.261874
2.68 -0.288914
2.69 -0.316226
2.7 -0.342228
2.71 -0.365823
2.72 -0.385455
2.73 -0.400555
2.74 -0.410512
2.75 -0.414963
2.76 -0.414711
2.77 -0.409713
2.78 -0.401675
2.79 -0.39158
2.8 -0.381065
2.81 -0.371545
2.82 -0.36481
2.83 -0.361719
2.84 -0.363833
2.85 -0.371357
2.86 -0.384611
2.87 -0.403545
2.88 -0.426955
2.89 -0.454332
2.9 -0.483661
2.91 -0.513474
2.92 -0.541831
2.93 -0.567183
2.94 -0.587368
2.95 -0.60182
2.96 -0.608792
2.97 -0.608487
2.98 -0.600823
2.99 -0.586191
3 -0.566304
3.01 -0.542044
3.02 -0.515913
3.03 -0.489774
3.04 -0.465911
3.05 -0.44606
3.06 -0.432663
3.07 -0.426147
3.08 -0.428327
3.09 -0.43871
3.1 -0.457142
3.11 -0.482894
3.12 -0.513886
3.13 -0.548809
3.14 -0.584891
3.15 -0.619933
3.16 -0.651479
3.17 -0.677787
3.18 -0.696346
3.19 -0.707089
3.2 -0.708429
3.21 -0.701392
3.22 -0.686654
3.23 -0.665642
3.24 -0.640915
3.25 -0.614766
3.26 -0.590177
3.27 -0.570068
3.28 -0.557182
3.29 -0.553251
3.3 -0.561193
3.31 -0.580338
3.32 -0.6123
3.33 -0.655156
3.34 -0.70759
3.35 -0.767316
3.36 -0.830855
3.37 -0.894875
3.38 -0.955668
3.39 -1.00941
3.4 -1.05274
3.41 -1.08369
3.42 -1.09873
3.43 -1.09909
3.44 -1.08298
3.45 -1.05315
3.46 -1.01147
3.47 -0.961025
3.48 -0.906194
3.49 -0.851132
3.5 -0.800186
3.51 -0.757708
3.52 -0.727167
3.53 -0.710227
3.54 -0.709729
3.55 -0.723155
3.56 -0.750236
3.57 -0.785945
3.58 -0.825458
3.59 -0.861461
3.6 -0.887291
3.61 -0.891427
3.62 -0.868234
3.63 -0.806802
3.64 -0.69964
3.65 -0.54295
3.66 -0.32576
3.67 -0.0536912
3.68 0.280572
3.69 0.668836
3.7 1.107
3.71 1.58809
3.72 2.09814
3.73 2.62758
3.74 3.15945
3.75 3.679
3.76 4.16968
3.77 4.61893
3.78 5.00573
3.79 5.3264
3.8 5.56116
3.81 5.70937
3.82 5.76492
3.83 5.72221
3.84 5.59306
3.85 5.36848
3.86 5.06999
3.87 4.70104
3.88 4.27659
3.89 3.81182
3.9 3.31875
3.91 2.81501
3.92 2.31414
3.93 1.82953
3.94 1.37237
3.95 0.95454
3.96 0.578547
3.97 0.257095
3.98 -0.0152007
3.99 -0.233809
4 -0.402142
4.01 -0.526104
4.02 -0.606693
4.03 -0.655658
4.04 -0.67612
4.05 -0.677894
4.06 -0.6671
4.07 -0.650182
4.08 -0.632637
4.09 -0.619261
4.1 -0.612488
4.11 -0.614653
4.12 -0.62618
4.13 -0.646148
4.14 -0.673871
4.15 -0.706269
4.16 -0.741172
4.17 -0.775379
4.18 -0.806173
4.19 -0.830448
4.2 -0.846844
4.21 -0.852044
4.22 -0.846522
4.23 -0.82883
4.24 -0.799352
4.25 -0.759253
4.26 -0.70857
4.27 -0.650074
4.28 -0.584462
4.29 -0.514127
4.3 -0.440563
4.31 -0.365335
4.32 -0.289796
4.33 -0.21508
4.34 -0.141811
4.35 -0.0705738
4.36 -0.00158185
4.37 0.0652188
4.38 0.129622
4.39 0.192006
4.4 0.252118
4.41 0.310034
4.42 0.365451
4.43 0.417722
4.44 0.466556
4.45 0.51037
4.46 0.548843
4.47 0.580391
4.48 0.603914
4.49 0.618811
4.5 0.622993
4.51 0.617194
4.52 0.59963
4.53 0.571181
4.54 0.531914
4.55 0.482059
4.56 0.423627
4.57 0.356685
4.58 0.284012
4.59 0.206826
4.6 0.127228
4.61 0.0470342
4.62 -0.0317948
4.63 -0.107917
4.64 -0.179532
4.65 -0.245886
4.66 -0.306172
4.67 -0.359629
4.68 -0.406872
4.69 -0.447062
4.7 -0.481629
4.71 -0.51069
4.72 -0.535175
4.73 -0.556059
4.74 -0.573858
4.75 -0.589708
4.76 -0.604048
4.77 -0.617558
4.78 -0.63058
4.79 -0.643347
4.8 -0.655962
4.81 -0.668355
4.82 -0.680426
4.83 -0.69196
4.84 -0.70274
4.85 -0.712625
4.86 -0.721333
4.87 -0.728936
4.88 -0.735279
4.89 -0.740538
4.9 -0.744834
4.91 -0.748351
4.92 -0.751394
4.93 -0.754186
4.94 -0.757017
4.95 -0.760113
4.96 -0.763659
4.97 -0.767741
4.98 -0.77248
4.99 -0.777777
5 -0.783639
5.01 -0.789915
5.02 -0.7965
5.03 -0.803283
5.04 -0.810161
5.05 -0.81709
5.06 -0.824055
5.07 -0.831094
5.08 -0.838278
5.09 -0.84567
5.1 -0.853356
5.11 -0.861292
5.12 -0.869399
5.13 -0.877398
5.14 -0.884881
5.15 -0.891102
5.16 -0.895409
5.17 -0.896228
5.18 -0.892736
5.19 -0.883103
5.2 -0.865717
5.21 -0.839489
5.22 -0.801566
5.23 -0.752172
5.24 -0.688599
5.25 -0.611205
5.26 -0.519505
5.27 -0.413107
5.28 -0.294345
5.29 -0.162867
5.3 -0.022593
5.31 0.124553
5.32 0.274912
5.33 0.424978
5.34 0.570199
5.35 0.707361
5.36 0.831194
5.37 0.938837
5.38 1.02688
5.39 1.09123
5.4 1.1325
5.41 1.14534
5.42 1.1333
5.43 1.09471
5.44 1.03151
5.45 0.946947
5.46 0.84175
5.47 0.721955
5.48 0.589697
5.49 0.450243
5.5 0.307372
5.51 0.165376
5.52 0.0274878
5.53 -0.101944
5.54 -0.22146
5.55 -0.328279
5.56 -0.421218
5.57 -0.500438
5.58 -0.564326
5.59 -0.61551
5.6 -0.653447
5.61 -0.680668
5.62 -0.698534
5.63 -0.70846
5.64 -0.712743
5.65 -0.712068
5.66 -0.708272
5.67 -0.701888
5.68 -0.693458
5.69 -0.683185
5.7 -0.670595
5.71 -0.655535
5.72 -0.636988
5.73 -0.614461
5.74 -0.587229
5.75 -0.554415
5.76 -0.516292
5.77 -0.471921
5.78 -0.422483
5.79 -0.368232
5.8 -0.310419
5.81 -0.250524
5.82 -0.19025
5.83 -0.131462
5.84 -0.0764563
5.85 -0.0270102
5.86 0.0150529
5.87 0.0475527
5.88 0.0703399
5.89 0.0808046
5.9 0.0802384
5.91 0.0677888
5.92 0.0442496
5.93 0.0111045
5.94 -0.0312575
5.95 -0.080034
5.96 -0.134147
5.97 -0.191193
5.98 -0.249466
5.99 -0.307117
6 -0.362882
6.01 -0.415136
6.02 -0.463573
6.03 -0.507478
6.04 -0.546888
6.05 -0.582316
6.06 -0.613946
6.07 -0.643041
6.08 -0.670219
6.09 -0.696598
6.1 -0.722973
6.11 -0.750128
6.12 -0.778419
6.13 -0.808278
6.14 -0.839413
6.15 -0.871574
6.16 -0.90408
6.17 -0.936171
6.18 -0.966714
6.19 -0.994978
6.2 -1.01967
6.21 -1.04024
6.22 -1.05605
6.23 -1.06649
6.24 -1.07212
6.25 -1.07246
6.26 -1.06882
6.27 -1.0617
6.28 -1.05221
6.29 -1.04145
6.3 -1.03039
6.31 -1.01982
6.32 -1.0103
6.33 -1.00176
6.34 -0.993718
6.35 -0.984911
6.36 -0.9738
6.37 -0.957234
6.38 -0.932916
6.39 -0.896758
6.4 -0.844743
6.41 -0.774074
6.42 -0.677903
6.43 -0.556168
6.44 -0.402265
6.45 -0.216211
6.46 0.00366782
6.47 0.259371
6.48 0.546085
6.49 0.866125
6.5 1.21104
6.51 1.57771
6.52 1.95873
6.53 2.3464
6.54 2.73185
6.55 3.10683
6.56 3.4603
6.57 3.7844
6.58 4.07068
6.59 4.30836
6.6 4.49657
6.61 4.62109
6.62 4.68687
6.63 4.68721
6.64 4.62297
6.65 4.49928
6.66 4.31283
6.67 4.07702
6.68 3.79234
6.69 3.47067
6.7 3.11967
6.71 2.74799
6.72 2.36627
6.73 1.98316
6.74 1.60747
6.75 1.24742
6.76 0.910199
6.77 0.599641
6.78 0.323984
6.79 0.0812562
6.8 -0.122723
6.81 -0.290732
6.82 -0.423359
6.83 -0.521039
6.84 -0.590172
6.85 -0.630076
6.86 -0.648676
6.87 -0.648292
6.88 -0.63368
6.89 -0.60922
6.9 -0.577802
6.91 -0.543345
6.92 -0.50815
6.93 -0.474374
6.94 -0.443384
6.95 -0.416354
6.96 -0.393269
6.97 -0.374862
6.98 -0.360296
6.99 -0.349513
7 -0.341976
7.01 -0.337111
7.02 -0.334861
7.03 -0.334686
7.04 -0.336834
7.05 -0.341291
7.06 -0.34838
7.07 -0.358737
7.08 -0.372473
7.09 -0.390735
7.1 -0.413378
7.11 -0.441083
7.12 -0.473956
7.13 -0.511643
7.14 -0.554378
7.15 -0.600914
7.16 -0.650859
7.17 -0.702839
7.18 -0.755711
7.19 -0.808013
7.2 -0.858554
7.21 -0.905532
7.22 -0.948211
7.23 -0.98526
7.24 -1.01592
7.25 -1.04014
7.26 -1.05694
7.27 -1.06751
7.28 -1.07157
7.29 -1.07039
7.3 -1.06481
7.31 -1.0558
7.32 -1.04473
7.33 -1.03244
7.34 -1.01997
7.35 -1.00794
7.36 -0.996725
7.37 -0.986268
7.38 -0.976214
7.39 -0.965762
7.4 -0.953666
7.41 -0.938529
7.42 -0.918744
7.43 -0.892011
7.44 -0.8574
7.45 -0.811627
7.46 -0.754627
7.47 -0.684318
7.48 -0.599988
7.49 -0.50218
7.5 -0.389507
7.51 -0.264848
7.52 -0.12824
7.53 0.0172369
7.54 0.169202
7.55 0.324593
7.56 0.479964
7.57 0.631255
7.58 0.77534
7.59 0.908169
7.6 1.02621
7.61 1.1276
7.62 1.20728
7.63 1.26635
7.64 1.30078
7.65 1.31173
7.66 1.2991
7.67 1.2624
7.68 1.20554
7.69 1.12748
7.7 1.03354
7.71 0.925334
7.72 0.806485
7.73 0.680679
7.74 0.550957
7.75 0.421064
7.76 0.294298
7.77 0.173499
7.78 0.0611378
7.79 -0.0398561
7.8 -0.129133
7.81 -0.203344
7.82 -0.263698
7.83 -0.308816
7.84 -0.339012
7.85 -0.355666
7.86 -0.358114
7.87 -0.349505
7.88 -0.330029
7.89 -0.302319
7.9 -0.268103
7.91 -0.229251
7.92 -0.188117
7.93 -0.146595
7.94 -0.106673
7.95 -0.0702261
7.96 -0.0389899
7.97 -0.0139395
7.98 0.00279412
7.99 0.0115066
8 0.010573
8.01 0.000413429
8.02 -0.0189971
8.03 -0.0478043
8.04 -0.0844172
8.05 -0.129119
8.06 -0.179747
8.07 -0.235535
8.08 -0.294948
8.09 -0.356489
8.1 -0.418826
8.11 -0.480587
8.12 -0.540468
8.13 -0.597552
8.14 -0.651089
8.15 -0.700276
8.16 -0.745334
8.17 -0.785559
8.18 -0.821785
8.19 -0.854076
8.2 -0.883018
8.21 -0.909316
8.22 -0.933245
8.23 -0.955539
8.24 -0.976241
8.25 -0.995448
8.26 -1.01284
8.27 -1.02751
8.28 -1.03878
8.29 -1.04443
8.3 -1.04335
8.31 -1.03296
8.32 -1.01077
8.33 -0.975265
8.34 -0.921895
8.35 -0.850914
8.36 -0.758011
8.37 -0.643129
8.38 -0.505217
8.39 -0.3426
8.4 -0.158423
8.41 0.0493164
8.42 0.275304
8.43 0.517927
8.44 0.772807
8.45 1.03503
8.46 1.29959
8.47 1.56078
8.48 1.81207
8.49 2.04796
8.5 2.26298
8.51 2.4499
8.52 2.60744
8.53 2.72629
8.54 2.80839
8.55 2.84897
8.56 2.84731
8.57 2.80614
8.58 2.72179
8.59 2.60247
8.6 2.44724
8.61 2.26309
8.62 2.05443
8.63 1.82583
8.64 1.58465
8.65 1.3353
8.66 1.08451
8.67 0.837335
8.68 0.599041
8.69 0.372945
8.7 0.164714
8.71 -0.0254923
8.72 -0.193426
8.73 -0.339542
8.74 -0.463488
8.75 -0.564471
8.76 -0.646035
8.77 -0.706916
8.78 -0.751916
8.79 -0.782181
8.8 -0.800629
8.81 -0.810365
8.82 -0.813182
8.83 -0.812323
8.84 -0.809548
8.85 -0.806922
8.86 -0.80584
8.87 -0.807652
8.88 -0.812728
8.89 -0.822039
8.9 -0.835109
8.91 -0.852013
8.92 -0.872254
8.93 -0.89508
8.94 -0.920012
8.95 -0.946024
8.96 -0.972452
8.97 -0.998498
8.98 -1.02355
8.99 -1.04693
9 -1.06842
9.01 -1.08738
9.02 -1.10395
9.03 -1.11787
9.04 -1.12916
9.05 -1.13807
9.06 -1.14438
9.07 -1.14856
9.08 -1.15043
9.09 -1.15019
9.1 -1.14781
9.11 -1.14304
9.12 -1.13595
9.13 -1.12588
9.14 -1.11283
9.15 -1.09619
9.16 -1.07551
9.17 -1.05062
9.18 -1.0205
9.19 -0.98556
9.2 -0.944955
9.21 -0.899002
9.22 -0.847781
9.23 -0.791309
9.24 -0.73064
9.25 -0.665927
9.26 -0.598652
9.27 -0.529743
9.28 -0.460639
9.29 -0.392648
9.3 -0.327641
9.31 -0.266651
9.32 -0.211687
9.33 -0.163733
9.34 -0.123889
9.35 -0.0936821
9.36 -0.0726217
9.37 -0.0625256
9.38 -0.0619487
9.39 -0.0712057
9.4 -0.0894516
9.41 -0.115186
9.42 -0.147923
9.43 -0.185255
9.44 -0.226061
9.45 -0.26832
9.46 -0.310469
9.47 -0.350733
9.48 -0.388043
9.49 -0.420619
9.5 -0.448192
9.51 -0.46987
9.52 -0.485459
9.53 -0.495457
9.54 -0.49962
9.55 -0.499446
9.56 -0.495369
9.57 -0.488812
9.58 -0.480878
9.59 -0.472831
9.6 -0.465723
9.61 -0.46085
9.62 -0.458773
9.63 -0.460303
9.64 -0.465852
9.65 -0.475302
9.66 -0.489097
9.67 -0.506369
9.68 -0.527099
9.69 -0.550476
9.7 -0.575934
9.71 -0.602914
9.72 -0.630719
9.73 -0.658917
9.74 -0.687051
9.75 -0.714818
9.76 -0.741982
9.77 -0.768429
9.78 -0.793881
9.79 -0.818267
9.8 -0.841105
9.81 -0.861928
9.82 -0.879982
9.83 -0.893821
9.84 -0.902548
9.85 -0.903233
9.86 -0.894612
9.87 -0.873494
9.88 -0.836803
9.89 -0.782805
9.9 -0.705632
9.91 -0.605688
9.92 -0.477419
9.93 -0.32046
9.94 -0.13337
9.95 0.0865522
9.96 0.335427
9.97 0.616426
9.98 0.923023
9.99 1.25356
10 1.60284
10.01 1.96453
10.02 2.33276
10.03 2.69968
10.04 3.05721
10.05 3.3977
10.06 3.71389
10.07 3.99592
10.08 4.24146
10.09 4.43822
10.1 4.58769
10.11 4.68336
10.12 4.72342
10.13 4.71122
10.14 4.64104
10.15 4.52355
10.16 4.35709
10.17 4.15044
10.18 3.90937
10.19 3.6394
10.2 3.35044
10.21 3.04775
10.22 2.74039
10.23 2.43468
10.24 2.13737
10.25 1.85279
10.26 1.58771
10.27 1.34258
10.28 1.12209
10.29 0.92576
10.3 0.753596
10.31 0.606167
10.32 0.479169
10.33 0.373283
10.34 0.283087
10.35 0.206763
10.36 0.140916
10.37 0.0821508
10.38 0.0282676
10.39 -0.023724
10.4 -0.0756203
10.41 -0.129001
10.42 -0.184798
10.43 -0.243751
10.44 -0.305574
10.45 -0.370377
10.46 -0.437154
10.47 -0.505215
10.48 -0.573471
10.49 -0.640951
10.5 -0.706339
10.51 -0.768987
10.52 -0.827663
10.53 -0.881867
10.54 -0.931074
10.55 -0.974495
10.56 -1.01254
10.57 -1.04419
10.58 -1.07021
10.59 -1.09024
10.6 -1.10439
10.61 -1.11315
10.62 -1.1159
10.63 -1.11361
10.64 -1.1058
10.65 -1.09299
10.66 -1.07535
10.67 -1.05281
10.68 -1.02621
10.69 -0.995306
10.7 -0.961139
10.71 -0.924061
10.72 -0.884855
10.73 -0.844407
10.74 -0.803593
10.75 -0.763412
10.76 -0.72499
10.77 -0.689289
10.78 -0.657219
10.79 -0.630031
10.8 -0.607886
10.81 -0.592276
10.82 -0.582826
10.83 -0.580173
10.84 -0.584325
10.85 -0.594645
10.86 -0.61153
10.87 -0.6335
10.88 -0.660426
10.89 -0.691097
10.9 -0.724645
10.91 -0.760191
10.92 -0.796646
10.93 -0.833154
10.94 -0.868884
10.95 -0.903099
10.96 -0.935162
10.97 -0.964812
10.98 -0.991361
10.99 -1.01508
11 -1.03558
11.01 -1.05316
11.02 -1.06796
11.03 -1.08009
11.04 -1.09012
11.05 -1.0981
11.06 -1.10465
11.07 -1.11003
11.08 -1.1146
11.09 -1.11871
11.1 -1.12262
11.11 -1.12656
11.12 -1.13069
11.13 -1.13504
11.14 -1.13957
11.15 -1.14409
11.16 -1.14833
11.17 -1.15171
11.18 -1.15367
11.19 -1.15332
11.2 -1.14953
11.21 -1.14146
11.22 -1.12691
11.23 -1.10534
11.24 -1.0742
11.25 -1.03234
11.26 -0.978218
11.27 -0.909229
11.28 -0.825755
11.29 -0.724221
11.3 -0.606034
11.31 -0.46973
11.32 -0.315453
11.33 -0.145073
11.34 0.042158
11.35 0.241982
11.36 0.453277
11.37 0.671967
11.38 0.894575
11.39 1.11671
11.4 1.33437
11.41 1.54168
11.42 1.73524
11.43 1.9098
11.44 2.06079
11.45 2.18651
11.46 2.27987
11.47 2.3432
11.48 2.37136
11.49 2.36602
11.5 2.32769
11.51 2.2556
11.52 2.15563
11.53 2.02675
11.54 1.87621
11.55 1.70668
11.56 1.52313
11.57 1.33081
11.58 1.1339
11.59 0.937435
11.6 0.745718
11.61 0.562324
11.62 0.390056
11.63 0.232331
11.64 0.0889706
11.65 -0.036827
11.66 -0.147092
11.67 -0.241357
11.68 -0.320842
11.69 -0.388022
11.7 -0.443382
11.71 -0.490648
11.72 -0.531085
11.73 -0.567344
11.74 -0.601222
11.75 -0.634357
11.76 -0.667944
11.77 -0.702898
11.78 -0.739332
11.79 -0.777143
11.8 -0.815619
11.81 -0.853759
11.82 -0.889908
11.83 -0.922754
11.84 -0.950046
11.85 -0.970157
11.86 -0.981433
11.87 -0.981364
11.88 -0.969913
11.89 -0.944026
11.9 -0.904665
11.91 -0.850612
11.92 -0.781902
11.93 -0.700018
11.94 -0.60415
11.95 -0.497565
11.96 -0.38071
11.97 -0.256338
11.98 -0.126595
11.99 0.00614789
12 0.139211
12.01 0.269779
12.02 0.395584
12.03 0.513982
12.04 0.622494
12.05 0.720011
12.06 0.802978
12.07 0.87213
12.08 0.92477
12.09 0.961257
12.1 0.981489
12.11 0.984525
12.12 0.972853
12.13 0.945207
12.14 0.904786
12.15 0.852256
12.16 0.789495
12.17 0.718947
12.18 0.641782
12.19 0.560866
12.2 0.477729
12.21 0.394424
12.22 0.312463
12.23 0.233507
12.24 0.158226
12.25 0.0880753
12.26 0.0229115
12.27 -0.0368079
12.28 -0.0912271
12.29 -0.141096
12.3 -0.186483
12.31 -0.228781
12.32 -0.268515
12.33 -0.30678
12.34 -0.344361
12.35 -0.38201
12.36 -0.420198
12.37 -0.459322
12.38 -0.499277
12.39 -0.539833
12.4 -0.580356
