# xPDFsuite Configuration #
[PDF]
wavelength = 0.1432
dataformat = twotheta
inputfile = 1_1Pd_CeO2_cycle-00134.chi
backgroundfile = background-00000.chi
mode = xray
bgscale = 1.007
composition = CeO2
outputtype = gr
qmaxinst = 28.8974762299
qmin = 0.5
qmax = 27.9
rmax = 50.0
rmin = 0.0
rstep = 0.01
rpoly = 1.8657

[Misc]
inputdir = G:/SankarDec16/1Pd/Chi
savedir = D:/DATA/APS_CeO2/1Pd
backgroundfilefull = G:/SankarDec16/Background/background-00000.chi

#### start data
#S 1
#L r($\AA$)  G($\AA^{-2}$)
0 0
0.01 -0.00643654
0.02 -0.012389
0.03 -0.0173588
0.04 -0.0209705
0.05 -0.0230147
0.06 -0.023155
0.07 -0.0216145
0.08 -0.0182844
0.09 -0.0135908
0.1 -0.00782852
0.11 -0.00144877
0.12 0.00505505
0.13 0.0111305
0.14 0.0163843
0.15 0.020336
0.16 0.0227032
0.17 0.0233718
0.18 0.0221108
0.19 0.0192474
0.2 0.0147918
0.21 0.00924042
0.22 0.00295952
0.23 -0.00354448
0.24 -0.00980649
0.25 -0.0152314
0.26 -0.019535
0.27 -0.0222775
0.28 -0.0232825
0.29 -0.0225368
0.3 -0.0199257
0.31 -0.0158651
0.32 -0.0104841
0.33 -0.00432658
0.34 0.002187
0.35 0.00851829
0.36 0.0142523
0.37 0.0187791
0.38 0.0219365
0.39 0.0233463
0.4 0.0229464
0.41 0.0208253
0.42 0.01699
0.43 0.0119263
0.44 0.00587597
0.45 -0.000594713
0.46 -0.00703063
0.47 -0.0128863
0.48 -0.0178166
0.49 -0.0212252
0.5 -0.0230796
0.51 -0.0230812
0.52 -0.0212853
0.53 -0.0178782
0.54 -0.0129888
0.55 -0.00715003
0.56 -0.000705516
0.57 0.0057823
0.58 0.0118451
0.59 0.0169555
0.6 0.0208544
0.61 0.0229874
0.62 0.0234533
0.63 0.0220472
0.64 0.0189395
0.65 0.0144061
0.66 0.00869197
0.67 0.00235248
0.68 -0.00418304
0.69 -0.0103819
0.7 -0.0157846
0.71 -0.0199063
0.72 -0.0225865
0.73 -0.0233381
0.74 -0.0223866
0.75 -0.0196302
0.76 -0.0153461
0.77 -0.00988567
0.78 -0.00359791
0.79 0.00296636
0.8 0.0093145
0.81 0.0149692
0.82 0.0195039
0.83 0.0225007
0.84 0.0239057
0.85 0.0233257
0.86 0.0211011
0.87 0.017239
0.88 0.0121093
0.89 0.00612012
0.9 -0.000294773
0.91 -0.00662084
0.92 -0.0123322
0.93 -0.017038
0.94 -0.0203749
0.95 -0.022026
0.96 -0.0220555
0.97 -0.020208
0.98 -0.0169275
0.99 -0.0123535
1 -0.00694489
1.01 -0.0011555
1.02 0.00448973
1.03 0.00954793
1.04 0.0134615
1.05 0.0159603
1.06 0.0167646
1.07 0.0156853
1.08 0.012935
1.09 0.00842733
1.1 0.00274084
1.11 -0.00381395
1.12 -0.0106499
1.13 -0.0172337
1.14 -0.0228799
1.15 -0.0271985
1.16 -0.0295086
1.17 -0.0296319
1.18 -0.0273064
1.19 -0.0223905
1.2 -0.015247
1.21 -0.00581414
1.22 0.00513495
1.23 0.017202
1.24 0.0296569
1.25 0.0418475
1.26 0.0529462
1.27 0.0624704
1.28 0.0695812
1.29 0.0740191
1.3 0.0754034
1.31 0.0734472
1.32 0.0684903
1.33 0.0602117
1.34 0.0494343
1.35 0.0363612
1.36 0.0216634
1.37 0.00597674
1.38 -0.0100579
1.39 -0.0257879
1.4 -0.0405273
1.41 -0.0538151
1.42 -0.0651944
1.43 -0.074228
1.44 -0.0809554
1.45 -0.0848572
1.46 -0.0863612
1.47 -0.0853259
1.48 -0.0820144
1.49 -0.0767272
1.5 -0.0695583
1.51 -0.0610174
1.52 -0.0512214
1.53 -0.0405737
1.54 -0.0293004
1.55 -0.0176525
1.56 -0.00587409
1.57 0.00580404
1.58 0.0171839
1.59 0.0280212
1.6 0.0380874
1.61 0.0471949
1.62 0.0549551
1.63 0.0612985
1.64 0.0657565
1.65 0.068251
1.66 0.0685302
1.67 0.066336
1.68 0.0618353
1.69 0.0546232
1.7 0.0451997
1.71 0.0335495
1.72 0.0200777
1.73 0.00524055
1.74 -0.0105286
1.75 -0.0265686
1.76 -0.0422658
1.77 -0.0570159
1.78 -0.0702473
1.79 -0.0813445
1.8 -0.0901686
1.81 -0.0960335
1.82 -0.0992919
1.83 -0.0997742
1.84 -0.0978424
1.85 -0.0939824
1.86 -0.0886288
1.87 -0.0826023
1.88 -0.0765826
1.89 -0.0713285
1.9 -0.0675109
1.91 -0.0658391
1.92 -0.066497
1.93 -0.0701873
1.94 -0.0765041
1.95 -0.0855241
1.96 -0.0967339
1.97 -0.109486
1.98 -0.123051
1.99 -0.136463
2 -0.148651
2.01 -0.158691
2.02 -0.165631
2.03 -0.168424
2.04 -0.166886
2.05 -0.159734
2.06 -0.147575
2.07 -0.12994
2.08 -0.107263
2.09 -0.0801851
2.1 -0.0489742
2.11 -0.0148989
2.12 0.0215328
2.13 0.059228
2.14 0.0974682
2.15 0.135516
2.16 0.172919
2.17 0.209173
2.18 0.244313
2.19 0.278283
2.2 0.311351
2.21 0.343866
2.22 0.37623
2.23 0.408847
2.24 0.442112
2.25 0.476174
2.26 0.511055
2.27 0.546522
2.28 0.582059
2.29 0.61677
2.3 0.649732
2.31 0.679519
2.32 0.704677
2.33 0.724022
2.34 0.735227
2.35 0.738065
2.36 0.730188
2.37 0.711715
2.38 0.682001
2.39 0.640675
2.4 0.589407
2.41 0.527695
2.42 0.458584
2.43 0.383263
2.44 0.304318
2.45 0.224142
2.46 0.145474
2.47 0.070432
2.48 0.00189318
2.49 -0.0587392
2.5 -0.109888
2.51 -0.150135
2.52 -0.180262
2.53 -0.198797
2.54 -0.208247
2.55 -0.209048
2.56 -0.203311
2.57 -0.193185
2.58 -0.180706
2.59 -0.168273
2.6 -0.158099
2.61 -0.151859
2.62 -0.150985
2.63 -0.156732
2.64 -0.168792
2.65 -0.188078
2.66 -0.212857
2.67 -0.242516
2.68 -0.275291
2.69 -0.309428
2.7 -0.342928
2.71 -0.37413
2.72 -0.40095
2.73 -0.422362
2.74 -0.437341
2.75 -0.445112
2.76 -0.446456
2.77 -0.440935
2.78 -0.430607
2.79 -0.416454
2.8 -0.40046
2.81 -0.384443
2.82 -0.370582
2.83 -0.360265
2.84 -0.355548
2.85 -0.357066
2.86 -0.365522
2.87 -0.381255
2.88 -0.403072
2.89 -0.430834
2.9 -0.46219
2.91 -0.49567
2.92 -0.529
2.93 -0.560252
2.94 -0.58689
2.95 -0.607852
2.96 -0.620921
2.97 -0.625897
2.98 -0.622332
2.99 -0.610249
3 -0.591349
3.01 -0.566152
3.02 -0.537471
3.03 -0.507157
3.04 -0.477789
3.05 -0.451449
3.06 -0.430892
3.07 -0.417013
3.08 -0.412027
3.09 -0.41582
3.1 -0.428565
3.11 -0.449871
3.12 -0.477695
3.13 -0.511061
3.14 -0.546966
3.15 -0.58326
3.16 -0.617279
3.17 -0.64703
3.18 -0.669816
3.19 -0.685205
3.2 -0.691377
3.21 -0.689079
3.22 -0.678781
3.23 -0.661718
3.24 -0.640404
3.25 -0.616992
3.26 -0.594575
3.27 -0.576082
3.28 -0.564373
3.29 -0.561308
3.3 -0.569905
3.31 -0.589619
3.32 -0.622132
3.33 -0.665555
3.34 -0.718559
3.35 -0.778784
3.36 -0.842658
3.37 -0.906654
3.38 -0.966946
3.39 -1.01949
3.4 -1.0608
3.41 -1.08883
3.42 -1.09988
3.43 -1.09537
3.44 -1.07349
3.45 -1.0373
3.46 -0.988961
3.47 -0.931971
3.48 -0.871118
3.49 -0.811218
3.5 -0.756954
3.51 -0.713291
3.52 -0.684097
3.53 -0.671213
3.54 -0.67799
3.55 -0.701503
3.56 -0.741684
3.57 -0.792874
3.58 -0.849778
3.59 -0.904358
3.6 -0.949049
3.61 -0.971255
3.62 -0.964423
3.63 -0.916463
3.64 -0.818885
3.65 -0.667275
3.66 -0.449347
3.67 -0.171036
3.68 0.175933
3.69 0.58273
3.7 1.04501
3.71 1.55526
3.72 2.09815
3.73 2.66332
3.74 3.232
3.75 3.78805
3.76 4.31321
3.77 4.79356
3.78 5.20605
3.79 5.54651
3.8 5.79325
3.81 5.94553
3.82 5.99675
3.83 5.94093
3.84 5.7911
3.85 5.53784
3.86 5.20487
3.87 4.79641
3.88 4.32923
3.89 3.82021
3.9 3.28319
3.91 2.7374
3.92 2.19835
3.93 1.68059
3.94 1.19653
3.95 0.759283
3.96 0.371087
3.97 0.0460741
3.98 -0.222549
3.99 -0.430096
4 -0.581022
4.01 -0.682498
4.02 -0.736365
4.03 -0.756228
4.04 -0.746387
4.05 -0.718205
4.06 -0.679036
4.07 -0.636674
4.08 -0.597166
4.09 -0.566711
4.1 -0.547491
4.11 -0.542432
4.12 -0.55176
4.13 -0.574027
4.14 -0.608468
4.15 -0.650767
4.16 -0.698332
4.17 -0.746819
4.18 -0.792705
4.19 -0.83196
4.2 -0.86253
4.21 -0.880187
4.22 -0.885113
4.23 -0.875303
4.24 -0.850947
4.25 -0.813276
4.26 -0.762098
4.27 -0.700757
4.28 -0.629962
4.29 -0.552694
4.3 -0.470823
4.31 -0.386354
4.32 -0.301142
4.33 -0.216729
4.34 -0.134117
4.35 -0.0542354
4.36 0.0224399
4.37 0.0958363
4.38 0.165478
4.39 0.231864
4.4 0.294561
4.41 0.353796
4.42 0.409306
4.43 0.460484
4.44 0.50726
4.45 0.548018
4.46 0.5827
4.47 0.609779
4.48 0.628312
4.49 0.637841
4.5 0.636393
4.51 0.624874
4.52 0.601649
4.53 0.567757
4.54 0.523422
4.55 0.469072
4.56 0.406801
4.57 0.336946
4.58 0.262276
4.59 0.184177
4.6 0.104782
4.61 0.0258545
4.62 -0.0505765
4.63 -0.123417
4.64 -0.190916
4.65 -0.252603
4.66 -0.307892
4.67 -0.356314
4.68 -0.398745
4.69 -0.43471
4.7 -0.465814
4.71 -0.492461
4.72 -0.515739
4.73 -0.536653
4.74 -0.555887
4.75 -0.574332
4.76 -0.592427
4.77 -0.610525
4.78 -0.628716
4.79 -0.646888
4.8 -0.664797
4.81 -0.681944
4.82 -0.697965
4.83 -0.71229
4.84 -0.72448
4.85 -0.73433
4.86 -0.741338
4.87 -0.745852
4.88 -0.747703
4.89 -0.747447
4.9 -0.745505
4.91 -0.742466
4.92 -0.739054
4.93 -0.736003
4.94 -0.733922
4.95 -0.733465
4.96 -0.73509
4.97 -0.738961
4.98 -0.745474
4.99 -0.75421
5 -0.765208
5.01 -0.777879
5.02 -0.79178
5.03 -0.806347
5.04 -0.820991
5.05 -0.835111
5.06 -0.848317
5.07 -0.860181
5.08 -0.870472
5.09 -0.879168
5.1 -0.886072
5.11 -0.891492
5.12 -0.895339
5.13 -0.897818
5.14 -0.898899
5.15 -0.898344
5.16 -0.896012
5.17 -0.890939
5.18 -0.882666
5.19 -0.869839
5.2 -0.851111
5.21 -0.825422
5.22 -0.790123
5.23 -0.74499
5.24 -0.687185
5.25 -0.616461
5.26 -0.531815
5.27 -0.432166
5.28 -0.319286
5.29 -0.191958
5.3 -0.0537803
5.31 0.0939336
5.32 0.247796
5.33 0.404256
5.34 0.559005
5.35 0.708136
5.36 0.846185
5.37 0.96942
5.38 1.07369
5.39 1.15396
5.4 1.21
5.41 1.23524
5.42 1.23271
5.43 1.19981
5.44 1.13796
5.45 1.05035
5.46 0.937092
5.47 0.805072
5.48 0.656339
5.49 0.497202
5.5 0.332212
5.51 0.166682
5.52 0.00500091
5.53 -0.147225
5.54 -0.287573
5.55 -0.412109
5.56 -0.518794
5.57 -0.607414
5.58 -0.675389
5.59 -0.725944
5.6 -0.758085
5.61 -0.775193
5.62 -0.779186
5.63 -0.772241
5.64 -0.757867
5.65 -0.737665
5.66 -0.714673
5.67 -0.690457
5.68 -0.666525
5.69 -0.643641
5.7 -0.622294
5.71 -0.602102
5.72 -0.582571
5.73 -0.56267
5.74 -0.541327
5.75 -0.517139
5.76 -0.489402
5.77 -0.456502
5.78 -0.418586
5.79 -0.375078
5.8 -0.326409
5.81 -0.273563
5.82 -0.217463
5.83 -0.160116
5.84 -0.103417
5.85 -0.0495721
5.86 -0.000712533
5.87 0.0405075
5.88 0.0731421
5.89 0.0939381
5.9 0.103367
5.91 0.0998443
5.92 0.0834849
5.93 0.0553944
5.94 0.0152931
5.95 -0.0338084
5.96 -0.0911534
5.97 -0.153898
5.98 -0.220022
5.99 -0.287216
6 -0.353484
6.01 -0.416603
6.02 -0.475543
6.03 -0.528934
6.04 -0.576225
6.05 -0.617613
6.06 -0.652706
6.07 -0.682974
6.08 -0.708768
6.09 -0.731603
6.1 -0.75255
6.11 -0.772783
6.12 -0.793278
6.13 -0.814938
6.14 -0.838065
6.15 -0.86291
6.16 -0.889232
6.17 -0.916499
6.18 -0.94397
6.19 -0.970741
6.2 -0.995673
6.21 -1.01789
6.22 -1.03657
6.23 -1.0508
6.24 -1.06073
6.25 -1.06562
6.26 -1.06645
6.27 -1.0635
6.28 -1.05776
6.29 -1.0503
6.3 -1.04212
6.31 -1.0342
6.32 -1.0273
6.33 -1.02161
6.34 -1.0169
6.35 -1.01219
6.36 -1.00602
6.37 -0.995435
6.38 -0.97794
6.39 -0.949316
6.4 -0.905155
6.41 -0.842197
6.42 -0.752882
6.43 -0.636599
6.44 -0.485789
6.45 -0.299891
6.46 -0.0765722
6.47 0.186961
6.48 0.485762
6.49 0.823019
6.5 1.18947
6.51 1.58198
6.52 1.99237
6.53 2.4119
6.54 2.8307
6.55 3.23903
6.56 3.62437
6.57 3.97739
6.58 4.28825
6.59 4.54447
6.6 4.74479
6.61 4.87297
6.62 4.93457
6.63 4.92213
6.64 4.83684
6.65 4.68488
6.66 4.46313
6.67 4.18718
6.68 3.85851
6.69 3.49106
6.7 3.09416
6.71 2.67846
6.72 2.25589
6.73 1.83734
6.74 1.43207
6.75 1.04967
6.76 0.69778
6.77 0.37995
6.78 0.105084
6.79 -0.130427
6.8 -0.320842
6.81 -0.470582
6.82 -0.581367
6.83 -0.654942
6.84 -0.699156
6.85 -0.7146
6.86 -0.71022
6.87 -0.689305
6.88 -0.657246
6.89 -0.618568
6.9 -0.576652
6.91 -0.534737
6.92 -0.495102
6.93 -0.459083
6.94 -0.427438
6.95 -0.400629
6.96 -0.37792
6.97 -0.359387
6.98 -0.343794
6.99 -0.330724
7 -0.319554
7.01 -0.309874
7.02 -0.301816
7.03 -0.295406
7.04 -0.291431
7.05 -0.290535
7.06 -0.293649
7.07 -0.302142
7.08 -0.316333
7.09 -0.33811
7.1 -0.367035
7.11 -0.403917
7.12 -0.448475
7.13 -0.499737
7.14 -0.557362
7.15 -0.619119
7.16 -0.683698
7.17 -0.748791
7.18 -0.812413
7.19 -0.872127
7.2 -0.926571
7.21 -0.972969
7.22 -1.0111
7.23 -1.03949
7.24 -1.05795
7.25 -1.06725
7.26 -1.06713
7.27 -1.06005
7.28 -1.04684
7.29 -1.02996
7.3 -1.01126
7.31 -0.992889
7.32 -0.976478
7.33 -0.964037
7.34 -0.956077
7.35 -0.953427
7.36 -0.955886
7.37 -0.962475
7.38 -0.972132
7.39 -0.982578
7.4 -0.991398
7.41 -0.995838
7.42 -0.993122
7.43 -0.979585
7.44 -0.953908
7.45 -0.911406
7.46 -0.85245
7.47 -0.774556
7.48 -0.67743
7.49 -0.562478
7.5 -0.428766
7.51 -0.280734
7.52 -0.119375
7.53 0.0508083
7.54 0.226282
7.55 0.402647
7.56 0.575856
7.57 0.740496
7.58 0.893556
7.59 1.03044
7.6 1.14777
7.61 1.24423
7.62 1.31488
7.63 1.36207
7.64 1.38229
7.65 1.3778
7.66 1.34932
7.67 1.29723
7.68 1.22602
7.69 1.13537
7.7 1.0307
7.71 0.913876
7.72 0.788418
7.73 0.657675
7.74 0.524478
7.75 0.391935
7.76 0.262943
7.77 0.139828
7.78 0.0246924
7.79 -0.0798639
7.8 -0.173518
7.81 -0.253005
7.82 -0.319195
7.83 -0.370383
7.84 -0.406329
7.85 -0.427892
7.86 -0.433569
7.87 -0.42615
7.88 -0.405003
7.89 -0.372542
7.9 -0.330256
7.91 -0.279809
7.92 -0.224134
7.93 -0.165155
7.94 -0.105928
7.95 -0.0490306
7.96 0.00269244
7.97 0.0472755
7.98 0.0812024
7.99 0.104099
8 0.113023
8.01 0.10798
8.02 0.0884999
8.03 0.053977
8.04 0.00676912
8.05 -0.0536578
8.06 -0.123682
8.07 -0.201819
8.08 -0.285181
8.09 -0.370967
8.1 -0.456317
8.11 -0.538778
8.12 -0.615539
8.13 -0.684969
8.14 -0.745667
8.15 -0.796156
8.16 -0.837313
8.17 -0.86801
8.18 -0.890543
8.19 -0.905637
8.2 -0.915251
8.21 -0.921473
8.22 -0.926126
8.23 -0.93117
8.24 -0.938216
8.25 -0.948192
8.26 -0.961498
8.27 -0.97799
8.28 -0.99635
8.29 -1.01481
8.3 -1.03076
8.31 -1.04088
8.32 -1.04122
8.33 -1.02875
8.34 -0.997137
8.35 -0.945287
8.36 -0.867014
8.37 -0.761247
8.38 -0.625987
8.39 -0.458482
8.4 -0.2625
8.41 -0.0351477
8.42 0.216609
8.43 0.490634
8.44 0.781031
8.45 1.08118
8.46 1.38435
8.47 1.68295
8.48 1.96844
8.49 2.23376
8.5 2.47206
8.51 2.67443
8.52 2.83973
8.53 2.95696
8.54 3.02932
8.55 3.05185
8.56 3.02481
8.57 2.9524
8.58 2.8318
8.59 2.67344
8.6 2.4778
8.61 2.25371
8.62 2.00711
8.63 1.74431
8.64 1.47335
8.65 1.20043
8.66 0.932078
8.67 0.674094
8.68 0.431648
8.69 0.207347
8.7 0.00694639
8.71 -0.17101
8.72 -0.322735
8.73 -0.450094
8.74 -0.553763
8.75 -0.634071
8.76 -0.695516
8.77 -0.737901
8.78 -0.766523
8.79 -0.783187
8.8 -0.791136
8.81 -0.793397
8.82 -0.792095
8.83 -0.7898
8.84 -0.78824
8.85 -0.788821
8.86 -0.792465
8.87 -0.800012
8.88 -0.811235
8.89 -0.826623
8.9 -0.845279
8.91 -0.866908
8.92 -0.890742
8.93 -0.91596
8.94 -0.941856
8.95 -0.967633
8.96 -0.992589
8.97 -1.0162
8.98 -1.03806
8.99 -1.05773
9 -1.0753
9.01 -1.09038
9.02 -1.10337
9.03 -1.11424
9.04 -1.12322
9.05 -1.13061
9.06 -1.13643
9.07 -1.14102
9.08 -1.1443
9.09 -1.14632
9.1 -1.14695
9.11 -1.14579
9.12 -1.14268
9.13 -1.13672
9.14 -1.12767
9.15 -1.11465
9.16 -1.09691
9.17 -1.07411
9.18 -1.04487
9.19 -1.00957
9.2 -0.96709
9.21 -0.917761
9.22 -0.861657
9.23 -0.79878
9.24 -0.730484
9.25 -0.656979
9.26 -0.580195
9.27 -0.501354
9.28 -0.422343
9.29 -0.344862
9.3 -0.271352
9.31 -0.203126
9.32 -0.142756
9.33 -0.0914531
9.34 -0.0505531
9.35 -0.0218917
9.36 -0.00472031
9.37 -0.00113171
9.38 -0.00912725
9.39 -0.0288474
9.4 -0.0589594
9.41 -0.0974033
9.42 -0.143142
9.43 -0.193147
9.44 -0.245641
9.45 -0.298086
9.46 -0.348463
9.47 -0.394451
9.48 -0.435023
9.49 -0.467882
9.5 -0.493178
9.51 -0.510021
9.52 -0.518583
9.53 -0.519907
9.54 -0.514144
9.55 -0.503539
9.56 -0.489101
9.57 -0.472883
9.58 -0.456507
9.59 -0.441829
9.6 -0.430023
9.61 -0.422933
9.62 -0.420871
9.63 -0.424729
9.64 -0.43467
9.65 -0.450138
9.66 -0.4713
9.67 -0.496627
9.68 -0.525651
9.69 -0.557013
9.7 -0.589723
9.71 -0.622756
9.72 -0.655307
9.73 -0.686579
9.74 -0.716324
9.75 -0.74426
9.76 -0.770424
9.77 -0.795089
9.78 -0.818336
9.79 -0.840575
9.8 -0.861771
9.81 -0.881824
9.82 -0.900257
9.83 -0.915897
9.84 -0.927728
9.85 -0.932907
9.86 -0.929724
9.87 -0.914659
9.88 -0.884056
9.89 -0.835616
9.9 -0.762629
9.91 -0.665038
9.92 -0.536408
9.93 -0.375981
9.94 -0.181933
9.95 0.0489337
9.96 0.312333
9.97 0.611816
9.98 0.939963
9.99 1.29475
10 1.67013
10.01 2.05877
10.02 2.45378
10.03 2.84628
10.04 3.22691
10.05 3.58711
10.06 3.91879
10.07 4.21097
10.08 4.46144
10.09 4.65669
10.1 4.79896
10.11 4.88153
10.12 4.90306
10.13 4.86781
10.14 4.77036
10.15 4.62289
10.16 4.42444
10.17 4.18504
10.18 3.91145
10.19 3.6103
10.2 3.29217
10.21 2.96347
10.22 2.63345
10.23 2.30907
10.24 1.99734
10.25 1.70234
10.26 1.43132
10.27 1.18388
10.28 0.964827
10.29 0.772969
10.3 0.607897
10.31 0.469795
10.32 0.353663
10.33 0.259907
10.34 0.182513
10.35 0.11934
10.36 0.0666269
10.37 0.0207231
10.38 -0.0208826
10.39 -0.0612907
10.4 -0.102556
10.41 -0.146349
10.42 -0.193717
10.43 -0.245605
10.44 -0.301666
10.45 -0.362313
10.46 -0.426406
10.47 -0.493395
10.48 -0.562189
10.49 -0.631673
10.5 -0.700628
10.51 -0.768038
10.52 -0.832603
10.53 -0.893461
10.54 -0.949788
10.55 -1.00042
10.56 -1.04539
10.57 -1.08321
10.58 -1.11435
10.59 -1.13807
10.6 -1.15416
10.61 -1.16306
10.62 -1.16379
10.63 -1.15763
10.64 -1.14399
10.65 -1.12376
10.66 -1.09741
10.67 -1.06524
10.68 -1.0286
10.69 -0.987727
10.7 -0.94413
10.71 -0.898628
10.72 -0.852415
10.73 -0.806545
10.74 -0.762328
10.75 -0.720539
10.76 -0.682466
10.77 -0.648755
10.78 -0.620054
10.79 -0.5973
10.8 -0.580154
10.81 -0.569708
10.82 -0.565137
10.83 -0.566689
10.84 -0.574035
10.85 -0.586412
10.86 -0.603948
10.87 -0.625385
10.88 -0.650599
10.89 -0.678721
10.9 -0.709208
10.91 -0.741598
10.92 -0.775209
10.93 -0.809704
10.94 -0.844532
10.95 -0.879317
10.96 -0.913632
10.97 -0.947164
10.98 -0.979364
10.99 -1.01005
11 -1.03865
11.01 -1.0649
11.02 -1.08847
11.03 -1.10883
11.04 -1.1261
11.05 -1.1396
11.06 -1.14972
11.07 -1.15631
11.08 -1.15956
11.09 -1.16002
11.1 -1.15783
11.11 -1.15392
11.12 -1.14876
11.13 -1.14313
11.14 -1.13767
11.15 -1.13298
11.16 -1.12935
11.17 -1.1271
11.18 -1.12589
11.19 -1.12528
11.2 -1.12429
11.21 -1.12175
11.22 -1.11549
11.23 -1.10404
11.24 -1.08435
11.25 -1.05426
11.26 -1.01137
11.27 -0.95193
11.28 -0.87567
11.29 -0.777737
11.3 -0.659326
11.31 -0.518304
11.32 -0.354626
11.33 -0.170576
11.34 0.0347474
11.35 0.255827
11.36 0.491001
11.37 0.734872
11.38 0.98282
11.39 1.22902
11.4 1.46844
11.41 1.69355
11.42 1.90038
11.43 2.08265
11.44 2.2352
11.45 2.35656
11.46 2.43891
11.47 2.48594
11.48 2.49261
11.49 2.46189
11.5 2.39539
11.51 2.2936
11.52 2.16377
11.53 2.00628
11.54 1.82944
11.55 1.63706
11.56 1.43498
11.57 1.22864
11.58 1.02319
11.59 0.822831
11.6 0.632144
11.61 0.453825
11.62 0.289972
11.63 0.143252
11.64 0.0123198
11.65 -0.100468
11.66 -0.198129
11.67 -0.280993
11.68 -0.350982
11.69 -0.410851
11.7 -0.461675
11.71 -0.506817
11.72 -0.547658
11.73 -0.586327
11.74 -0.624161
11.75 -0.662259
11.76 -0.701134
11.77 -0.741077
11.78 -0.781681
11.79 -0.822354
11.8 -0.862027
11.81 -0.899661
11.82 -0.933337
11.83 -0.962154
11.84 -0.983946
11.85 -0.997573
11.86 -1.00179
11.87 -0.994575
11.88 -0.976307
11.89 -0.944411
11.9 -0.90005
11.91 -0.842233
11.92 -0.771035
11.93 -0.687758
11.94 -0.591473
11.95 -0.484975
11.96 -0.368329
11.97 -0.243787
11.98 -0.113062
11.99 0.0220047
12 0.158882
12.01 0.295211
12.02 0.42853
12.03 0.556177
12.04 0.675343
12.05 0.784388
12.06 0.879172
12.07 0.959684
12.08 1.02237
12.09 1.06681
12.1 1.09224
12.11 1.09677
12.12 1.08288
12.13 1.04837
12.14 0.996957
12.15 0.929209
12.16 0.847465
12.17 0.755029
12.18 0.653647
12.19 0.547498
12.2 0.439136
12.21 0.331833
12.22 0.228141
12.23 0.131037
12.24 0.0415755
12.25 -0.0374488
12.26 -0.106421
12.27 -0.16446
12.28 -0.211888
12.29 -0.250246
12.3 -0.279773
12.31 -0.303375
12.32 -0.322341
12.33 -0.339136
12.34 -0.355663
12.35 -0.373999
12.36 -0.395364
12.37 -0.421492
12.38 -0.45245
12.39 -0.488612
12.4 -0.529454
