# xPDFsuite Configuration #
[PDF]
wavelength = 0.1432
dataformat = twotheta
inputfile = 1_1Pd_CeO2_cycle-00030.chi
backgroundfile = background-00000.chi
mode = xray
bgscale = 1.007
composition = CeO2
outputtype = gr
qmaxinst = 28.8974762299
qmin = 0.5
qmax = 27.9
rmax = 50.0
rmin = 0.0
rstep = 0.01
rpoly = 1.8657

[Misc]
inputdir = G:/SankarDec16/1Pd/Chi
savedir = D:/DATA/APS_CeO2/1Pd
backgroundfilefull = G:/SankarDec16/Background/background-00000.chi

#### start data
#S 1
#L r($\AA$)  G($\AA^{-2}$)
0 0
0.01 -0.00747836
0.02 -0.0143929
0.03 -0.020163
0.04 -0.0243516
0.05 -0.0267155
0.06 -0.0268638
0.07 -0.0250573
0.08 -0.0211708
0.09 -0.0157018
0.1 -0.00899468
0.11 -0.00157654
0.12 0.00597836
0.13 0.0130253
0.14 0.0191083
0.15 0.0236687
0.16 0.0263799
0.17 0.027112
0.18 0.0255995
0.19 0.0222264
0.2 0.0170089
0.21 0.0105277
0.22 0.00321167
0.23 -0.00434712
0.24 -0.0116084
0.25 -0.0178777
0.26 -0.0228286
0.27 -0.0259515
0.28 -0.0270461
0.29 -0.0261022
0.3 -0.0229928
0.31 -0.0182066
0.32 -0.0119011
0.33 -0.00471223
0.34 0.00286709
0.35 0.010208
0.36 0.0168304
0.37 0.0220235
0.38 0.0256063
0.39 0.0271431
0.4 0.0265697
0.41 0.0239968
0.42 0.019442
0.43 0.0134762
0.44 0.00639038
0.45 -0.00115429
0.46 -0.00862476
0.47 -0.0153851
0.48 -0.0210392
0.49 -0.0248941
0.5 -0.0269233
0.51 -0.0267866
0.52 -0.0245597
0.53 -0.0204689
0.54 -0.014677
0.55 -0.00780932
0.56 -0.000276903
0.57 0.00726523
0.58 0.0142699
0.59 0.0201244
0.6 0.0245364
0.61 0.0268643
0.62 0.0272383
0.63 0.0254305
0.64 0.0216534
0.65 0.0162391
0.66 0.00948795
0.67 0.00205
0.68 -0.00556302
0.69 -0.0127337
0.7 -0.0189273
0.71 -0.023584
0.72 -0.0265295
0.73 -0.0272052
0.74 -0.0258918
0.75 -0.022485
0.76 -0.017324
0.77 -0.0108298
0.78 -0.00342611
0.79 0.00424486
0.8 0.0115973
0.81 0.0180819
0.82 0.0232046
0.83 0.0264872
0.84 0.0278833
0.85 0.0269473
0.86 0.0240959
0.87 0.019355
0.88 0.0131729
0.89 0.00603706
0.9 -0.00152932
0.91 -0.00892848
0.92 -0.0155363
0.93 -0.0209069
0.94 -0.0246215
0.95 -0.026321
0.96 -0.0260976
0.97 -0.0236658
0.98 -0.0195622
0.99 -0.0139639
1 -0.00741911
1.01 -0.000464217
1.02 0.00627961
1.03 0.0123013
1.04 0.0169503
1.05 0.0199238
1.06 0.0209064
1.07 0.0196921
1.08 0.0165413
1.09 0.0113702
1.1 0.00485836
1.11 -0.00262427
1.12 -0.0103959
1.13 -0.0178436
1.14 -0.0241828
1.15 -0.0289822
1.16 -0.0314799
1.17 -0.0314989
1.18 -0.0287699
1.19 -0.023172
1.2 -0.0151426
1.21 -0.00467068
1.22 0.00735787
1.23 0.0204499
1.24 0.0337676
1.25 0.0465773
1.26 0.0579329
1.27 0.0673411
1.28 0.0738752
1.29 0.0773136
1.3 0.0772894
1.31 0.0735645
1.32 0.0665899
1.33 0.0561239
1.34 0.0431349
1.35 0.0279501
1.36 0.0113736
1.37 -0.00586121
1.38 -0.0229661
1.39 -0.039281
1.4 -0.0540064
1.41 -0.0667251
1.42 -0.0769863
1.43 -0.0843927
1.44 -0.0891078
1.45 -0.0906643
1.46 -0.0896564
1.47 -0.0860487
1.48 -0.0802383
1.49 -0.0726265
1.5 -0.0634357
1.51 -0.0532065
1.52 -0.0421525
1.53 -0.0306585
1.54 -0.0189544
1.55 -0.00727016
1.56 0.00423758
1.57 0.0153642
1.58 0.0260305
1.59 0.0360545
1.6 0.0452918
1.61 0.0536143
1.62 0.0606947
1.63 0.0664789
1.64 0.0705268
1.65 0.0727383
1.66 0.0728408
1.67 0.0705372
1.68 0.065945
1.69 0.0586041
1.7 0.0489725
1.71 0.0369877
1.72 0.023028
1.73 0.0075445
1.74 -0.00904179
1.75 -0.0260274
1.76 -0.042777
1.77 -0.0586259
1.78 -0.07295
1.79 -0.0850682
1.8 -0.0947987
1.81 -0.101382
1.82 -0.105165
1.83 -0.105943
1.84 -0.104089
1.85 -0.100116
1.86 -0.0944839
1.87 -0.0880848
1.88 -0.0816515
1.89 -0.0760145
1.9 -0.0719035
1.91 -0.0700881
1.92 -0.0707679
1.93 -0.0746896
1.94 -0.0814041
1.95 -0.0909669
1.96 -0.102794
1.97 -0.116158
1.98 -0.130217
1.99 -0.143923
2 -0.156066
2.01 -0.165656
2.02 -0.171663
2.03 -0.172976
2.04 -0.169459
2.05 -0.15978
2.06 -0.144704
2.07 -0.123839
2.08 -0.0977897
2.09 -0.0673673
2.1 -0.0330649
2.11 0.00369344
2.12 0.0421424
2.13 0.0810769
2.14 0.119637
2.15 0.15696
2.16 0.192676
2.17 0.226158
2.18 0.257699
2.19 0.287321
2.2 0.315537
2.21 0.342946
2.22 0.370238
2.23 0.398077
2.24 0.42719
2.25 0.457922
2.26 0.490509
2.27 0.524912
2.28 0.560557
2.29 0.596748
2.3 0.632277
2.31 0.665673
2.32 0.695215
2.33 0.719444
2.34 0.735738
2.35 0.743541
2.36 0.740159
2.37 0.725454
2.38 0.698534
2.39 0.658791
2.4 0.607919
2.41 0.545181
2.42 0.473887
2.43 0.395246
2.44 0.312097
2.45 0.227106
2.46 0.14329
2.47 0.0631081
2.48 -0.0102236
2.49 -0.0750276
2.5 -0.129472
2.51 -0.171887
2.52 -0.203052
2.53 -0.22124
2.54 -0.229189
2.55 -0.227323
2.56 -0.217961
2.57 -0.203491
2.58 -0.18616
2.59 -0.168689
2.6 -0.153555
2.61 -0.142689
2.62 -0.137738
2.63 -0.140172
2.64 -0.14971
2.65 -0.16747
2.66 -0.191569
2.67 -0.221421
2.68 -0.255127
2.69 -0.290779
2.7 -0.326265
2.71 -0.359712
2.72 -0.388912
2.73 -0.412693
2.74 -0.429937
2.75 -0.439798
2.76 -0.443056
2.77 -0.439261
2.78 -0.430547
2.79 -0.417953
2.8 -0.403552
2.81 -0.389233
2.82 -0.377254
2.83 -0.369012
2.84 -0.366584
2.85 -0.370535
2.86 -0.381487
2.87 -0.399627
2.88 -0.423621
2.89 -0.453066
2.9 -0.485486
2.91 -0.519159
2.92 -0.551661
2.93 -0.580997
2.94 -0.604447
2.95 -0.621131
2.96 -0.628787
2.97 -0.627502
2.98 -0.617054
2.99 -0.597801
3 -0.571809
3.01 -0.540073
3.02 -0.505729
3.03 -0.471078
3.04 -0.439021
3.05 -0.411794
3.06 -0.392527
3.07 -0.381863
3.08 -0.382189
3.09 -0.392989
3.1 -0.41417
3.11 -0.444929
3.12 -0.482675
3.13 -0.525889
3.14 -0.571029
3.15 -0.61537
3.16 -0.655768
3.17 -0.689957
3.18 -0.71472
3.19 -0.729827
3.2 -0.733173
3.21 -0.725898
3.22 -0.708715
3.23 -0.683251
3.24 -0.65264
3.25 -0.619543
3.26 -0.5877
3.27 -0.560632
3.28 -0.541738
3.29 -0.533207
3.3 -0.538597
3.31 -0.557222
3.32 -0.591056
3.33 -0.637853
3.34 -0.696057
3.35 -0.762928
3.36 -0.834297
3.37 -0.906145
3.38 -0.974028
3.39 -1.03335
3.4 -1.08011
3.41 -1.112
3.42 -1.12484
3.43 -1.12022
3.44 -1.09615
3.45 -1.05606
3.46 -1.00241
3.47 -0.939122
3.48 -0.871558
3.49 -0.805101
3.5 -0.744955
3.51 -0.696639
3.52 -0.664431
3.53 -0.65036
3.54 -0.658143
3.55 -0.684549
3.56 -0.729574
3.57 -0.787045
3.58 -0.851267
3.59 -0.913632
3.6 -0.965983
3.61 -0.995004
3.62 -0.993696
3.63 -0.949374
3.64 -0.853205
3.65 -0.700687
3.66 -0.47924
3.67 -0.195288
3.68 0.15938
3.69 0.575247
3.7 1.04741
3.71 1.56765
3.72 2.11993
3.73 2.69301
3.74 3.2677
3.75 3.82719
3.76 4.35293
3.77 4.83101
3.78 5.23814
3.79 5.57081
3.8 5.80756
3.81 5.94854
3.82 5.98785
3.83 5.92047
3.84 5.76021
3.85 5.49879
3.86 5.16032
3.87 4.74982
3.88 4.28435
3.89 3.78069
3.9 3.25293
3.91 2.71936
3.92 2.19517
3.93 1.69379
3.94 1.22666
3.95 0.805696
3.96 0.432184
3.97 0.118774
3.98 -0.141803
3.99 -0.345883
4 -0.498305
4.01 -0.606147
4.02 -0.671621
4.03 -0.707183
4.04 -0.716853
4.05 -0.710598
4.06 -0.694659
4.07 -0.675392
4.08 -0.657617
4.09 -0.645788
4.1 -0.641356
4.11 -0.645961
4.12 -0.659209
4.13 -0.67961
4.14 -0.705749
4.15 -0.734523
4.16 -0.763412
4.17 -0.789584
4.18 -0.810653
4.19 -0.82409
4.2 -0.829315
4.21 -0.823901
4.22 -0.809089
4.23 -0.784335
4.24 -0.750713
4.25 -0.709711
4.26 -0.662062
4.27 -0.610033
4.28 -0.55451
4.29 -0.497041
4.3 -0.438461
4.31 -0.379373
4.32 -0.320047
4.33 -0.260337
4.34 -0.199939
4.35 -0.138269
4.36 -0.0747191
4.37 -0.00890179
4.38 0.0598336
4.39 0.131143
4.4 0.205015
4.41 0.280441
4.42 0.356311
4.43 0.430835
4.44 0.502373
4.45 0.567875
4.46 0.625843
4.47 0.673314
4.48 0.708161
4.49 0.729312
4.5 0.73358
4.51 0.722425
4.52 0.693608
4.53 0.649123
4.54 0.589798
4.55 0.516957
4.56 0.434103
4.57 0.342665
4.58 0.24683
4.59 0.149218
4.6 0.0531052
4.61 -0.0390673
4.62 -0.124126
4.63 -0.201245
4.64 -0.268021
4.65 -0.324626
4.66 -0.370851
4.67 -0.406826
4.68 -0.434566
4.69 -0.454338
4.7 -0.468976
4.71 -0.479834
4.72 -0.48897
4.73 -0.498007
4.74 -0.508567
4.75 -0.521462
4.76 -0.537702
4.77 -0.55725
4.78 -0.579983
4.79 -0.605421
4.8 -0.632493
4.81 -0.660237
4.82 -0.687366
4.83 -0.712656
4.84 -0.734962
4.85 -0.753617
4.86 -0.767476
4.87 -0.776889
4.88 -0.781305
4.89 -0.781516
4.9 -0.778075
4.91 -0.771811
4.92 -0.763975
4.93 -0.755591
4.94 -0.747844
4.95 -0.741776
4.96 -0.738249
4.97 -0.737678
4.98 -0.740777
4.99 -0.747085
5 -0.756769
5.01 -0.769049
5.02 -0.783334
5.03 -0.798841
5.04 -0.814687
5.05 -0.830016
5.06 -0.844196
5.07 -0.856588
5.08 -0.866828
5.09 -0.874867
5.1 -0.880461
5.11 -0.884097
5.12 -0.885793
5.13 -0.886008
5.14 -0.88494
5.15 -0.882635
5.16 -0.879122
5.17 -0.873755
5.18 -0.866085
5.19 -0.854896
5.2 -0.838803
5.21 -0.816603
5.22 -0.785545
5.23 -0.745073
5.24 -0.6921
5.25 -0.626032
5.26 -0.545565
5.27 -0.449265
5.28 -0.338766
5.29 -0.212482
5.3 -0.0740996
5.31 0.0751829
5.32 0.23186
5.33 0.39216
5.34 0.551612
5.35 0.705901
5.36 0.849263
5.37 0.97758
5.38 1.08639
5.39 1.17027
5.4 1.2289
5.41 1.25534
5.42 1.25277
5.43 1.21848
5.44 1.15409
5.45 1.063
5.46 0.945551
5.47 0.809018
5.48 0.65577
5.49 0.492468
5.5 0.323955
5.51 0.155855
5.52 -0.00738267
5.53 -0.159879
5.54 -0.299392
5.55 -0.421994
5.56 -0.525861
5.57 -0.611058
5.58 -0.67528
5.59 -0.722114
5.6 -0.750919
5.61 -0.765367
5.62 -0.767625
5.63 -0.760124
5.64 -0.746338
5.65 -0.728061
5.66 -0.708051
5.67 -0.687776
5.68 -0.668441
5.69 -0.650476
5.7 -0.633998
5.71 -0.618279
5.72 -0.602406
5.73 -0.585099
5.74 -0.565053
5.75 -0.540641
5.76 -0.511285
5.77 -0.475215
5.78 -0.432964
5.79 -0.384122
5.8 -0.329505
5.81 -0.270488
5.82 -0.208447
5.83 -0.145747
5.84 -0.0847548
5.85 -0.0279159
5.86 0.0224115
5.87 0.0633656
5.88 0.0941819
5.89 0.11148
5.9 0.116192
5.91 0.106945
5.92 0.0843054
5.93 0.0498137
5.94 0.0037056
5.95 -0.0506371
5.96 -0.111941
5.97 -0.177129
5.98 -0.243955
5.99 -0.309907
6 -0.37322
6.01 -0.431559
6.02 -0.484415
6.03 -0.530678
6.04 -0.570301
6.05 -0.603963
6.06 -0.631855
6.07 -0.655843
6.08 -0.676856
6.09 -0.69666
6.1 -0.716576
6.11 -0.738011
6.12 -0.761685
6.13 -0.788654
6.14 -0.818642
6.15 -0.851641
6.16 -0.886872
6.17 -0.923275
6.18 -0.959502
6.19 -0.994185
6.2 -1.02557
6.21 -1.05247
6.22 -1.07374
6.23 -1.08821
6.24 -1.09624
6.25 -1.09685
6.26 -1.09161
6.27 -1.08099
6.28 -1.06652
6.29 -1.04981
6.3 -1.03244
6.31 -1.01592
6.32 -1.00164
6.33 -0.990171
6.34 -0.981651
6.35 -0.975477
6.36 -0.970029
6.37 -0.962704
6.38 -0.950492
6.39 -0.92906
6.4 -0.893543
6.41 -0.840168
6.42 -0.760876
6.43 -0.654471
6.44 -0.512802
6.45 -0.334837
6.46 -0.117819
6.47 0.141514
6.48 0.4382
6.49 0.775898
6.5 1.14498
6.51 1.54235
6.52 1.95952
6.53 2.38732
6.54 2.81559
6.55 3.23397
6.56 3.62947
6.57 3.99225
6.58 4.31202
6.59 4.57578
6.6 4.78212
6.61 4.91423
6.62 4.97783
6.63 4.96523
6.64 4.87774
6.65 4.72178
6.66 4.49429
6.67 4.21139
6.68 3.87481
6.69 3.499
6.7 3.09369
6.71 2.66998
6.72 2.24015
6.73 1.81558
6.74 1.40569
6.75 1.02037
6.76 0.667399
6.77 0.350281
6.78 0.0780985
6.79 -0.15314
6.8 -0.337701
6.81 -0.480413
6.82 -0.5833
6.83 -0.648482
6.84 -0.684231
6.85 -0.691599
6.86 -0.679886
6.87 -0.652813
6.88 -0.61612
6.89 -0.574495
6.9 -0.531758
6.91 -0.490971
6.92 -0.45468
6.93 -0.423971
6.94 -0.399457
6.95 -0.381398
6.96 -0.368569
6.97 -0.36076
6.98 -0.356153
6.99 -0.353868
7 -0.352734
7.01 -0.351944
7.02 -0.350974
7.03 -0.349734
7.04 -0.348457
7.05 -0.347779
7.06 -0.348538
7.07 -0.352021
7.08 -0.358991
7.09 -0.371306
7.1 -0.389236
7.11 -0.413946
7.12 -0.445781
7.13 -0.484343
7.14 -0.529994
7.15 -0.580964
7.16 -0.636652
7.17 -0.695079
7.18 -0.754604
7.19 -0.813173
7.2 -0.869176
7.21 -0.920206
7.22 -0.965414
7.23 -1.00319
7.24 -1.0328
7.25 -1.05443
7.26 -1.06725
7.27 -1.07303
7.28 -1.07192
7.29 -1.0658
7.3 -1.05605
7.31 -1.04424
7.32 -1.03198
7.33 -1.0207
7.34 -1.01131
7.35 -1.00457
7.36 -1.00059
7.37 -0.998886
7.38 -0.998705
7.39 -0.9985
7.4 -0.99635
7.41 -0.990126
7.42 -0.97756
7.43 -0.955564
7.44 -0.923016
7.45 -0.875799
7.46 -0.814148
7.47 -0.735756
7.48 -0.640196
7.49 -0.528562
7.5 -0.39979
7.51 -0.257737
7.52 -0.103086
7.53 0.0601767
7.54 0.228915
7.55 0.399177
7.56 0.567144
7.57 0.727823
7.58 0.878185
7.59 1.01379
7.6 1.13118
7.61 1.22887
7.62 1.30182
7.63 1.35198
7.64 1.37564
7.65 1.37469
7.66 1.34957
7.67 1.30039
7.68 1.23145
7.69 1.14222
7.7 1.03813
7.71 0.920989
7.72 0.794415
7.73 0.661924
7.74 0.526479
7.75 0.391464
7.76 0.25999
7.77 0.134617
7.78 0.01764
7.79 -0.0881398
7.8 -0.18237
7.81 -0.261627
7.82 -0.326908
7.83 -0.376536
7.84 -0.410428
7.85 -0.429633
7.86 -0.432851
7.87 -0.423094
7.88 -0.399966
7.89 -0.366052
7.9 -0.322981
7.91 -0.27256
7.92 -0.217663
7.93 -0.160298
7.94 -0.103313
7.95 -0.0491846
7.96 -0.000534855
7.97 0.0408972
7.98 0.0718645
7.99 0.0921933
8 0.0992123
8.01 0.0930586
8.02 0.0733765
8.03 0.0396695
8.04 -0.00583212
8.05 -0.0636178
8.06 -0.130344
8.07 -0.204679
8.08 -0.284007
8.09 -0.365785
8.1 -0.447465
8.11 -0.526788
8.12 -0.60123
8.13 -0.669265
8.14 -0.729582
8.15 -0.780779
8.16 -0.823557
8.17 -0.856786
8.18 -0.882438
8.19 -0.901039
8.2 -0.914236
8.21 -0.923844
8.22 -0.931337
8.23 -0.938511
8.24 -0.946682
8.25 -0.956717
8.26 -0.968968
8.27 -0.98327
8.28 -0.998546
8.29 -1.01311
8.3 -1.02474
8.31 -1.03039
8.32 -1.0265
8.33 -1.01033
8.34 -0.976
8.35 -0.922543
8.36 -0.84413
8.37 -0.739709
8.38 -0.607309
8.39 -0.444173
8.4 -0.253735
8.41 -0.0329766
8.42 0.211631
8.43 0.478311
8.44 0.761652
8.45 1.05542
8.46 1.35344
8.47 1.64832
8.48 1.93196
8.49 2.19737
8.5 2.43776
8.51 2.64428
8.52 2.81539
8.53 2.94005
8.54 3.02086
8.55 3.05248
8.56 3.03462
8.57 2.97103
8.58 2.85825
8.59 2.70644
8.6 2.51551
8.61 2.29416
8.62 2.04817
8.63 1.78371
8.64 1.50916
8.65 1.23068
8.66 0.955379
8.67 0.689373
8.68 0.438368
8.69 0.205464
8.7 -0.0030034
8.71 -0.188114
8.72 -0.345543
8.73 -0.476931
8.74 -0.582751
8.75 -0.663127
8.76 -0.722824
8.77 -0.761533
8.78 -0.785077
8.79 -0.795511
8.8 -0.796555
8.81 -0.791701
8.82 -0.78359
8.83 -0.775178
8.84 -0.76869
8.85 -0.765777
8.86 -0.767568
8.87 -0.775118
8.88 -0.787981
8.89 -0.806765
8.9 -0.830103
8.91 -0.857477
8.92 -0.88768
8.93 -0.919458
8.94 -0.951616
8.95 -0.982987
8.96 -1.01239
8.97 -1.03907
8.98 -1.06239
8.99 -1.08171
9 -1.09732
9.01 -1.10871
9.02 -1.1167
9.03 -1.1215
9.04 -1.12375
9.05 -1.12419
9.06 -1.1233
9.07 -1.12182
9.08 -1.12015
9.09 -1.11862
9.1 -1.11731
9.11 -1.11608
9.12 -1.1146
9.13 -1.11215
9.14 -1.10805
9.15 -1.10125
9.16 -1.0906
9.17 -1.07534
9.18 -1.05362
9.19 -1.02541
9.2 -0.989097
9.21 -0.944702
9.22 -0.892024
9.23 -0.830755
9.24 -0.762367
9.25 -0.686817
9.26 -0.606413
9.27 -0.522483
9.28 -0.437258
9.29 -0.352848
9.3 -0.272076
9.31 -0.19671
9.32 -0.129775
9.33 -0.0728414
9.34 -0.0275515
9.35 0.00390805
9.36 0.0223224
9.37 0.0252907
9.38 0.0151035
9.39 -0.00834679
9.4 -0.0434576
9.41 -0.0878062
9.42 -0.140056
9.43 -0.196715
9.44 -0.255605
9.45 -0.313802
9.46 -0.368963
9.47 -0.418389
9.48 -0.461014
9.49 -0.494189
9.5 -0.518266
9.51 -0.532319
9.52 -0.53671
9.53 -0.532792
9.54 -0.520932
9.55 -0.503834
9.56 -0.482856
9.57 -0.460457
9.58 -0.438598
9.59 -0.419543
9.6 -0.404584
9.61 -0.395969
9.62 -0.393907
9.63 -0.399411
9.64 -0.412548
9.65 -0.43252
9.66 -0.459391
9.67 -0.491178
9.68 -0.52715
9.69 -0.565525
9.7 -0.604965
9.71 -0.644023
9.72 -0.68168
9.73 -0.71669
9.74 -0.748775
9.75 -0.777436
9.76 -0.802672
9.77 -0.824899
9.78 -0.844138
9.79 -0.861205
9.8 -0.876189
9.81 -0.889381
9.82 -0.900619
9.83 -0.909099
9.84 -0.914115
9.85 -0.913234
9.86 -0.90493
9.87 -0.88597
9.88 -0.852868
9.89 -0.803317
9.9 -0.730817
9.91 -0.635036
9.92 -0.509577
9.93 -0.353399
9.94 -0.164465
9.95 0.0606647
9.96 0.318034
9.97 0.611472
9.98 0.933842
9.99 1.28339
10 1.65429
10.01 2.03935
10.02 2.4319
10.03 2.82298
10.04 3.20337
10.05 3.56437
10.06 3.89779
10.07 4.19256
10.08 4.4462
10.09 4.64508
10.1 4.79117
10.11 4.87755
10.12 4.90267
10.13 4.87065
10.14 4.77586
10.15 4.63043
10.16 4.43329
10.17 4.19448
10.18 3.92077
10.19 3.61883
10.2 3.29938
10.21 2.96889
10.22 2.63681
10.23 2.31021
10.24 1.99626
10.25 1.69918
10.26 1.42638
10.27 1.17752
10.28 0.957518
10.29 0.76522
10.3 0.600229
10.31 0.462749
10.32 0.347681
10.33 0.255431
10.34 0.179842
10.35 0.118698
10.36 0.0681168
10.37 0.024341
10.38 -0.0152647
10.39 -0.0538772
10.4 -0.0936629
10.41 -0.13634
10.42 -0.182999
10.43 -0.234636
10.44 -0.290855
10.45 -0.35211
10.46 -0.417165
10.47 -0.485438
10.48 -0.555761
10.49 -0.626932
10.5 -0.697654
10.51 -0.766819
10.52 -0.833038
10.53 -0.895376
10.54 -0.952946
10.55 -1.0045
10.56 -1.05008
10.57 -1.08812
10.58 -1.11912
10.59 -1.14232
10.6 -1.15754
10.61 -1.16528
10.62 -1.16459
10.63 -1.15683
10.64 -1.14148
10.65 -1.11951
10.66 -1.09147
10.67 -1.05778
10.68 -1.01983
10.69 -0.978005
10.7 -0.933824
10.71 -0.888197
10.72 -0.842367
10.73 -0.79738
10.74 -0.754624
10.75 -0.71478
10.76 -0.679153
10.77 -0.648296
10.78 -0.622774
10.79 -0.603429
10.8 -0.589783
10.81 -0.582791
10.82 -0.581485
10.83 -0.585959
10.84 -0.595725
10.85 -0.609936
10.86 -0.628505
10.87 -0.650201
10.88 -0.674745
10.89 -0.701305
10.9 -0.729355
10.91 -0.758442
10.92 -0.788068
10.93 -0.817944
10.94 -0.847768
10.95 -0.877329
10.96 -0.906436
10.97 -0.934976
10.98 -0.962688
10.99 -0.989522
11 -1.01517
11.01 -1.03946
11.02 -1.06217
11.03 -1.08291
11.04 -1.10165
11.05 -1.11784
11.06 -1.1316
11.07 -1.14268
11.08 -1.15107
11.09 -1.15704
11.1 -1.1605
11.11 -1.1621
11.12 -1.16201
11.13 -1.16081
11.14 -1.1589
11.15 -1.15668
11.16 -1.15442
11.17 -1.15222
11.18 -1.1499
11.19 -1.14703
11.2 -1.14275
11.21 -1.13612
11.22 -1.12511
11.23 -1.10859
11.24 -1.08373
11.25 -1.04866
11.26 -1.00122
11.27 -0.937928
11.28 -0.858608
11.29 -0.758677
11.3 -0.639276
11.31 -0.498355
11.32 -0.33582
11.33 -0.153794
11.34 0.048671
11.35 0.266356
11.36 0.497756
11.37 0.737737
11.38 0.981892
11.39 1.22465
11.4 1.46109
11.41 1.68394
11.42 1.88925
11.43 2.07082
11.44 2.22349
11.45 2.3457
11.46 2.42962
11.47 2.47869
11.48 2.48776
11.49 2.4596
11.5 2.39563
11.51 2.29616
11.52 2.1683
11.53 2.01225
11.54 1.83631
11.55 1.6442
11.56 1.44177
11.57 1.23455
11.58 1.02772
11.59 0.825678
11.6 0.633118
11.61 0.452921
11.62 0.287342
11.63 0.139233
11.64 0.00733402
11.65 -0.105818
11.66 -0.20325
11.67 -0.285232
11.68 -0.353713
11.69 -0.411552
11.7 -0.459876
11.71 -0.502252
11.72 -0.540196
11.73 -0.576033
11.74 -0.611268
11.75 -0.647203
11.76 -0.684439
11.77 -0.723474
11.78 -0.763891
11.79 -0.805172
11.8 -0.846237
11.81 -0.885936
11.82 -0.922333
11.83 -0.954302
11.84 -0.979566
11.85 -0.996777
11.86 -1.00452
11.87 -1.00058
11.88 -0.985214
11.89 -0.955653
11.9 -0.913036
11.91 -0.856282
11.92 -0.78546
11.93 -0.701948
11.94 -0.604818
11.95 -0.497053
11.96 -0.378805
11.97 -0.252506
11.98 -0.120013
11.99 0.0166629
12 0.154886
12.01 0.292134
12.02 0.425917
12.03 0.553507
12.04 0.67209
12.05 0.780099
12.06 0.873417
12.07 0.952198
12.08 1.01299
12.09 1.05555
12.1 1.07924
12.11 1.08238
12.12 1.06752
12.13 1.03267
12.14 0.981539
12.15 0.914801
12.16 0.834808
12.17 0.744788
12.18 0.646506
12.19 0.543946
12.2 0.439587
12.21 0.336515
12.22 0.237124
12.23 0.144199
12.24 0.058651
12.25 -0.016943
12.26 -0.0830531
12.27 -0.138945
12.28 -0.185038
12.29 -0.222863
12.3 -0.252795
12.31 -0.277592
12.32 -0.29859
12.33 -0.318119
12.34 -0.337985
12.35 -0.36017
12.36 -0.38571
12.37 -0.41623
12.38 -0.45162
12.39 -0.492116
12.4 -0.537039
12.41 -0.58501
