# xPDFsuite Configuration #
[PDF]
wavelength = 0.1432
dataformat = twotheta
inputfile = 1_1Pd_CeO2_cycle-00240.chi
backgroundfile = background-00000.chi
mode = xray
bgscale = 1.007
composition = CeO2
outputtype = gr
qmaxinst = 28.8974762299
qmin = 0.5
qmax = 27.9
rmax = 50.0
rmin = 0.0
rstep = 0.01
rpoly = 1.8657

[Misc]
inputdir = G:/SankarDec16/1Pd/Chi
savedir = D:/DATA/APS_CeO2/1Pd
backgroundfilefull = G:/SankarDec16/Background/background-00000.chi

#### start data
#S 1
#L r($\AA$)  G($\AA^{-2}$)
0 0
0.01 -0.0044263
0.02 -0.00851867
0.03 -0.0119333
0.04 -0.0144114
0.05 -0.0158089
0.06 -0.0158946
0.07 -0.0148229
0.08 -0.0125199
0.09 -0.00928044
0.1 -0.00530858
0.11 -0.000916584
0.12 0.00355551
0.13 0.00772578
0.14 0.0113245
0.15 0.014021
0.16 0.0156223
0.17 0.0160517
0.18 0.0151526
0.19 0.0131526
0.2 0.010062
0.21 0.00622477
0.22 0.00189522
0.23 -0.00257601
0.24 -0.00686931
0.25 -0.0105734
0.26 -0.0134958
0.27 -0.0153352
0.28 -0.0159739
0.29 -0.0154064
0.3 -0.0135584
0.31 -0.0107199
0.32 -0.00698494
0.33 -0.00272997
0.34 0.00175288
0.35 0.00609141
0.36 0.0100021
0.37 0.0130645
0.38 0.0151727
0.39 0.0160697
0.4 0.0157186
0.41 0.0141861
0.42 0.0114838
0.43 0.00794995
0.44 0.00375787
0.45 -0.000701367
0.46 -0.00511233
0.47 -0.00909911
0.48 -0.0124285
0.49 -0.0146912
0.5 -0.0158734
0.51 -0.015775
0.52 -0.0144424
0.53 -0.0120108
0.54 -0.00857792
0.55 -0.00451381
0.56 -6.27694e-05
0.57 0.00438849
0.58 0.0085167
0.59 0.0119605
0.6 0.0145485
0.61 0.0159029
0.62 0.0161026
0.63 0.0150148
0.64 0.0127668
0.65 0.00955617
0.66 0.00556221
0.67 0.00116875
0.68 -0.00332078
0.69 -0.00754272
0.7 -0.0111819
0.71 -0.0139089
0.72 -0.0156229
0.73 -0.0159955
0.74 -0.0151947
0.75 -0.0131607
0.76 -0.0100954
0.77 -0.00624796
0.78 -0.00186952
0.79 0.00266179
0.8 0.0070005
0.81 0.0108245
0.82 0.0138441
0.83 0.0157796
0.84 0.0166058
0.85 0.016063
0.86 0.0143979
0.87 0.0116274
0.88 0.00801602
0.89 0.00384966
0.9 -0.000565072
0.91 -0.00488008
0.92 -0.00873289
0.93 -0.0118669
0.94 -0.0140428
0.95 -0.0150585
0.96 -0.0149731
0.97 -0.0136332
0.98 -0.0113548
0.99 -0.00825261
1 -0.00465131
1.01 -0.000865381
1.02 0.00273615
1.03 0.00586568
1.04 0.00814417
1.05 0.00941178
1.06 0.0094988
1.07 0.00830753
1.08 0.00601167
1.09 0.00259934
1.1 -0.00151216
1.11 -0.00606707
1.12 -0.0106373
1.13 -0.0148439
1.14 -0.0181802
1.15 -0.0204031
1.16 -0.0210223
1.17 -0.0199521
1.18 -0.0170312
1.19 -0.0121955
1.2 -0.00574662
1.21 0.00231351
1.22 0.0113924
1.23 0.021155
1.24 0.0310367
1.25 0.0405398
1.26 0.0490101
1.27 0.0561032
1.28 0.0611548
1.29 0.0639853
1.3 0.0642993
1.31 0.0618712
1.32 0.0569799
1.33 0.0493521
1.34 0.0396502
1.35 0.028021
1.36 0.0149976
1.37 0.00109207
1.38 -0.0131835
1.39 -0.0272777
1.4 -0.0406173
1.41 -0.0527848
1.42 -0.0633611
1.43 -0.0719204
1.44 -0.0784426
1.45 -0.0823896
1.46 -0.0840761
1.47 -0.0832876
1.48 -0.0801877
1.49 -0.0750015
1.5 -0.067732
1.51 -0.0588709
1.52 -0.0484834
1.53 -0.0370081
1.54 -0.0247018
1.55 -0.0118812
1.56 0.0011178
1.57 0.0139566
1.58 0.0263418
1.59 0.0379142
1.6 0.0483602
1.61 0.0574472
1.62 0.0647039
1.63 0.0701217
1.64 0.07321
1.65 0.0740014
1.66 0.0723269
1.67 0.068052
1.68 0.0614747
1.69 0.0523462
1.7 0.0412671
1.71 0.0283521
1.72 0.0140769
1.73 -0.00108377
1.74 -0.0166473
1.75 -0.0320629
1.76 -0.0467502
1.77 -0.0602651
1.78 -0.072169
1.79 -0.0820223
1.8 -0.089824
1.81 -0.0951002
1.82 -0.0982624
1.83 -0.099274
1.84 -0.0985204
1.85 -0.0964476
1.86 -0.0934743
1.87 -0.090226
1.88 -0.0872519
1.89 -0.0850674
1.9 -0.0841216
1.91 -0.0848471
1.92 -0.0872678
1.93 -0.0917423
1.94 -0.097854
1.95 -0.105486
1.96 -0.114129
1.97 -0.123225
1.98 -0.132069
1.99 -0.140016
2 -0.146167
2.01 -0.149965
2.02 -0.15077
2.03 -0.147918
2.04 -0.14147
2.05 -0.130606
2.06 -0.115986
2.07 -0.0974228
2.08 -0.0753873
2.09 -0.0504417
2.1 -0.0228897
2.11 0.00638332
2.12 0.0370043
2.13 0.0683161
2.14 0.0999377
2.15 0.131553
2.16 0.163027
2.17 0.19434
2.18 0.225659
2.19 0.257244
2.2 0.28945
2.21 0.322584
2.22 0.357125
2.23 0.393116
2.24 0.430849
2.25 0.470052
2.26 0.510428
2.27 0.55134
2.28 0.591948
2.29 0.630906
2.3 0.667134
2.31 0.698907
2.32 0.724674
2.33 0.743281
2.34 0.752324
2.35 0.751903
2.36 0.739761
2.37 0.716403
2.38 0.681472
2.39 0.63496
2.4 0.578828
2.41 0.512967
2.42 0.440558
2.43 0.363039
2.44 0.283069
2.45 0.202999
2.46 0.125609
2.47 0.0527261
2.48 -0.0128763
2.49 -0.0701273
2.5 -0.117701
2.51 -0.154484
2.52 -0.181476
2.53 -0.197512
2.54 -0.205164
2.55 -0.20502
2.56 -0.199182
2.57 -0.189704
2.58 -0.178547
2.59 -0.167837
2.6 -0.159589
2.61 -0.155185
2.62 -0.155803
2.63 -0.162414
2.64 -0.174591
2.65 -0.192959
2.66 -0.215869
2.67 -0.242641
2.68 -0.271648
2.69 -0.301346
2.7 -0.329956
2.71 -0.356171
2.72 -0.378265
2.73 -0.395559
2.74 -0.407365
2.75 -0.413283
2.76 -0.414173
2.77 -0.410013
2.78 -0.40265
2.79 -0.393167
2.8 -0.383333
2.81 -0.374668
2.82 -0.369089
2.83 -0.367472
2.84 -0.371449
2.85 -0.381164
2.86 -0.396878
2.87 -0.41843
2.88 -0.444461
2.89 -0.474262
2.9 -0.505656
2.91 -0.536953
2.92 -0.566037
2.93 -0.591261
2.94 -0.610245
2.95 -0.622516
2.96 -0.626202
2.97 -0.621677
2.98 -0.608962
2.99 -0.58862
3 -0.562644
3.01 -0.532152
3.02 -0.499947
3.03 -0.468184
3.04 -0.43942
3.05 -0.415569
3.06 -0.399378
3.07 -0.391231
3.08 -0.393155
3.09 -0.404514
3.1 -0.425096
3.11 -0.454047
3.12 -0.488992
3.13 -0.528467
3.14 -0.569341
3.15 -0.609167
3.16 -0.645203
3.17 -0.675508
3.18 -0.697301
3.19 -0.710492
3.2 -0.713321
3.21 -0.706903
3.22 -0.69196
3.23 -0.670031
3.24 -0.643907
3.25 -0.616044
3.26 -0.589693
3.27 -0.567989
3.28 -0.553887
3.29 -0.549251
3.3 -0.557179
3.31 -0.576947
3.32 -0.610226
3.33 -0.65493
3.34 -0.709597
3.35 -0.771715
3.36 -0.837555
3.37 -0.903456
3.38 -0.965499
3.39 -1.01956
3.4 -1.06211
3.41 -1.0911
3.42 -1.10283
3.43 -1.09878
3.44 -1.07718
3.45 -1.04116
3.46 -0.992933
3.47 -0.93603
3.48 -0.87527
3.49 -0.815475
3.5 -0.761312
3.51 -0.71771
3.52 -0.68848
3.53 -0.675406
3.54 -0.681744
3.55 -0.704541
3.56 -0.743633
3.57 -0.793359
3.58 -0.848411
3.59 -0.900763
3.6 -0.94294
3.61 -0.962404
3.62 -0.952761
3.63 -0.902057
3.64 -0.801983
3.65 -0.64827
3.66 -0.428871
3.67 -0.149784
3.68 0.197041
3.69 0.602759
3.7 1.06296
3.71 1.57012
3.72 2.10905
3.73 2.66939
3.74 3.23265
3.75 3.78285
3.76 4.30202
3.77 4.77648
3.78 5.18352
3.79 5.51914
3.8 5.76203
3.81 5.91159
3.82 5.96138
3.83 5.90561
3.84 5.75722
3.85 5.50697
3.86 5.17829
3.87 4.77537
3.88 4.31472
3.89 3.81294
3.9 3.28362
3.91 2.74563
3.92 2.21415
3.93 1.70341
3.94 1.22553
3.95 0.793302
3.96 0.408876
3.97 0.0859893
3.98 -0.18202
3.99 -0.390638
4 -0.544247
4.01 -0.649855
4.02 -0.70929
4.03 -0.735766
4.04 -0.73345
4.05 -0.713329
4.06 -0.682468
4.07 -0.648315
4.08 -0.61664
4.09 -0.593233
4.1 -0.58012
4.11 -0.579913
4.12 -0.592669
4.13 -0.616893
4.14 -0.651575
4.15 -0.692627
4.16 -0.737323
4.17 -0.781587
4.18 -0.82204
4.19 -0.854857
4.2 -0.878329
4.21 -0.888456
4.22 -0.885791
4.23 -0.868628
4.24 -0.837477
4.25 -0.793792
4.26 -0.737742
4.27 -0.672695
4.28 -0.599649
4.29 -0.521532
4.3 -0.440234
4.31 -0.357746
4.32 -0.275657
4.33 -0.195482
4.34 -0.117828
4.35 -0.0434229
4.36 0.0275872
4.37 0.095411
4.38 0.159913
4.39 0.221782
4.4 0.280901
4.41 0.337594
4.42 0.391716
4.43 0.442757
4.44 0.490489
4.45 0.533369
4.46 0.571015
4.47 0.601767
4.48 0.624395
4.49 0.63817
4.5 0.640814
4.51 0.632997
4.52 0.612772
4.53 0.581027
4.54 0.53783
4.55 0.48347
4.56 0.420146
4.57 0.348086
4.58 0.270343
4.59 0.188409
4.6 0.104683
4.61 0.0211949
4.62 -0.0597266
4.63 -0.13673
4.64 -0.20774
4.65 -0.272104
4.66 -0.329053
4.67 -0.377938
4.68 -0.419719
4.69 -0.453759
4.7 -0.481939
4.71 -0.504733
4.72 -0.523482
4.73 -0.539457
4.74 -0.55362
4.75 -0.567152
4.76 -0.580809
4.77 -0.595163
4.78 -0.610512
4.79 -0.626952
4.8 -0.644201
4.81 -0.661955
4.82 -0.679617
4.83 -0.696584
4.84 -0.712202
4.85 -0.726025
4.86 -0.737321
4.87 -0.746142
4.88 -0.752042
4.89 -0.755346
4.9 -0.756271
4.91 -0.755196
4.92 -0.752849
4.93 -0.749769
4.94 -0.746747
4.95 -0.744443
4.96 -0.743486
4.97 -0.744245
4.98 -0.747298
4.99 -0.752489
5 -0.760084
5.01 -0.769703
5.02 -0.78108
5.03 -0.793831
5.04 -0.807375
5.05 -0.821273
5.06 -0.834993
5.07 -0.8481
5.08 -0.860225
5.09 -0.871176
5.1 -0.880607
5.11 -0.888609
5.12 -0.894908
5.13 -0.899546
5.14 -0.902354
5.15 -0.902957
5.16 -0.901219
5.17 -0.896064
5.18 -0.887161
5.19 -0.873182
5.2 -0.85291
5.21 -0.825432
5.22 -0.788246
5.23 -0.741295
5.24 -0.681909
5.25 -0.609961
5.26 -0.524554
5.27 -0.424707
5.28 -0.31216
5.29 -0.185771
5.3 -0.0489991
5.31 0.0968916
5.32 0.248652
5.33 0.402874
5.34 0.55541
5.35 0.702493
5.36 0.838832
5.37 0.960793
5.38 1.06432
5.39 1.14446
5.4 1.20094
5.41 1.22726
5.42 1.22629
5.43 1.19538
5.44 1.13581
5.45 1.05062
5.46 0.939771
5.47 0.809993
5.48 0.663165
5.49 0.505495
5.5 0.341433
5.51 0.176193
5.52 0.014203
5.53 -0.139022
5.54 -0.280916
5.55 -0.407522
5.56 -0.516673
5.57 -0.608023
5.58 -0.678861
5.59 -0.73226
5.6 -0.767072
5.61 -0.786558
5.62 -0.792526
5.63 -0.787031
5.64 -0.773582
5.65 -0.753653
5.66 -0.730369
5.67 -0.705266
5.68 -0.679918
5.69 -0.655177
5.7 -0.631575
5.71 -0.608875
5.72 -0.586654
5.73 -0.564003
5.74 -0.53994
5.75 -0.513164
5.76 -0.483028
5.77 -0.448024
5.78 -0.408308
5.79 -0.363368
5.8 -0.313649
5.81 -0.260126
5.82 -0.203762
5.83 -0.146493
5.84 -0.0902382
5.85 -0.0371401
5.86 0.0106998
5.87 0.0506594
5.88 0.0818588
5.89 0.101069
5.9 0.108832
5.91 0.103601
5.92 0.085546
5.93 0.0558142
5.94 0.0141819
5.95 -0.0363177
5.96 -0.0948753
5.97 -0.158634
5.98 -0.225554
5.99 -0.293306
6 -0.359919
6.01 -0.42315
6.02 -0.482021
6.03 -0.535181
6.04 -0.582119
6.05 -0.623081
6.06 -0.65772
6.07 -0.687551
6.08 -0.712973
6.09 -0.73553
6.1 -0.756319
6.11 -0.776533
6.12 -0.79713
6.13 -0.819017
6.14 -0.842444
6.15 -0.867626
6.16 -0.894263
6.17 -0.921767
6.18 -0.949315
6.19 -0.975967
6.2 -1.0005
6.21 -1.02203
6.22 -1.03969
6.23 -1.05256
6.24 -1.06084
6.25 -1.0638
6.26 -1.06251
6.27 -1.05733
6.28 -1.04935
6.29 -1.03974
6.3 -1.02965
6.31 -1.02013
6.32 -1.01208
6.33 -1.00575
6.34 -1.00095
6.35 -0.996778
6.36 -0.991685
6.37 -0.98278
6.38 -0.96741
6.39 -0.941296
6.4 -0.899894
6.41 -0.839803
6.42 -0.753306
6.43 -0.639663
6.44 -0.491148
6.45 -0.307108
6.46 -0.0851208
6.47 0.177694
6.48 0.476337
6.49 0.814062
6.5 1.18146
6.51 1.57533
6.52 1.98733
6.53 2.40859
6.54 2.82906
6.55 3.23884
6.56 3.62521
6.57 3.97875
6.58 4.28951
6.59 4.54491
6.6 4.74376
6.61 4.86973
6.62 4.92858
6.63 4.91294
6.64 4.8242
6.65 4.66874
6.66 4.4437
6.67 4.16486
6.68 3.834
6.69 3.46524
6.7 3.06807
6.71 2.65334
6.72 2.23293
6.73 1.81791
6.74 1.41732
6.75 1.0407
6.76 0.695469
6.77 0.384918
6.78 0.117688
6.79 -0.110183
6.8 -0.293307
6.81 -0.436428
6.82 -0.541572
6.83 -0.61085
6.84 -0.652177
6.85 -0.666567
6.86 -0.662812
6.87 -0.644351
6.88 -0.616479
6.89 -0.583493
6.9 -0.548711
6.91 -0.514912
6.92 -0.484154
6.93 -0.457333
6.94 -0.434854
6.95 -0.416751
6.96 -0.402012
6.97 -0.39023
6.98 -0.380065
6.99 -0.370799
7 -0.361692
7.01 -0.352393
7.02 -0.342866
7.03 -0.333499
7.04 -0.325088
7.05 -0.318655
7.06 -0.315405
7.07 -0.317036
7.08 -0.32424
7.09 -0.339275
7.1 -0.362
7.11 -0.393544
7.12 -0.433873
7.13 -0.482106
7.14 -0.538171
7.15 -0.599656
7.16 -0.665359
7.17 -0.732735
7.18 -0.799629
7.19 -0.863382
7.2 -0.922295
7.21 -0.973316
7.22 -1.01589
7.23 -1.04826
7.24 -1.06992
7.25 -1.08152
7.26 -1.08247
7.27 -1.07535
7.28 -1.06079
7.29 -1.04142
7.3 -1.0192
7.31 -0.996461
7.32 -0.975126
7.33 -0.957445
7.34 -0.944278
7.35 -0.936758
7.36 -0.935001
7.37 -0.938226
7.38 -0.945722
7.39 -0.95519
7.4 -0.964446
7.41 -0.970629
7.42 -0.970903
7.43 -0.961502
7.44 -0.940788
7.45 -0.903907
7.46 -0.850838
7.47 -0.778801
7.48 -0.687154
7.49 -0.577049
7.5 -0.447173
7.51 -0.301904
7.52 -0.141955
7.53 0.0281354
7.54 0.204827
7.55 0.383683
7.56 0.560365
7.57 0.729356
7.58 0.887245
7.59 1.02917
7.6 1.1514
7.61 1.25235
7.62 1.32669
7.63 1.37666
7.64 1.39846
7.65 1.39435
7.66 1.36499
7.67 1.3108
7.68 1.2365
7.69 1.14186
7.7 1.03269
7.71 0.911082
7.72 0.780916
7.73 0.645816
7.74 0.508983
7.75 0.373657
7.76 0.243033
7.77 0.119465
7.78 0.00509447
7.79 -0.0974684
7.8 -0.188151
7.81 -0.26375
7.82 -0.325512
7.83 -0.371976
7.84 -0.403246
7.85 -0.420458
7.86 -0.422484
7.87 -0.412253
7.88 -0.389434
7.89 -0.35648
7.9 -0.314925
7.91 -0.266454
7.92 -0.213753
7.93 -0.158692
7.94 -0.103952
7.95 -0.0518714
7.96 -0.00495117
7.97 0.0351269
7.98 0.0652223
7.99 0.0851124
8 0.0921662
8.01 0.0864442
8.02 0.067536
8.03 0.0348812
8.04 -0.00939365
8.05 -0.0658392
8.06 -0.131199
8.07 -0.204196
8.08 -0.282261
8.09 -0.362871
8.1 -0.443502
8.11 -0.521871
8.12 -0.595453
8.13 -0.662694
8.14 -0.722266
8.15 -0.772756
8.16 -0.814857
8.17 -0.847459
8.18 -0.872554
8.19 -0.890719
8.2 -0.90366
8.21 -0.913243
8.22 -0.921049
8.23 -0.928891
8.24 -0.938183
8.25 -0.949794
8.26 -0.96408
8.27 -0.980872
8.28 -0.998982
8.29 -1.01666
8.3 -1.03152
8.31 -1.04035
8.32 -1.03937
8.33 -1.02569
8.34 -0.993151
8.35 -0.940699
8.36 -0.862254
8.37 -0.75673
8.38 -0.622104
8.39 -0.455574
8.4 -0.260782
8.41 -0.034735
8.42 0.215747
8.43 0.488654
8.44 0.778213
8.45 1.07787
8.46 1.38099
8.47 1.67995
8.48 1.9662
8.49 2.23262
8.5 2.47222
8.51 2.67598
8.52 2.8426
8.53 2.96089
8.54 3.03394
8.55 3.05664
8.56 3.02915
8.57 2.95567
8.58 2.8333
8.59 2.67263
8.6 2.47415
8.61 2.24691
8.62 1.997
8.63 1.73097
8.64 1.45705
8.65 1.1817
8.66 0.911575
8.67 0.652654
8.68 0.410208
8.69 0.186823
8.7 -0.0116539
8.71 -0.186897
8.72 -0.335167
8.73 -0.45858
8.74 -0.558018
8.75 -0.634062
8.76 -0.691436
8.77 -0.730229
8.78 -0.75587
8.79 -0.770354
8.8 -0.777017
8.81 -0.778858
8.82 -0.778075
8.83 -0.777012
8.84 -0.777333
8.85 -0.780195
8.86 -0.786316
8.87 -0.796292
8.88 -0.809704
8.89 -0.826787
8.9 -0.846559
8.91 -0.86859
8.92 -0.892083
8.93 -0.91629
8.94 -0.940528
8.95 -0.964229
8.96 -0.986842
8.97 -1.00809
8.98 -1.02778
8.99 -1.04574
9 -1.06217
9.01 -1.07694
9.02 -1.09043
9.03 -1.10268
9.04 -1.11385
9.05 -1.12408
9.06 -1.13325
9.07 -1.14141
9.08 -1.14824
9.09 -1.15349
9.1 -1.15677
9.11 -1.15738
9.12 -1.1551
9.13 -1.14875
9.14 -1.13821
9.15 -1.12257
9.16 -1.10127
9.17 -1.07422
9.18 -1.04028
9.19 -1.00022
9.2 -0.953272
9.21 -0.900146
9.22 -0.841219
9.23 -0.776865
9.24 -0.708473
9.25 -0.636592
9.26 -0.56293
9.27 -0.488714
9.28 -0.415582
9.29 -0.344876
9.3 -0.278713
9.31 -0.217904
9.32 -0.164553
9.33 -0.11942
9.34 -0.0834526
9.35 -0.058019
9.36 -0.0423275
9.37 -0.0380312
9.38 -0.0433962
9.39 -0.0585323
9.4 -0.0823729
9.41 -0.113274
9.42 -0.150522
9.43 -0.191689
9.44 -0.235491
9.45 -0.279916
9.46 -0.323393
9.47 -0.364118
9.48 -0.401165
9.49 -0.432726
9.5 -0.458724
9.51 -0.47834
9.52 -0.491517
9.53 -0.498899
9.54 -0.500368
9.55 -0.49756
9.56 -0.491044
9.57 -0.482348
9.58 -0.472666
9.59 -0.463371
9.6 -0.45551
9.61 -0.450489
9.62 -0.448797
9.63 -0.451261
9.64 -0.45824
9.65 -0.469528
9.66 -0.485526
9.67 -0.505226
9.68 -0.528536
9.69 -0.554531
9.7 -0.582563
9.71 -0.611984
9.72 -0.64206
9.73 -0.672297
9.74 -0.702259
9.75 -0.731648
9.76 -0.760272
9.77 -0.788089
9.78 -0.814889
9.79 -0.840685
9.8 -0.865074
9.81 -0.887645
9.82 -0.907672
9.83 -0.92372
9.84 -0.934823
9.85 -0.937969
9.86 -0.93173
9.87 -0.912718
9.88 -0.877589
9.89 -0.824388
9.9 -0.746793
9.91 -0.645078
9.92 -0.513214
9.93 -0.350678
9.94 -0.155834
9.95 0.0743123
9.96 0.335642
9.97 0.631606
9.98 0.955173
9.99 1.30452
10 1.67398
10.01 2.05662
10.02 2.44596
10.03 2.83343
10.04 3.21009
10.05 3.56755
10.06 3.89785
10.07 4.19015
10.08 4.442
10.09 4.6399
10.1 4.78565
10.11 4.87226
10.12 4.89796
10.13 4.86665
10.14 4.77242
10.15 4.62723
10.16 4.42975
10.17 4.18991
10.18 3.91443
10.19 3.60993
10.2 3.28731
10.21 2.95314
10.22 2.61718
10.23 2.28677
10.24 1.96943
10.25 1.66965
10.26 1.39525
10.27 1.14597
10.28 0.927068
10.29 0.737347
10.3 0.576386
10.31 0.444333
10.32 0.33572
10.33 0.250756
10.34 0.182784
10.35 0.129193
10.36 0.0856193
10.37 0.0479558
10.38 0.0130147
10.39 -0.0224621
10.4 -0.0610294
10.41 -0.10436
10.42 -0.153501
10.43 -0.209377
10.44 -0.271139
10.45 -0.339029
10.46 -0.411228
10.47 -0.486721
10.48 -0.563813
10.49 -0.640919
10.5 -0.716178
10.51 -0.788391
10.52 -0.855795
10.53 -0.917517
10.54 -0.972738
10.55 -1.02032
10.56 -1.06078
10.57 -1.0928
10.58 -1.11747
10.59 -1.13448
10.6 -1.14418
10.61 -1.1474
10.62 -1.14374
10.63 -1.13459
10.64 -1.11976
10.65 -1.10008
10.66 -1.07598
10.67 -1.04767
10.68 -1.01603
10.69 -0.981096
10.7 -0.943805
10.71 -0.904566
10.72 -0.864088
10.73 -0.823097
10.74 -0.78241
10.75 -0.74277
10.76 -0.705178
10.77 -0.670398
10.78 -0.639192
10.79 -0.612665
10.8 -0.590914
10.81 -0.575328
10.82 -0.565568
10.83 -0.562284
10.84 -0.565566
10.85 -0.574896
10.86 -0.590815
10.87 -0.611993
10.88 -0.638491
10.89 -0.66924
10.9 -0.703502
10.91 -0.740557
10.92 -0.779289
10.93 -0.81898
10.94 -0.858645
10.95 -0.897505
10.96 -0.934754
10.97 -0.969915
10.98 -1.00206
10.99 -1.0312
11 -1.05663
11.01 -1.07836
11.02 -1.09634
11.03 -1.11033
11.04 -1.12093
11.05 -1.12788
11.06 -1.13198
11.07 -1.13348
11.08 -1.13295
11.09 -1.13103
11.1 -1.12824
11.11 -1.12527
11.12 -1.12269
11.13 -1.12099
11.14 -1.12053
11.15 -1.12162
11.16 -1.1241
11.17 -1.1279
11.18 -1.13232
11.19 -1.13657
11.2 -1.13937
11.21 -1.13946
11.22 -1.13439
11.23 -1.1229
11.24 -1.10188
11.25 -1.06945
11.26 -1.02341
11.27 -0.960278
11.28 -0.880114
11.29 -0.778346
11.3 -0.656418
11.31 -0.512419
11.32 -0.346458
11.33 -0.160835
11.34 0.045255
11.35 0.266479
11.36 0.501236
11.37 0.744348
11.38 0.991379
11.39 1.23672
11.4 1.47548
11.41 1.70033
11.42 1.90735
11.43 2.09026
11.44 2.24388
11.45 2.36659
11.46 2.45041
11.47 2.49879
11.48 2.50643
11.49 2.47607
11.5 2.40912
11.51 2.30582
11.52 2.17345
11.53 2.01221
11.54 1.83065
11.55 1.63267
11.56 1.42442
11.57 1.21168
11.58 1.00001
11.59 0.794021
11.6 0.598779
11.61 0.417321
11.62 0.252037
11.63 0.105961
11.64 -0.0223881
11.65 -0.130382
11.66 -0.221477
11.67 -0.296177
11.68 -0.356861
11.69 -0.406827
11.7 -0.447733
11.71 -0.483528
11.72 -0.516266
11.73 -0.548565
11.74 -0.582167
11.75 -0.618671
11.76 -0.658439
11.77 -0.702146
11.78 -0.748849
11.79 -0.797774
11.8 -0.847316
11.81 -0.895775
11.82 -0.940581
11.83 -0.980098
11.84 -1.01139
11.85 -1.03272
11.86 -1.04237
11.87 -1.0377
11.88 -1.01925
11.89 -0.983992
11.9 -0.933649
11.91 -0.867418
11.92 -0.785949
11.93 -0.691264
11.94 -0.583133
11.95 -0.465164
11.96 -0.338257
11.97 -0.205331
11.98 -0.0686342
11.99 0.0693313
12 0.206156
12.01 0.338965
12.02 0.465879
12.03 0.584402
12.04 0.692297
12.05 0.788683
12.06 0.870108
12.07 0.937445
12.08 0.987985
12.09 1.02205
12.1 1.03944
12.11 1.03901
12.12 1.02316
12.13 0.990301
12.14 0.94361
12.15 0.883586
12.16 0.812071
12.17 0.731653
12.18 0.643527
12.19 0.550966
12.2 0.455787
12.21 0.36053
12.22 0.267168
12.23 0.177985
12.24 0.093989
12.25 0.017389
12.26 -0.0518403
12.27 -0.11283
12.28 -0.165572
12.29 -0.211051
12.3 -0.249166
12.31 -0.28207
12.32 -0.310554
12.33 -0.336495
12.34 -0.361362
12.35 -0.386746
12.36 -0.413771
12.37 -0.443803
12.38 -0.477108
12.39 -0.514061
