# xPDFsuite Configuration #
[PDF]
wavelength = 0.1432
dataformat = twotheta
inputfile = 1_1Pd_CeO2_cycle-00440.chi
backgroundfile = background-00000.chi
mode = xray
bgscale = 1.007
composition = CeO2
outputtype = gr
qmaxinst = 28.8974762299
qmin = 0.5
qmax = 27.9
rmax = 50.0
rmin = 0.0
rstep = 0.01
rpoly = 1.8657

[Misc]
inputdir = G:/SankarDec16/1Pd/Chi
savedir = D:/DATA/APS_CeO2/1Pd
backgroundfilefull = G:/SankarDec16/Background/background-00000.chi

#### start data
#S 1
#L r($\AA$)  G($\AA^{-2}$)
0 0
0.01 -0.00441305
0.02 -0.00849271
0.03 -0.0118958
0.04 -0.0143639
0.05 -0.0157536
0.06 -0.0158341
0.07 -0.0147601
0.08 -0.0124584
0.09 -0.00922344
0.1 -0.00525953
0.11 -0.000878803
0.12 0.00357939
0.13 0.00773337
0.14 0.0113146
0.15 0.0139932
0.16 0.0155774
0.17 0.0159916
0.18 0.0150807
0.19 0.0130727
0.2 0.00997953
0.21 0.00614505
0.22 0.001824
0.23 -0.00263304
0.24 -0.00690755
0.25 -0.0105886
0.26 -0.0134859
0.27 -0.0152993
0.28 -0.0159132
0.29 -0.0153239
0.3 -0.0134594
0.31 -0.0106102
0.32 -0.0068726
0.33 -0.00262287
0.34 0.0018466
0.35 0.00616399
0.36 0.0100477
0.37 0.0130781
0.38 0.0151522
0.39 0.0160155
0.4 0.0156337
0.41 0.0140757
0.42 0.0113562
0.43 0.00781387
0.44 0.00362453
0.45 -0.000821576
0.46 -0.0052092
0.47 -0.00916362
0.48 -0.0124544
0.49 -0.0146743
0.5 -0.0158132
0.51 -0.0156743
0.52 -0.0143074
0.53 -0.0118501
0.54 -0.00840364
0.55 -0.004338
0.56 0.000100268
0.57 0.00452628
0.58 0.00861783
0.59 0.0120159
0.6 0.0145529
0.61 0.0158545
0.62 0.0160039
0.63 0.0148725
0.64 0.0125913
0.65 0.00936007
0.66 0.00536182
0.67 0.000979057
0.68 -0.00348317
0.69 -0.00766449
0.7 -0.0112521
0.71 -0.0139203
0.72 -0.0155732
0.73 -0.0158876
0.74 -0.0150357
0.75 -0.0129629
0.76 -0.00987433
0.77 -0.00602105
0.78 -0.00165693
0.79 0.00284293
0.8 0.00713297
0.81 0.0108965
0.82 0.013848
0.83 0.0157142
0.84 0.0164755
0.85 0.0158806
0.86 0.01418
0.87 0.0113976
0.88 0.0078008
0.89 0.00367652
0.9 -0.000665805
0.91 -0.0048839
0.92 -0.0086163
0.93 -0.0116149
0.94 -0.013647
0.95 -0.0145203
0.96 -0.0143021
0.97 -0.012852
0.98 -0.0104919
0.99 -0.00734757
1 -0.00375009
1.01 -1.70248e-05
1.02 0.0034738
1.03 0.00644126
1.04 0.00850055
1.05 0.00950079
1.06 0.00927615
1.07 0.00773563
1.08 0.00506469
1.09 0.00125873
1.1 -0.00325108
1.11 -0.00819779
1.12 -0.0131403
1.13 -0.0176888
1.14 -0.0213192
1.15 -0.0237826
1.16 -0.0245683
1.17 -0.0235847
1.18 -0.0206577
1.19 -0.0157081
1.2 -0.00903973
1.21 -0.000627454
1.22 0.00892164
1.23 0.0192869
1.24 0.0298984
1.25 0.0402484
1.26 0.0496833
1.27 0.0578286
1.28 0.0640089
1.29 0.0680092
1.3 0.0695038
1.31 0.0682251
1.32 0.0644178
1.33 0.0577463
1.34 0.0488478
1.35 0.0378112
1.36 0.0251339
1.37 0.0113073
1.38 -0.0032125
1.39 -0.0178454
1.4 -0.0320599
1.41 -0.0453943
1.42 -0.0574122
1.43 -0.0676519
1.44 -0.0760211
1.45 -0.0819358
1.46 -0.0856199
1.47 -0.0867844
1.48 -0.0855088
1.49 -0.081953
1.5 -0.0760213
1.51 -0.0681889
1.52 -0.0584343
1.53 -0.0472085
1.54 -0.0347554
1.55 -0.0213988
1.56 -0.00754943
1.57 0.00643939
1.58 0.0201534
1.59 0.0331631
1.6 0.0450473
1.61 0.0554832
1.62 0.0638828
1.63 0.0701857
1.64 0.0737951
1.65 0.0747309
1.66 0.0727959
1.67 0.0678511
1.68 0.0602696
1.69 0.049821
1.7 0.0372434
1.71 0.0227442
1.72 0.00693727
1.73 -0.00958344
1.74 -0.0261672
1.75 -0.0421931
1.76 -0.0569158
1.77 -0.0698649
1.78 -0.0805451
1.79 -0.088487
1.8 -0.0937896
1.81 -0.0959649
1.82 -0.0956273
1.83 -0.0928482
1.84 -0.0882107
1.85 -0.0823424
1.86 -0.0759024
1.87 -0.069661
1.88 -0.0644278
1.89 -0.0608145
1.9 -0.0594062
1.91 -0.0607549
1.92 -0.0647966
1.93 -0.0720264
1.94 -0.0817719
1.95 -0.0938631
1.96 -0.107562
1.97 -0.12208
1.98 -0.136456
1.99 -0.149777
2 -0.160831
2.01 -0.168838
2.02 -0.172918
2.03 -0.172165
2.04 -0.166635
2.05 -0.155217
2.06 -0.138782
2.07 -0.117083
2.08 -0.0907656
2.09 -0.0606166
2.1 -0.0271201
2.11 0.00847069
2.12 0.0454973
2.13 0.0829538
2.14 0.120146
2.15 0.156397
2.16 0.191429
2.17 0.224786
2.18 0.256709
2.19 0.287239
2.2 0.316773
2.21 0.345751
2.22 0.374659
2.23 0.403933
2.24 0.43401
2.25 0.46503
2.26 0.497014
2.27 0.529718
2.28 0.562607
2.29 0.594804
2.3 0.625384
2.31 0.652975
2.32 0.676184
2.33 0.693897
2.34 0.703935
2.35 0.706119
2.36 0.698294
2.37 0.680628
2.38 0.652573
2.39 0.613855
2.4 0.566057
2.41 0.508785
2.42 0.444852
2.43 0.375374
2.44 0.30271
2.45 0.229016
2.46 0.156747
2.47 0.0877616
2.48 0.0245915
2.49 -0.031573
2.5 -0.0793892
2.51 -0.117675
2.52 -0.147162
2.53 -0.166634
2.54 -0.178306
2.55 -0.182593
2.56 -0.181336
2.57 -0.17638
2.58 -0.169458
2.59 -0.162578
2.6 -0.157573
2.61 -0.155799
2.62 -0.158392
2.63 -0.166317
2.64 -0.179267
2.65 -0.197885
2.66 -0.22072
2.67 -0.247196
2.68 -0.275848
2.69 -0.305261
2.7 -0.333803
2.71 -0.360228
2.72 -0.382912
2.73 -0.401162
2.74 -0.414279
2.75 -0.421804
2.76 -0.424475
2.77 -0.422145
2.78 -0.416492
2.79 -0.408419
2.8 -0.399515
2.81 -0.391173
2.82 -0.385085
2.83 -0.382145
2.84 -0.383816
2.85 -0.390332
2.86 -0.401992
2.87 -0.418735
2.88 -0.439438
2.89 -0.463565
2.9 -0.489253
2.91 -0.515099
2.92 -0.539305
2.93 -0.560469
2.94 -0.57661
2.95 -0.58731
2.96 -0.591049
2.97 -0.58816
2.98 -0.578716
2.99 -0.563273
3 -0.543521
3.01 -0.520537
3.02 -0.496639
3.03 -0.473701
3.04 -0.453842
3.05 -0.438593
3.06 -0.430201
3.07 -0.428796
3.08 -0.435911
3.09 -0.450775
3.1 -0.472971
3.11 -0.501479
3.12 -0.534148
3.13 -0.569341
3.14 -0.604431
3.15 -0.637124
3.16 -0.665102
3.17 -0.686836
3.18 -0.699978
3.19 -0.704848
3.2 -0.700149
3.21 -0.687282
3.22 -0.66725
3.23 -0.641856
3.24 -0.613809
3.25 -0.585819
3.26 -0.560778
3.27 -0.54177
3.28 -0.531441
3.29 -0.531328
3.3 -0.544232
3.31 -0.569053
3.32 -0.60714
3.33 -0.656144
3.34 -0.714399
3.35 -0.779208
3.36 -0.846888
3.37 -0.913669
3.38 -0.975877
3.39 -1.02949
3.4 -1.07124
3.41 -1.09931
3.42 -1.11027
3.43 -1.10577
3.44 -1.08428
3.45 -1.04898
3.46 -1.00208
3.47 -0.947067
3.48 -0.888524
3.49 -0.831021
3.5 -0.778867
3.51 -0.736575
3.52 -0.707526
3.53 -0.69319
3.54 -0.69626
3.55 -0.713803
3.56 -0.745245
3.57 -0.785144
3.58 -0.828322
3.59 -0.867065
3.6 -0.894559
3.61 -0.898881
3.62 -0.874524
3.63 -0.810482
3.64 -0.699454
3.65 -0.537932
3.66 -0.315235
3.67 -0.0374752
3.68 0.302186
3.69 0.695071
3.7 1.13662
3.71 1.61935
3.72 2.12917
3.73 2.65594
3.74 3.18298
3.75 3.69541
3.76 4.17697
3.77 4.61551
3.78 4.99041
3.79 5.29871
3.8 5.52125
3.81 5.65809
3.82 5.7038
3.83 5.65355
3.84 5.51938
3.85 5.2932
3.86 4.99627
3.87 4.63237
3.88 4.21627
3.89 3.76268
3.9 3.28339
3.91 2.7951
3.92 2.31076
3.93 1.84284
3.94 1.40174
3.95 0.998378
3.96 0.634786
3.97 0.322602
3.98 0.056436
3.99 -0.159733
4 -0.32931
4.01 -0.457901
4.02 -0.546507
4.03 -0.605942
4.04 -0.638955
4.05 -0.654381
4.06 -0.657579
4.07 -0.65407
4.08 -0.648693
4.09 -0.64523
4.1 -0.645871
4.11 -0.652338
4.12 -0.664903
4.13 -0.6828
4.14 -0.705221
4.15 -0.729887
4.16 -0.754893
4.17 -0.777935
4.18 -0.796996
4.19 -0.809834
4.2 -0.815763
4.21 -0.812441
4.22 -0.800651
4.23 -0.779578
4.24 -0.749819
4.25 -0.712443
4.26 -0.667674
4.27 -0.617543
4.28 -0.562544
4.29 -0.504215
4.3 -0.443387
4.31 -0.38079
4.32 -0.317095
4.33 -0.252484
4.34 -0.187221
4.35 -0.121248
4.36 -0.0545192
4.37 0.0129697
4.38 0.0812453
4.39 0.149993
4.4 0.218806
4.41 0.286938
4.42 0.353456
4.43 0.416908
4.44 0.476313
4.45 0.529171
4.46 0.574767
4.47 0.610878
4.48 0.636123
4.49 0.649928
4.5 0.649963
4.51 0.637625
4.52 0.611283
4.53 0.572625
4.54 0.522354
4.55 0.461518
4.56 0.392827
4.57 0.317309
4.58 0.23815
4.59 0.157256
4.6 0.0770459
4.61 -0.000671924
4.62 -0.0736269
4.63 -0.141163
4.64 -0.201578
4.65 -0.254955
4.66 -0.301133
4.67 -0.340184
4.68 -0.373498
4.69 -0.401229
4.7 -0.425317
4.71 -0.446646
4.72 -0.466569
4.73 -0.486142
4.74 -0.506331
4.75 -0.527641
4.76 -0.550559
4.77 -0.574972
4.78 -0.600653
4.79 -0.627081
4.8 -0.653541
4.81 -0.67909
4.82 -0.702989
4.83 -0.724281
4.84 -0.742247
4.85 -0.756564
4.86 -0.766455
4.87 -0.772463
4.88 -0.774303
4.89 -0.772803
4.9 -0.768546
4.91 -0.762342
4.92 -0.755239
4.93 -0.748188
4.94 -0.742096
4.95 -0.737835
4.96 -0.736061
4.97 -0.737044
4.98 -0.741338
4.99 -0.748465
5 -0.758522
5.01 -0.770799
5.02 -0.784769
5.03 -0.799748
5.04 -0.814987
5.05 -0.82975
5.06 -0.843506
5.07 -0.855702
5.08 -0.866006
5.09 -0.874349
5.1 -0.880449
5.11 -0.884668
5.12 -0.886891
5.13 -0.887415
5.14 -0.886278
5.15 -0.883339
5.16 -0.878577
5.17 -0.871163
5.18 -0.860754
5.19 -0.846144
5.2 -0.826118
5.21 -0.799703
5.22 -0.764452
5.23 -0.720133
5.24 -0.664103
5.25 -0.596106
5.26 -0.515197
5.27 -0.420365
5.28 -0.31326
5.29 -0.19277
5.3 -0.0622615
5.31 0.0770042
5.32 0.221837
5.33 0.368906
5.34 0.51415
5.35 0.653948
5.36 0.783191
5.37 0.89845
5.38 0.99591
5.39 1.07094
5.4 1.12345
5.41 1.14742
5.42 1.14579
5.43 1.11624
5.44 1.06023
5.45 0.980743
5.46 0.878014
5.47 0.758364
5.48 0.623725
5.49 0.479822
5.5 0.33076
5.51 0.181284
5.52 0.035265
5.53 -0.102388
5.54 -0.22962
5.55 -0.343077
5.56 -0.441095
5.57 -0.523589
5.58 -0.588471
5.59 -0.638593
5.6 -0.673209
5.61 -0.695244
5.62 -0.706345
5.63 -0.708329
5.64 -0.704077
5.65 -0.694798
5.66 -0.682889
5.67 -0.669432
5.68 -0.655448
5.69 -0.641393
5.7 -0.627293
5.71 -0.61281
5.72 -0.597182
5.73 -0.57958
5.74 -0.559058
5.75 -0.534415
5.76 -0.505366
5.77 -0.470564
5.78 -0.430606
5.79 -0.385259
5.8 -0.335289
5.81 -0.281885
5.82 -0.226254
5.83 -0.170334
5.84 -0.116122
5.85 -0.0656088
5.86 -0.0207403
5.87 0.0161095
5.88 0.0443321
5.89 0.0610676
5.9 0.0670872
5.91 0.0611688
5.92 0.0436947
5.93 0.0158706
5.94 -0.0223089
5.95 -0.068063
5.96 -0.120564
5.97 -0.177299
5.98 -0.236501
5.99 -0.296203
6 -0.35482
6.01 -0.410552
6.02 -0.462715
6.03 -0.51032
6.04 -0.553098
6.05 -0.591354
6.06 -0.624977
6.07 -0.655212
6.08 -0.682493
6.09 -0.708021
6.1 -0.732642
6.11 -0.757238
6.12 -0.78241
6.13 -0.808737
6.14 -0.836213
6.15 -0.864807
6.16 -0.894073
6.17 -0.923407
6.18 -0.951911
6.19 -0.97885
6.2 -1.00308
6.21 -1.02395
6.22 -1.0408
6.23 -1.05291
6.24 -1.06064
6.25 -1.06336
6.26 -1.06217
6.27 -1.05735
6.28 -1.04984
6.29 -1.04059
6.3 -1.03037
6.31 -1.01999
6.32 -1.00988
6.33 -1.00006
6.34 -0.9901
6.35 -0.978845
6.36 -0.964955
6.37 -0.94544
6.38 -0.91824
6.39 -0.879491
6.4 -0.825411
6.41 -0.753359
6.42 -0.656777
6.43 -0.535606
6.44 -0.383471
6.45 -0.200344
6.46 0.0154422
6.47 0.265895
6.48 0.546429
6.49 0.85939
6.5 1.19665
6.51 1.5553
6.52 1.9282
6.53 2.30792
6.54 2.68595
6.55 3.05419
6.56 3.402
6.57 3.72164
6.58 4.00485
6.59 4.24108
6.6 4.42935
6.61 4.55571
6.62 4.62484
6.63 4.63008
6.64 4.5721
6.65 4.45578
6.66 4.27766
6.67 4.05078
6.68 3.77541
6.69 3.46307
6.7 3.12117
6.71 2.75805
6.72 2.38417
6.73 2.00786
6.74 1.63791
6.75 1.28237
6.76 0.948372
6.77 0.639854
6.78 0.364983
6.79 0.122067
6.8 -0.0830331
6.81 -0.252831
6.82 -0.387728
6.83 -0.487951
6.84 -0.559692
6.85 -0.602079
6.86 -0.622912
6.87 -0.624398
6.88 -0.611241
6.89 -0.587849
6.9 -0.557124
6.91 -0.523131
6.92 -0.488289
6.93 -0.454936
6.94 -0.42461
6.95 -0.398694
6.96 -0.37727
6.97 -0.361306
6.98 -0.349937
6.99 -0.343185
7 -0.340455
7.01 -0.341025
7.02 -0.344715
7.03 -0.350687
7.04 -0.358914
7.05 -0.369052
7.06 -0.381105
7.07 -0.395303
7.08 -0.411609
7.09 -0.430678
7.1 -0.452428
7.11 -0.477317
7.12 -0.505485
7.13 -0.536789
7.14 -0.571502
7.15 -0.608898
7.16 -0.64886
7.17 -0.690562
7.18 -0.73333
7.19 -0.776289
7.2 -0.818616
7.21 -0.859202
7.22 -0.897439
7.23 -0.932414
7.24 -0.963505
7.25 -0.99053
7.26 -1.01268
7.27 -1.03055
7.28 -1.04372
7.29 -1.05283
7.3 -1.0582
7.31 -1.06017
7.32 -1.05954
7.33 -1.05641
7.34 -1.05149
7.35 -1.04484
7.36 -1.03653
7.37 -1.02651
7.38 -1.01409
7.39 -0.999009
7.4 -0.980039
7.41 -0.956407
7.42 -0.926999
7.43 -0.890143
7.44 -0.845559
7.45 -0.790724
7.46 -0.726061
7.47 -0.650112
7.48 -0.562591
7.49 -0.464147
7.5 -0.353846
7.51 -0.234101
7.52 -0.10504
7.53 0.0308503
7.54 0.171655
7.55 0.314912
7.56 0.457898
7.57 0.597309
7.58 0.730637
7.59 0.854525
7.6 0.965998
7.61 1.0634
7.62 1.14229
7.63 1.20338
7.64 1.2429
7.65 1.2615
7.66 1.25868
7.67 1.23347
7.68 1.189
7.69 1.12361
7.7 1.04188
7.71 0.944741
7.72 0.835191
7.73 0.716584
7.74 0.591304
7.75 0.4633
7.76 0.335535
7.77 0.211227
7.78 0.0931192
7.79 -0.015487
7.8 -0.113542
7.81 -0.197193
7.82 -0.266916
7.83 -0.320716
7.84 -0.358286
7.85 -0.380643
7.86 -0.386488
7.87 -0.379074
7.88 -0.358241
7.89 -0.326906
7.9 -0.287006
7.91 -0.240718
7.92 -0.191025
7.93 -0.14027
7.94 -0.0911351
7.95 -0.046082
7.96 -0.00745363
7.97 0.0233995
7.98 0.0436968
7.99 0.0537936
8 0.0516699
8.01 0.0379731
8.02 0.0128353
8.03 -0.0236557
8.04 -0.0693008
8.05 -0.124015
8.06 -0.184925
8.07 -0.250707
8.08 -0.319199
8.09 -0.388479
8.1 -0.456533
8.11 -0.521949
8.12 -0.582946
8.13 -0.638724
8.14 -0.68859
8.15 -0.731837
8.16 -0.769235
8.17 -0.800282
8.18 -0.826517
8.19 -0.848469
8.2 -0.867327
8.21 -0.884265
8.22 -0.900198
8.23 -0.916052
8.24 -0.932379
8.25 -0.94932
8.26 -0.966622
8.27 -0.983455
8.28 -0.998731
8.29 -1.01023
8.3 -1.01626
8.31 -1.01393
8.32 -1.00027
8.33 -0.973341
8.34 -0.928118
8.35 -0.864555
8.36 -0.77793
8.37 -0.668027
8.38 -0.53366
8.39 -0.373017
8.4 -0.189455
8.41 0.0191048
8.42 0.246958
8.43 0.492325
8.44 0.750501
8.45 1.01626
8.46 1.28428
8.47 1.54859
8.48 1.80239
8.49 2.04002
8.5 2.2559
8.51 2.44269
8.52 2.59924
8.53 2.71621
8.54 2.79582
8.55 2.83343
8.56 2.82861
8.57 2.78432
8.58 2.6972
8.59 2.57565
8.6 2.41905
8.61 2.23448
8.62 2.02652
8.63 1.79986
8.64 1.56173
8.65 1.31666
8.66 1.07109
8.67 0.829981
8.68 0.598356
8.69 0.379261
8.7 0.178089
8.71 -0.00527772
8.72 -0.166904
8.73 -0.307473
8.74 -0.426842
8.75 -0.524472
8.76 -0.603888
8.77 -0.664093
8.78 -0.709704
8.79 -0.74191
8.8 -0.763499
8.81 -0.777358
8.82 -0.785178
8.83 -0.789859
8.84 -0.792968
8.85 -0.796275
8.86 -0.800939
8.87 -0.808039
8.88 -0.817805
8.89 -0.830927
8.9 -0.846921
8.91 -0.865729
8.92 -0.886839
8.93 -0.909595
8.94 -0.933486
8.95 -0.957739
8.96 -0.981761
8.97 -1.00499
8.98 -1.027
8.99 -1.04732
9 -1.0659
9.01 -1.08232
9.02 -1.0968
9.03 -1.10923
9.04 -1.11969
9.05 -1.12839
9.06 -1.13517
9.07 -1.14034
9.08 -1.14368
9.09 -1.14522
9.1 -1.1448
9.11 -1.14198
9.12 -1.13673
9.13 -1.12817
9.14 -1.11627
9.15 -1.10031
9.16 -1.07978
9.17 -1.05457
9.18 -1.02364
9.19 -0.987538
9.2 -0.945519
9.21 -0.898066
9.22 -0.845407
9.23 -0.787748
9.24 -0.726259
9.25 -0.661301
9.26 -0.594386
9.27 -0.526546
9.28 -0.459229
9.29 -0.393664
9.3 -0.331703
9.31 -0.274162
9.32 -0.222913
9.33 -0.178702
9.34 -0.142413
9.35 -0.115301
9.36 -0.0967239
9.37 -0.0881811
9.38 -0.0881908
9.39 -0.0968977
9.4 -0.113417
9.41 -0.136344
9.42 -0.165152
9.43 -0.197735
9.44 -0.233093
9.45 -0.269522
9.46 -0.305727
9.47 -0.340266
9.48 -0.372319
9.49 -0.400494
9.5 -0.42465
9.51 -0.444149
9.52 -0.458917
9.53 -0.469411
9.54 -0.475529
9.55 -0.478466
9.56 -0.47862
9.57 -0.477091
9.58 -0.474726
9.59 -0.472478
9.6 -0.471089
9.61 -0.4715
9.62 -0.474053
9.63 -0.479287
9.64 -0.48743
9.65 -0.498342
9.66 -0.512273
9.67 -0.528577
9.68 -0.547207
9.69 -0.567601
9.7 -0.589387
9.71 -0.612228
9.72 -0.635706
9.73 -0.659631
9.74 -0.683758
9.75 -0.707981
9.76 -0.732201
9.77 -0.756337
9.78 -0.780211
9.79 -0.80361
9.8 -0.826022
9.81 -0.846801
9.82 -0.86504
9.83 -0.879108
9.84 -0.88795
9.85 -0.888459
9.86 -0.879299
9.87 -0.857204
9.88 -0.819109
9.89 -0.763372
9.9 -0.684236
9.91 -0.582322
9.92 -0.452323
9.93 -0.29414
9.94 -0.106594
9.95 0.112669
9.96 0.359676
9.97 0.637203
9.98 0.93882
9.99 1.26274
10 1.60387
10.01 1.95611
10.02 2.31375
10.03 2.66946
10.04 3.01551
10.05 3.34479
10.06 3.65052
10.07 3.92348
10.08 4.16163
10.09 4.3534
10.1 4.50032
10.11 4.59629
10.12 4.63959
10.13 4.63335
10.14 4.57203
10.15 4.46561
10.16 4.31227
10.17 4.1201
10.18 3.89433
10.19 3.63981
10.2 3.36584
10.21 3.07693
10.22 2.78171
10.23 2.48591
10.24 2.19592
10.25 1.91599
10.26 1.65244
10.27 1.40618
10.28 1.18179
10.29 0.979271
10.3 0.799049
10.31 0.64213
10.32 0.504882
10.33 0.388515
10.34 0.28821
10.35 0.202692
10.36 0.129066
10.37 0.0641802
10.38 0.00636378
10.39 -0.0475443
10.4 -0.0990756
10.41 -0.150071
10.42 -0.201662
10.43 -0.25482
10.44 -0.309785
10.45 -0.366979
10.46 -0.425949
10.47 -0.486424
10.48 -0.54777
10.49 -0.609305
10.5 -0.670185
10.51 -0.729759
10.52 -0.787092
10.53 -0.841588
10.54 -0.892653
10.55 -0.939421
10.56 -0.981922
10.57 -1.01901
10.58 -1.05099
10.59 -1.07723
10.6 -1.09748
10.61 -1.11195
10.62 -1.1197
10.63 -1.12158
10.64 -1.11689
10.65 -1.10612
10.66 -1.08946
10.67 -1.06686
10.68 -1.03936
10.69 -1.00682
10.7 -0.970555
10.71 -0.931123
10.72 -0.889555
10.73 -0.846934
10.74 -0.804386
10.75 -0.762993
10.76 -0.724056
10.77 -0.688547
10.78 -0.657372
10.79 -0.631765
10.8 -0.611712
10.81 -0.598619
10.82 -0.591875
10.83 -0.591933
10.84 -0.598572
10.85 -0.610984
10.86 -0.629299
10.87 -0.65198
10.88 -0.678695
10.89 -0.708219
10.9 -0.739677
10.91 -0.772173
10.92 -0.804812
10.93 -0.83678
10.94 -0.867524
10.95 -0.896492
10.96 -0.923312
10.97 -0.947952
10.98 -0.970041
10.99 -0.989997
11 -1.00772
11.01 -1.02361
11.02 -1.03793
11.03 -1.05091
11.04 -1.06297
11.05 -1.07427
11.06 -1.08514
11.07 -1.09573
11.08 -1.10615
11.09 -1.11648
11.1 -1.12669
11.11 -1.13671
11.12 -1.14638
11.13 -1.15549
11.14 -1.16377
11.15 -1.17078
11.16 -1.17625
11.17 -1.17933
11.18 -1.17966
11.19 -1.17634
11.2 -1.16839
11.21 -1.15523
11.22 -1.13483
11.23 -1.10701
11.24 -1.06953
11.25 -1.02156
11.26 -0.961874
11.27 -0.888209
11.28 -0.801081
11.29 -0.697293
11.3 -0.578212
11.31 -0.442524
11.32 -0.290359
11.33 -0.12341
11.34 0.0590612
11.35 0.253188
11.36 0.458003
11.37 0.669788
11.38 0.885359
11.39 1.10067
11.4 1.31196
11.41 1.51374
11.42 1.70271
11.43 1.87387
11.44 2.02275
11.45 2.14759
11.46 2.24145
11.47 2.30638
11.48 2.33723
11.49 2.33539
11.5 2.30116
11.51 2.23357
11.52 2.13821
11.53 2.01382
11.54 1.86747
11.55 1.70164
11.56 1.52117
11.57 1.33128
11.58 1.13607
11.59 0.940653
11.6 0.749367
11.61 0.565934
11.62 0.393284
11.63 0.234983
11.64 0.0910142
11.65 -0.035261
11.66 -0.145757
11.67 -0.239889
11.68 -0.318798
11.69 -0.384957
11.7 -0.438788
11.71 -0.484127
11.72 -0.522258
11.73 -0.555954
11.74 -0.587117
11.75 -0.617509
11.76 -0.648438
11.77 -0.680958
11.78 -0.715254
11.79 -0.751319
11.8 -0.788501
11.81 -0.8258
11.82 -0.861634
11.83 -0.89461
11.84 -0.922502
11.85 -0.943619
11.86 -0.956264
11.87 -0.957911
11.88 -0.948452
11.89 -0.924844
11.9 -0.888002
11.91 -0.836712
11.92 -0.771014
11.93 -0.692377
11.94 -0.600026
11.95 -0.497186
11.96 -0.384311
11.97 -0.264101
11.98 -0.138643
11.99 -0.0102168
12 0.118606
12.01 0.245177
12.02 0.367358
12.03 0.482692
12.04 0.588891
12.05 0.684933
12.06 0.767546
12.07 0.837404
12.08 0.891993
12.09 0.931599
12.1 0.956054
12.11 0.964354
12.12 0.958696
12.13 0.937658
12.14 0.904073
12.15 0.85831
12.16 0.801879
12.17 0.736958
12.18 0.664264
12.19 0.586583
12.2 0.505102
12.21 0.421855
12.22 0.338351
12.23 0.256226
12.24 0.1765
12.25 0.100722
12.26 0.02924
12.27 -0.0371481
12.28 -0.0981141
12.29 -0.15402
12.3 -0.20438
12.31 -0.250382
12.32 -0.292099
12.33 -0.330521
12.34 -0.366367
12.35 -0.400291
12.36 -0.433139
12.37 -0.465361
12.38 -0.49742
