# xPDFsuite Configuration #
[PDF]
wavelength = 0.1432
dataformat = twotheta
inputfile = 1_1Pd_CeO2_cycle-00267.chi
backgroundfile = background-00000.chi
mode = xray
bgscale = 1.007
composition = CeO2
outputtype = gr
qmaxinst = 28.8974762299
qmin = 0.5
qmax = 27.9
rmax = 50.0
rmin = 0.0
rstep = 0.01
rpoly = 1.8657

[Misc]
inputdir = G:/SankarDec16/1Pd/Chi
savedir = D:/DATA/APS_CeO2/1Pd
backgroundfilefull = G:/SankarDec16/Background/background-00000.chi

#### start data
#S 1
#L r($\AA$)  G($\AA^{-2}$)
0 0
0.01 -0.00752501
0.02 -0.0144854
0.03 -0.0202997
0.04 -0.0245294
0.05 -0.0269301
0.06 -0.0271082
0.07 -0.0253235
0.08 -0.0214471
0.09 -0.0159754
0.1 -0.00925066
0.11 -0.00179834
0.12 0.00580582
0.13 0.0129185
0.14 0.019079
0.15 0.0237261
0.16 0.0265277
0.17 0.0273484
0.18 0.0259151
0.19 0.0226068
0.2 0.0174314
0.21 0.0109661
0.22 0.00363585
0.23 -0.00397008
0.24 -0.0113076
0.25 -0.0176834
0.26 -0.0227609
0.27 -0.0260249
0.28 -0.0272642
0.29 -0.0264589
0.3 -0.0234687
0.31 -0.0187753
0.32 -0.0125232
0.33 -0.00534517
0.34 0.00227031
0.35 0.00969595
0.36 0.0164438
0.37 0.0218015
0.38 0.025572
0.39 0.0273089
0.4 0.0269319
0.41 0.0245379
0.42 0.020126
0.43 0.0142598
0.44 0.00721372
0.45 -0.000351346
0.46 -0.00790546
0.47 -0.0148108
0.48 -0.0206578
0.49 -0.024747
0.5 -0.0270298
0.51 -0.0271494
0.52 -0.0251604
0.53 -0.0212724
0.54 -0.0156252
0.55 -0.0088388
0.56 -0.0013063
0.57 0.00631279
0.58 0.0134708
0.59 0.0195475
0.6 0.0242307
0.61 0.0268653
0.62 0.027554
0.63 0.0260462
0.64 0.0225295
0.65 0.0173178
0.66 0.0106857
0.67 0.00328284
0.68 -0.00439638
0.69 -0.0117228
0.7 -0.0181556
0.71 -0.0231195
0.72 -0.0264142
0.73 -0.0274579
0.74 -0.0265005
0.75 -0.0234087
0.76 -0.0184951
0.77 -0.0121635
0.78 -0.00481099
0.79 0.00291271
0.8 0.010435
0.81 0.0171853
0.82 0.0226549
0.83 0.0263396
0.84 0.0281597
0.85 0.0276336
0.86 0.0251455
0.87 0.0206837
0.88 0.0146687
0.89 0.00757243
0.9 -0.000109551
0.91 -0.00776182
0.92 -0.0147703
0.93 -0.0206553
0.94 -0.0249743
0.95 -0.0273305
0.96 -0.0277728
0.97 -0.0259652
0.98 -0.0224058
0.99 -0.0172221
1 -0.0109274
1.01 -0.00403866
1.02 0.00286243
1.03 0.0092423
1.04 0.0144726
1.05 0.0182128
1.06 0.0201273
1.07 0.0199769
1.08 0.0179718
1.09 0.0139905
1.1 0.00866039
1.11 0.00230681
1.12 -0.00443077
1.13 -0.0109684
1.14 -0.0165676
1.15 -0.0207956
1.16 -0.0229298
1.17 -0.0227824
1.18 -0.020093
1.19 -0.0147463
1.2 -0.00715545
1.21 0.00266366
1.22 0.0138626
1.23 0.0259354
1.24 0.0380552
1.25 0.0494999
1.26 0.0593131
1.27 0.0670333
1.28 0.0717285
1.29 0.0732131
1.3 0.0711449
1.31 0.0653269
1.32 0.0562596
1.33 0.043772
1.34 0.0288913
1.35 0.0120339
1.36 -0.00591523
1.37 -0.0241608
1.38 -0.0417913
1.39 -0.0581489
1.4 -0.0723176
1.41 -0.0839098
1.42 -0.0924596
1.43 -0.097583
1.44 -0.0995547
1.45 -0.0979323
1.46 -0.0934927
1.47 -0.0863146
1.48 -0.0769689
1.49 -0.0660071
1.5 -0.0538587
1.51 -0.0411574
1.52 -0.0283238
1.53 -0.0157833
1.54 -0.00384453
1.55 0.00721359
1.56 0.0173471
1.57 0.026311
1.58 0.0342658
1.59 0.0411352
1.6 0.0469949
1.61 0.051919
1.62 0.0558257
1.63 0.0588289
1.64 0.0607417
1.65 0.0615621
1.66 0.0611375
1.67 0.0592592
1.68 0.0559418
1.69 0.0507931
1.7 0.0440082
1.71 0.0354138
1.72 0.0251385
1.73 0.0133994
1.74 0.000336898
1.75 -0.0135465
1.76 -0.0279052
1.77 -0.0421916
1.78 -0.0559172
1.79 -0.068496
1.8 -0.0796242
1.81 -0.0885992
1.82 -0.0954615
1.83 -0.0998565
1.84 -0.101853
1.85 -0.101685
1.86 -0.0994631
1.87 -0.095856
1.88 -0.0912416
1.89 -0.0863314
1.9 -0.0817058
1.91 -0.0780386
1.92 -0.0757054
1.93 -0.0754111
1.94 -0.077109
1.95 -0.0810724
1.96 -0.0871186
1.97 -0.0948876
1.98 -0.104019
1.99 -0.113739
2 -0.123334
2.01 -0.131968
2.02 -0.138826
2.03 -0.142951
2.04 -0.14398
2.05 -0.140702
2.06 -0.133343
2.07 -0.121277
2.08 -0.1046
2.09 -0.0836411
2.1 -0.0583066
2.11 -0.0295977
2.12 0.00235268
2.13 0.0366208
2.14 0.0726855
2.15 0.10998
2.16 0.147939
2.17 0.18624
2.18 0.224582
2.19 0.262846
2.2 0.301018
2.21 0.339164
2.22 0.37741
2.23 0.415844
2.24 0.454544
2.25 0.493424
2.26 0.532282
2.27 0.570661
2.28 0.608057
2.29 0.643335
2.3 0.675776
2.31 0.70392
2.32 0.726477
2.33 0.742455
2.34 0.749662
2.35 0.748151
2.36 0.735753
2.37 0.712813
2.38 0.678863
2.39 0.633711
2.4 0.579095
2.41 0.514684
2.42 0.443469
2.43 0.366695
2.44 0.286895
2.45 0.206381
2.46 0.127857
2.47 0.0532926
2.48 -0.0144891
2.49 -0.0742008
2.5 -0.124332
2.51 -0.163524
2.52 -0.192594
2.53 -0.210082
2.54 -0.218485
2.55 -0.218208
2.56 -0.211318
2.57 -0.199918
2.58 -0.185972
2.59 -0.171859
2.6 -0.159731
2.61 -0.151274
2.62 -0.147922
2.63 -0.150964
2.64 -0.160175
2.65 -0.176552
2.66 -0.198486
2.67 -0.225505
2.68 -0.255994
2.69 -0.288321
2.7 -0.320699
2.71 -0.351495
2.72 -0.378823
2.73 -0.401642
2.74 -0.418968
2.75 -0.430037
2.76 -0.435471
2.77 -0.434831
2.78 -0.429899
2.79 -0.42151
2.8 -0.411391
2.81 -0.40113
2.82 -0.392603
2.83 -0.387017
2.84 -0.386104
2.85 -0.390372
2.86 -0.400355
2.87 -0.416226
2.88 -0.436894
2.89 -0.462017
2.9 -0.489549
2.91 -0.518046
2.92 -0.545485
2.93 -0.570206
2.94 -0.589931
2.95 -0.60394
2.96 -0.610351
2.97 -0.609261
2.98 -0.60051
2.99 -0.584434
3 -0.562796
3.01 -0.536486
3.02 -0.508151
3.03 -0.47977
3.04 -0.453795
3.05 -0.432105
3.06 -0.417347
3.07 -0.41001
3.08 -0.41208
3.09 -0.42305
3.1 -0.442773
3.11 -0.470478
3.12 -0.503909
3.13 -0.541655
3.14 -0.580691
3.15 -0.61862
3.16 -0.652752
3.17 -0.68118
3.18 -0.701156
3.19 -0.712601
3.2 -0.713781
3.21 -0.705821
3.22 -0.689466
3.23 -0.66629
3.24 -0.639097
3.25 -0.610412
3.26 -0.583492
3.27 -0.561529
3.28 -0.547501
3.29 -0.543271
3.3 -0.551973
3.31 -0.572815
3.32 -0.607459
3.33 -0.653719
3.34 -0.710052
3.35 -0.773826
3.36 -0.841206
3.37 -0.908368
3.38 -0.971318
3.39 -1.0258
3.4 -1.06821
3.41 -1.09651
3.42 -1.10693
3.43 -1.10108
3.44 -1.07724
3.45 -1.03872
3.46 -0.987896
3.47 -0.928532
3.48 -0.865628
3.49 -0.804309
3.5 -0.749345
3.51 -0.705887
3.52 -0.677839
3.53 -0.666975
3.54 -0.67663
3.55 -0.703602
3.56 -0.747647
3.57 -0.802773
3.58 -0.86339
3.59 -0.921091
3.6 -0.968095
3.61 -0.991371
3.62 -0.984346
3.63 -0.934698
3.64 -0.83395
3.65 -0.677827
3.66 -0.4541
3.67 -0.169139
3.68 0.185065
3.69 0.59919
3.7 1.06845
3.71 1.58482
3.72 2.13264
3.73 2.7009
3.74 3.2708
3.75 3.82584
3.76 4.34772
3.77 4.82271
3.78 5.22775
3.79 5.55926
3.8 5.79585
3.81 5.93745
3.82 5.97801
3.83 5.91228
3.84 5.75377
3.85 5.4939
3.86 5.15658
3.87 4.74658
3.88 4.28079
3.89 3.77599
3.9 3.24617
3.91 2.70986
3.92 2.18236
3.93 1.67739
3.94 1.20672
3.95 0.782628
3.96 0.406665
3.97 0.0919574
3.98 -0.168669
3.99 -0.37126
4 -0.520598
4.01 -0.623859
4.02 -0.683246
4.03 -0.711648
4.04 -0.713312
4.05 -0.698724
4.06 -0.67457
4.07 -0.647769
4.08 -0.62351
4.09 -0.606928
4.1 -0.599584
4.11 -0.60353
4.12 -0.618456
4.13 -0.642746
4.14 -0.675053
4.15 -0.71169
4.16 -0.749913
4.17 -0.786222
4.18 -0.817691
4.19 -0.841111
4.2 -0.855396
4.21 -0.857321
4.22 -0.847901
4.23 -0.826069
4.24 -0.792726
4.25 -0.749433
4.26 -0.696753
4.27 -0.63757
4.28 -0.572922
4.29 -0.505076
4.3 -0.435421
4.31 -0.36527
4.32 -0.295488
4.33 -0.22675
4.34 -0.159095
4.35 -0.092523
4.36 -0.0266941
4.37 0.0387818
4.38 0.104286
4.39 0.170042
4.4 0.236098
4.41 0.302127
4.42 0.36753
4.43 0.431171
4.44 0.49204
4.45 0.547835
4.46 0.597484
4.47 0.638597
4.48 0.669371
4.49 0.6888
4.5 0.694009
4.51 0.685989
4.52 0.662515
4.53 0.624988
4.54 0.573804
4.55 0.509727
4.56 0.435673
4.57 0.352431
4.58 0.263759
4.59 0.171762
4.6 0.0793948
4.61 -0.0109937
4.62 -0.0965316
4.63 -0.176023
4.64 -0.2471
4.65 -0.309447
4.66 -0.3625
4.67 -0.405924
4.68 -0.441231
4.69 -0.468156
4.7 -0.489156
4.71 -0.505148
4.72 -0.517907
4.73 -0.528969
4.74 -0.539691
4.75 -0.551183
4.76 -0.564408
4.77 -0.579721
4.78 -0.597277
4.79 -0.616954
4.8 -0.63809
4.81 -0.660116
4.82 -0.68205
4.83 -0.702988
4.84 -0.721992
4.85 -0.738453
4.86 -0.751395
4.87 -0.760943
4.88 -0.766544
4.89 -0.768696
4.9 -0.767734
4.91 -0.764214
4.92 -0.759115
4.93 -0.753173
4.94 -0.747409
4.95 -0.742674
4.96 -0.73975
4.97 -0.739076
4.98 -0.741348
4.99 -0.746319
5 -0.754275
5.01 -0.764692
5.02 -0.777198
5.03 -0.791271
5.04 -0.806185
5.05 -0.82136
5.06 -0.836171
5.07 -0.850093
5.08 -0.862718
5.09 -0.873867
5.1 -0.883196
5.11 -0.890898
5.12 -0.896762
5.13 -0.900943
5.14 -0.903367
5.15 -0.903759
5.16 -0.902026
5.17 -0.897174
5.18 -0.888829
5.19 -0.875655
5.2 -0.856355
5.21 -0.829917
5.22 -0.793708
5.23 -0.747554
5.24 -0.688623
5.25 -0.616696
5.26 -0.530782
5.27 -0.429816
5.28 -0.315595
5.29 -0.18693
5.3 -0.0474602
5.31 0.101453
5.32 0.256359
5.33 0.413656
5.34 0.568937
5.35 0.718271
5.36 0.856095
5.37 0.978665
5.38 1.08181
5.39 1.16045
5.4 1.21447
5.41 1.23729
5.42 1.23208
5.43 1.19633
5.44 1.13164
5.45 1.04131
5.46 0.925671
5.47 0.791696
5.48 0.641637
5.49 0.481871
5.5 0.317026
5.51 0.152491
5.52 -0.00744819
5.53 -0.157131
5.54 -0.294353
5.55 -0.415283
5.56 -0.518089
5.57 -0.602762
5.58 -0.666966
5.59 -0.714109
5.6 -0.743457
5.61 -0.75852
5.62 -0.761353
5.63 -0.754268
5.64 -0.740692
5.65 -0.722351
5.66 -0.70205
5.67 -0.681288
5.68 -0.66137
5.69 -0.642835
5.7 -0.625952
5.71 -0.610099
5.72 -0.594531
5.73 -0.578039
5.74 -0.559387
5.75 -0.537001
5.76 -0.510207
5.77 -0.477227
5.78 -0.438386
5.79 -0.393119
5.8 -0.342004
5.81 -0.286204
5.82 -0.226778
5.83 -0.165957
5.84 -0.105802
5.85 -0.0486839
5.86 0.00313574
5.87 0.0468719
5.88 0.0815651
5.89 0.103853
5.9 0.114292
5.91 0.111294
5.92 0.0950485
5.93 0.0667548
5.94 0.0261914
5.95 -0.0235173
5.96 -0.0815576
5.97 -0.14502
5.98 -0.211852
5.99 -0.279732
6 -0.346675
6.01 -0.410493
6.02 -0.470198
6.03 -0.52448
6.04 -0.572841
6.05 -0.61551
6.06 -0.652154
6.07 -0.68421
6.08 -0.712036
6.09 -0.737071
6.1 -0.760312
6.11 -0.782816
6.12 -0.805444
6.13 -0.828921
6.14 -0.853449
6.15 -0.879114
6.16 -0.905568
6.17 -0.932242
6.18 -0.95826
6.19 -0.98284
6.2 -1.00481
6.21 -1.02346
6.22 -1.03809
6.23 -1.04799
6.24 -1.05353
6.25 -1.0542
6.26 -1.05122
6.27 -1.04508
6.28 -1.03697
6.29 -1.02805
6.3 -1.01953
6.31 -1.01228
6.32 -1.00713
6.33 -1.00413
6.34 -1.00289
6.35 -1.00227
6.36 -1.00051
6.37 -0.994462
6.38 -0.981339
6.39 -0.956677
6.4 -0.915843
6.41 -0.855454
6.42 -0.767716
6.43 -0.652096
6.44 -0.500922
6.45 -0.313779
6.46 -0.0884401
6.47 0.177738
6.48 0.479555
6.49 0.820003
6.5 1.18956
6.51 1.58488
6.52 1.99756
6.53 2.41875
6.54 2.83839
6.55 3.24677
6.56 3.6313
6.57 3.98276
6.58 4.29142
6.59 4.54494
6.6 4.74227
6.61 4.86734
6.62 4.92595
6.63 4.91083
6.64 4.82337
6.65 4.66985
6.66 4.44735
6.67 4.1714
6.68 3.84361
6.69 3.47782
6.7 3.0833
6.71 2.67064
6.72 2.25159
6.73 1.83695
6.74 1.43579
6.75 1.05758
6.76 0.709819
6.77 0.395954
6.78 0.124754
6.79 -0.107422
6.8 -0.294943
6.81 -0.442244
6.82 -0.551088
6.83 -0.623277
6.84 -0.666628
6.85 -0.681852
6.86 -0.677842
6.87 -0.657971
6.88 -0.627663
6.89 -0.591434
6.9 -0.552782
6.91 -0.514849
6.92 -0.479987
6.93 -0.449427
6.94 -0.423852
6.95 -0.403616
6.96 -0.387771
6.97 -0.376199
6.98 -0.367394
6.99 -0.360651
7 -0.355025
7.01 -0.34988
7.02 -0.344897
7.03 -0.340069
7.04 -0.335794
7.05 -0.33274
7.06 -0.331798
7.07 -0.334312
7.08 -0.340967
7.09 -0.353704
7.1 -0.372656
7.11 -0.398986
7.12 -0.432965
7.13 -0.474101
7.14 -0.522716
7.15 -0.576904
7.16 -0.635991
7.17 -0.697876
7.18 -0.760814
7.19 -0.822611
7.2 -0.88157
7.21 -0.9351
7.22 -0.982294
7.23 -1.0214
7.24 -1.05159
7.25 -1.07303
7.26 -1.08475
7.27 -1.08864
7.28 -1.08479
7.29 -1.07522
7.3 -1.0614
7.31 -1.04504
7.32 -1.02798
7.33 -1.01187
7.34 -0.997824
7.35 -0.986853
7.36 -0.979317
7.37 -0.974866
7.38 -0.973045
7.39 -0.972266
7.4 -0.970809
7.41 -0.966445
7.42 -0.956852
7.43 -0.93885
7.44 -0.911032
7.45 -0.869124
7.46 -0.813
7.47 -0.740077
7.48 -0.649595
7.49 -0.542407
7.5 -0.417077
7.51 -0.277404
7.52 -0.123794
7.53 0.0397318
7.54 0.210028
7.55 0.3831
7.56 0.554831
7.57 0.720103
7.58 0.875479
7.59 1.01623
7.6 1.13852
7.61 1.24057
7.62 1.31694
7.63 1.36947
7.64 1.39413
7.65 1.39283
7.66 1.366
7.67 1.31378
7.68 1.2408
7.69 1.14664
7.7 1.0372
7.71 0.91461
7.72 0.782902
7.73 0.645921
7.74 0.5071
7.75 0.369942
7.76 0.237921
7.77 0.113588
7.78 -0.00074947
7.79 -0.102323
7.8 -0.191141
7.81 -0.263926
7.82 -0.322192
7.83 -0.364637
7.84 -0.391666
7.85 -0.404713
7.86 -0.403036
7.87 -0.389802
7.88 -0.365065
7.89 -0.331432
7.9 -0.29058
7.91 -0.244332
7.92 -0.195166
7.93 -0.145002
7.94 -0.0960968
7.95 -0.0505494
7.96 -0.0104421
7.97 0.0229334
7.98 0.046929
7.99 0.0616143
8 0.0648251
8.01 0.0567959
8.02 0.0372803
8.03 0.00587351
8.04 -0.0355584
8.05 -0.087509
8.06 -0.147226
8.07 -0.213707
8.08 -0.284864
8.09 -0.358619
8.1 -0.432991
8.11 -0.506034
8.12 -0.575726
8.13 -0.640707
8.14 -0.69982
8.15 -0.751808
8.16 -0.797082
8.17 -0.834568
8.18 -0.865714
8.19 -0.890784
8.2 -0.91096
8.21 -0.927625
8.22 -0.941762
8.23 -0.954837
8.24 -0.967717
8.25 -0.981076
8.26 -0.995095
8.27 -1.00944
8.28 -1.02326
8.29 -1.03476
8.3 -1.04215
8.31 -1.04258
8.32 -1.03284
8.33 -1.01058
8.34 -0.970291
8.35 -0.911302
8.36 -0.828142
8.37 -0.719946
8.38 -0.584897
8.39 -0.420394
8.4 -0.22973
8.41 -0.00999493
8.42 0.232642
8.43 0.496516
8.44 0.776458
8.45 1.06648
8.46 1.36064
8.47 1.65175
8.48 1.93191
8.49 2.19426
8.5 2.43208
8.51 2.63659
8.52 2.80618
8.53 2.92983
8.54 3.00996
8.55 3.04119
8.56 3.02309
8.57 2.95929
8.58 2.84628
8.59 2.69415
8.6 2.50278
8.61 2.28091
8.62 2.03437
8.63 1.76942
8.64 1.49454
8.65 1.21603
8.66 0.941099
8.67 0.675966
8.68 0.426415
8.69 0.195539
8.7 -0.01027
8.71 -0.192243
8.72 -0.346116
8.73 -0.473728
8.74 -0.575735
8.75 -0.652504
8.76 -0.708981
8.77 -0.745164
8.78 -0.766972
8.79 -0.776661
8.8 -0.778038
8.81 -0.77455
8.82 -0.768918
8.83 -0.763829
8.84 -0.761422
8.85 -0.763043
8.86 -0.769559
8.87 -0.781699
8.88 -0.798756
8.89 -0.820959
8.9 -0.846802
8.91 -0.875524
8.92 -0.905813
8.93 -0.93647
8.94 -0.966215
8.95 -0.9942
8.96 -1.01936
8.97 -1.04127
8.98 -1.05963
8.99 -1.07415
9 -1.0854
9.01 -1.0933
9.02 -1.09881
9.03 -1.10237
9.04 -1.10473
9.05 -1.10654
9.06 -1.10833
9.07 -1.1105
9.08 -1.11329
9.09 -1.11662
9.1 -1.12026
9.11 -1.12367
9.12 -1.12622
9.13 -1.12677
9.14 -1.12454
9.15 -1.11825
9.16 -1.1067
9.17 -1.08928
9.18 -1.06414
9.19 -1.03167
9.2 -0.990482
9.21 -0.941044
9.22 -0.883528
9.23 -0.818086
9.24 -0.74645
9.25 -0.669061
9.26 -0.588263
9.27 -0.505593
9.28 -0.423262
9.29 -0.343163
9.3 -0.26803
9.31 -0.19912
9.32 -0.139123
9.33 -0.0890822
9.34 -0.0501804
9.35 -0.0240412
9.36 -0.00960965
9.37 -0.00868626
9.38 -0.0189927
9.39 -0.0403928
9.4 -0.0713299
9.41 -0.109669
9.42 -0.154177
9.43 -0.202003
9.44 -0.251363
9.45 -0.29998
9.46 -0.346069
9.47 -0.387606
9.48 -0.423876
9.49 -0.45296
9.5 -0.475239
9.51 -0.490115
9.52 -0.497958
9.53 -0.499823
9.54 -0.496051
9.55 -0.488614
9.56 -0.478503
9.57 -0.467443
9.58 -0.456778
9.59 -0.448021
9.6 -0.441997
9.61 -0.440135
9.62 -0.442495
9.63 -0.449646
9.64 -0.46153
9.65 -0.477564
9.66 -0.497679
9.67 -0.520616
9.68 -0.545873
9.69 -0.572399
9.7 -0.599448
9.71 -0.626281
9.72 -0.652448
9.73 -0.677487
9.74 -0.701434
9.75 -0.7243
9.76 -0.74635
9.77 -0.767934
9.78 -0.789372
9.79 -0.810913
9.8 -0.832605
9.81 -0.854157
9.82 -0.874945
9.83 -0.893642
9.84 -0.908964
9.85 -0.9179
9.86 -0.918505
9.87 -0.907088
9.88 -0.87983
9.89 -0.834349
9.9 -0.763799
9.91 -0.668166
9.92 -0.540955
9.93 -0.381482
9.94 -0.187972
9.95 0.0427163
9.96 0.306188
9.97 0.60595
9.98 0.934485
9.99 1.28972
10 1.66557
10.01 2.05467
10.02 2.45011
10.03 2.84301
10.04 3.22402
10.05 3.58457
10.06 3.91658
10.07 4.20907
10.08 4.45979
10.09 4.65524
10.1 4.79761
10.11 4.88015
10.12 4.90147
10.13 4.86581
10.14 4.7677
10.15 4.61934
10.16 4.41976
10.17 4.17906
10.18 3.90402
10.19 3.6014
10.2 3.28186
10.21 2.95196
10.22 2.62107
10.23 2.29629
10.24 1.98474
10.25 1.69057
10.26 1.42118
10.27 1.17605
10.28 0.960059
10.29 0.77187
10.3 0.610947
10.31 0.4773
10.32 0.365697
10.33 0.276284
10.34 0.202816
10.35 0.142889
10.36 0.0925032
10.37 0.0479058
10.38 0.00630329
10.39 -0.0352772
10.4 -0.0790177
10.41 -0.126403
10.42 -0.178326
10.43 -0.235532
10.44 -0.297331
10.45 -0.363847
10.46 -0.433588
10.47 -0.505671
10.48 -0.578685
10.49 -0.651349
10.5 -0.722093
10.51 -0.790003
10.52 -0.853609
10.53 -0.912231
10.54 -0.965201
10.55 -1.01155
10.56 -1.0517
10.57 -1.08446
10.58 -1.11068
10.59 -1.12995
10.6 -1.14242
10.61 -1.14869
10.62 -1.14813
10.63 -1.14191
10.64 -1.12958
10.65 -1.11184
10.66 -1.08896
10.67 -1.06103
10.68 -1.02898
10.69 -0.992741
10.7 -0.953438
10.71 -0.911539
10.72 -0.867924
10.73 -0.823514
10.74 -0.779309
10.75 -0.736259
10.76 -0.695572
10.77 -0.658169
10.78 -0.624945
10.79 -0.59716
10.8 -0.574885
10.81 -0.559646
10.82 -0.550973
10.83 -0.5495
10.84 -0.555209
10.85 -0.567422
10.86 -0.586568
10.87 -0.61111
10.88 -0.640954
10.89 -0.674858
10.9 -0.711944
10.91 -0.751325
10.92 -0.791843
10.93 -0.832613
10.94 -0.872698
10.95 -0.911267
10.96 -0.947546
10.97 -0.981156
10.98 -1.01119
10.99 -1.03784
11 -1.06048
11.01 -1.07931
11.02 -1.09439
11.03 -1.10565
11.04 -1.1138
11.05 -1.11874
11.06 -1.12134
11.07 -1.12193
11.08 -1.12115
11.09 -1.11961
11.1 -1.11789
11.11 -1.11655
11.12 -1.11616
11.13 -1.11707
11.14 -1.11952
11.15 -1.1237
11.16 -1.12929
11.17 -1.13607
11.18 -1.14322
11.19 -1.1498
11.2 -1.15442
11.21 -1.15579
11.22 -1.15132
11.23 -1.13983
11.24 -1.11816
11.25 -1.0845
11.26 -1.03675
11.27 -0.97152
11.28 -0.889013
11.29 -0.784779
11.3 -0.660419
11.31 -0.514153
11.32 -0.34622
11.33 -0.158989
11.34 0.0482166
11.35 0.270102
11.36 0.505013
11.37 0.747846
11.38 0.994237
11.39 1.23866
11.4 1.47639
11.41 1.70021
11.42 1.90633
11.43 2.08863
11.44 2.24204
11.45 2.36497
11.46 2.44957
11.47 2.49922
11.48 2.5086
11.49 2.48036
11.5 2.41578
11.51 2.31493
11.52 2.18493
11.53 2.02574
11.54 1.84578
11.55 1.64874
11.56 1.44062
11.57 1.2272
11.58 1.01387
11.59 0.805387
11.6 0.606817
11.61 0.4214
11.62 0.25171
11.63 0.10102
11.64 -0.0318882
11.65 -0.144066
11.66 -0.238746
11.67 -0.316155
11.68 -0.378455
11.69 -0.428891
11.7 -0.468876
11.71 -0.502563
11.72 -0.531954
11.73 -0.559918
11.74 -0.588422
11.75 -0.619338
11.76 -0.653388
11.77 -0.69161
11.78 -0.733381
11.79 -0.778266
11.8 -0.824953
11.81 -0.871838
11.82 -0.916671
11.83 -0.957614
11.84 -0.99183
11.85 -1.01732
11.86 -1.03212
11.87 -1.03334
11.88 -1.0211
11.89 -0.991982
11.9 -0.947356
11.91 -0.886045
11.92 -0.808369
11.93 -0.716226
11.94 -0.609042
11.95 -0.490609
11.96 -0.361716
11.97 -0.225534
11.98 -0.0845414
11.99 0.05849
12 0.20074
12.01 0.338977
12.02 0.470951
12.03 0.593818
12.04 0.705037
12.05 0.803618
12.06 0.885819
12.07 0.952708
12.08 1.00152
12.09 1.03285
12.1 1.04674
12.11 1.04237
12.12 1.02249
12.13 0.985928
12.14 0.936148
12.15 0.873968
12.16 0.801468
12.17 0.721261
12.18 0.634734
12.19 0.544879
12.2 0.453446
12.21 0.362608
12.22 0.274007
12.23 0.1895
12.24 0.109725
12.25 0.0363792
12.26 -0.0307945
12.27 -0.0912594
12.28 -0.14519
12.29 -0.193489
12.3 -0.23619
12.31 -0.274988
12.32 -0.310486
12.33 -0.34404
12.34 -0.376645
12.35 -0.409291
12.36 -0.442663
12.37 -0.47743
12.38 -0.513626
12.39 -0.551212
12.4 -0.589682
12.41 -0.628256
12.42 -0.665686
