# xPDFsuite Configuration #
[PDF]
wavelength = 0.1432
dataformat = twotheta
inputfile = 1_1Pd_CeO2_cycle-00184.chi
backgroundfile = background-00000.chi
mode = xray
bgscale = 1.007
composition = CeO2
outputtype = gr
qmaxinst = 28.8974762299
qmin = 0.5
qmax = 27.9
rmax = 50.0
rmin = 0.0
rstep = 0.01
rpoly = 1.8657

[Misc]
inputdir = G:/SankarDec16/1Pd/Chi
savedir = D:/DATA/APS_CeO2/1Pd
backgroundfilefull = G:/SankarDec16/Background/background-00000.chi

#### start data
#S 1
#L r($\AA$)  G($\AA^{-2}$)
0 0
0.01 -0.00750796
0.02 -0.0144507
0.03 -0.0202463
0.04 -0.0244563
0.05 -0.0268367
0.06 -0.026995
0.07 -0.0251919
0.08 -0.0213011
0.09 -0.0158204
0.1 -0.00909447
0.11 -0.00165066
0.12 0.0059351
0.13 0.0130173
0.14 0.0191375
0.15 0.0237352
0.16 0.0264814
0.17 0.0272439
0.18 0.0257544
0.19 0.0223958
0.2 0.0171819
0.21 0.0106931
0.22 0.00335796
0.23 -0.00423131
0.24 -0.0115321
0.25 -0.017849
0.26 -0.0228517
0.27 -0.0260276
0.28 -0.0271724
0.29 -0.0262729
0.3 -0.0231972
0.31 -0.0184327
0.32 -0.012133
0.33 -0.00493401
0.34 0.00267179
0.35 0.0100549
0.36 0.0167318
0.37 0.0219896
0.38 0.0256419
0.39 0.0272485
0.4 0.0267398
0.41 0.024222
0.42 0.0197068
0.43 0.0137634
0.44 0.00667795
0.45 -0.000887266
0.46 -0.00839931
0.47 -0.0152205
0.48 -0.0209495
0.49 -0.0248899
0.5 -0.027008
0.51 -0.0269574
0.52 -0.0248066
0.53 -0.0207772
0.54 -0.0150241
0.55 -0.00817223
0.56 -0.000627197
0.57 0.00695336
0.58 0.0140212
0.59 0.0199601
0.6 0.0244706
0.61 0.0269057
0.62 0.0273864
0.63 0.0256769
0.64 0.0219818
0.65 0.0166276
0.66 0.00990649
0.67 0.00246934
0.68 -0.00517709
0.69 -0.0124105
0.7 -0.0186935
0.71 -0.0234599
0.72 -0.0265267
0.73 -0.0273266
0.74 -0.0261305
0.75 -0.022824
0.76 -0.017738
0.77 -0.0112883
0.78 -0.00389036
0.79 0.0038102
0.8 0.0112311
0.81 0.0178149
0.82 0.023062
0.83 0.0264842
0.84 0.0280238
0.85 0.027222
0.86 0.0244847
0.87 0.0198247
0.88 0.0136809
0.89 0.00653589
0.9 -0.00109671
0.91 -0.00861224
0.92 -0.01539
0.93 -0.0209718
0.94 -0.0249301
0.95 -0.0268922
0.96 -0.0269346
0.97 -0.0247533
0.98 -0.0208704
0.99 -0.0154441
1 -0.00900851
1.01 -0.00209136
1.02 0.0047038
1.03 0.0108595
1.04 0.0157381
1.05 0.0190257
1.06 0.0204034
1.07 0.0196578
1.08 0.0170314
1.09 0.0124337
1.1 0.00652138
1.11 -0.000349143
1.12 -0.00751461
1.13 -0.0143774
1.14 -0.020174
1.15 -0.0244826
1.16 -0.0265649
1.17 -0.0262524
1.18 -0.0232919
1.19 -0.0175812
1.2 -0.0095578
1.21 0.000753935
1.22 0.01248
1.23 0.0251031
1.24 0.0377825
1.25 0.0497873
1.26 0.0601542
1.27 0.0684188
1.28 0.0736461
1.29 0.0756502
1.3 0.0740868
1.31 0.0687545
1.32 0.0601502
1.33 0.0480879
1.34 0.0335873
1.35 0.0170439
1.36 -0.00067621
1.37 -0.0187934
1.38 -0.0364299
1.39 -0.0529283
1.4 -0.0674057
1.41 -0.0794672
1.42 -0.0886513
1.43 -0.0945689
1.44 -0.0974615
1.45 -0.0968747
1.46 -0.0935302
1.47 -0.0874678
1.48 -0.0792035
1.49 -0.0692427
1.5 -0.0579491
1.51 -0.0459332
1.52 -0.0335542
1.53 -0.021234
1.54 -0.00926573
1.55 0.00207422
1.56 0.0126975
1.57 0.0223537
1.58 0.0311254
1.59 0.0388922
1.6 0.0456612
1.61 0.0514501
1.62 0.0561091
1.63 0.0597244
1.64 0.0620584
1.65 0.0631147
1.66 0.0627445
1.67 0.0607655
1.68 0.0572516
1.69 0.0518686
1.7 0.0448925
1.71 0.0362333
1.72 0.0260996
1.73 0.0147616
1.74 0.00244319
1.75 -0.0103749
1.76 -0.0233103
1.77 -0.0358906
1.78 -0.0476919
1.79 -0.0582419
1.8 -0.0673712
1.81 -0.0745672
1.82 -0.0800084
1.83 -0.0835458
1.84 -0.0854051
1.85 -0.0859168
1.86 -0.0853889
1.87 -0.0844074
1.88 -0.083469
1.89 -0.083117
1.9 -0.0838272
1.91 -0.0860852
1.92 -0.0899836
1.93 -0.0959438
1.94 -0.103598
1.95 -0.112866
1.96 -0.123238
1.97 -0.134129
1.98 -0.144774
1.99 -0.154448
2 -0.162125
2.01 -0.167142
2.02 -0.168736
2.03 -0.166108
2.04 -0.159296
2.05 -0.147321
2.06 -0.130948
2.07 -0.109967
2.08 -0.0849666
2.09 -0.0566584
2.1 -0.0255055
2.11 0.00738138
2.12 0.0413969
2.13 0.0756782
2.14 0.109647
2.15 0.142783
2.16 0.174936
2.17 0.205886
2.18 0.235977
2.19 0.265475
2.2 0.294933
2.21 0.324883
2.22 0.356053
2.23 0.388777
2.24 0.423668
2.25 0.460691
2.26 0.499778
2.27 0.540508
2.28 0.582009
2.29 0.623117
2.3 0.662476
2.31 0.698275
2.32 0.72866
2.33 0.752161
2.34 0.765992
2.35 0.769917
2.36 0.76124
2.37 0.740216
2.38 0.706232
2.39 0.659055
2.4 0.600765
2.41 0.531073
2.42 0.453589
2.43 0.369915
2.44 0.283144
2.45 0.196057
2.46 0.11195
2.47 0.0330555
2.48 -0.0372924
2.49 -0.097756
2.5 -0.146719
2.51 -0.182836
2.52 -0.207308
2.53 -0.218806
2.54 -0.220471
2.55 -0.213146
2.56 -0.199496
2.57 -0.182114
2.58 -0.16362
2.59 -0.146602
2.6 -0.133755
2.61 -0.126737
2.62 -0.127037
2.63 -0.135853
2.64 -0.152461
2.65 -0.177613
2.66 -0.208932
2.67 -0.245371
2.68 -0.284584
2.69 -0.32436
2.7 -0.362079
2.71 -0.39591
2.72 -0.423272
2.73 -0.443194
2.74 -0.454625
2.75 -0.456903
2.76 -0.45129
2.77 -0.437605
2.78 -0.418615
2.79 -0.395842
2.8 -0.371937
2.81 -0.349233
2.82 -0.330649
2.83 -0.317719
2.84 -0.313093
2.85 -0.317296
2.86 -0.33105
2.87 -0.354546
2.88 -0.38599
2.89 -0.424945
2.9 -0.468187
2.91 -0.513596
2.92 -0.55809
2.93 -0.59911
2.94 -0.633214
2.95 -0.659133
2.96 -0.673906
2.97 -0.677411
2.98 -0.669132
2.99 -0.649195
3 -0.619983
3.01 -0.582263
3.02 -0.539887
3.03 -0.495397
3.04 -0.452318
3.05 -0.413492
3.06 -0.382716
3.07 -0.361226
3.08 -0.352142
3.09 -0.355377
3.1 -0.371287
3.11 -0.399503
3.12 -0.437302
3.13 -0.483619
3.14 -0.534322
3.15 -0.586622
3.16 -0.636859
3.17 -0.682192
3.18 -0.718856
3.19 -0.745904
3.2 -0.760538
3.21 -0.763309
3.22 -0.754375
3.23 -0.73478
3.24 -0.707605
3.25 -0.674883
3.26 -0.640773
3.27 -0.608675
3.28 -0.582359
3.29 -0.564495
3.3 -0.559021
3.31 -0.566012
3.32 -0.588014
3.33 -0.623462
3.34 -0.671383
3.35 -0.729682
3.36 -0.794407
3.37 -0.862224
3.38 -0.928478
3.39 -0.988807
3.4 -1.03901
3.41 -1.0764
3.42 -1.0966
3.43 -1.10048
3.44 -1.08562
3.45 -1.05479
3.46 -1.0099
3.47 -0.954259
3.48 -0.892944
3.49 -0.830701
3.5 -0.772812
3.51 -0.724537
3.52 -0.690275
3.53 -0.672333
3.54 -0.674587
3.55 -0.694422
3.56 -0.732208
3.57 -0.782377
3.58 -0.839729
3.59 -0.89622
3.6 -0.94397
3.61 -0.97025
3.62 -0.967996
3.63 -0.924755
3.64 -0.83157
3.65 -0.683668
3.66 -0.468284
3.67 -0.191252
3.68 0.156044
3.69 0.564676
3.7 1.03025
3.71 1.54509
3.72 2.09346
3.73 2.66469
3.74 3.23951
3.75 3.80133
3.76 4.33143
3.77 4.81558
3.78 5.23027
3.79 5.57136
3.8 5.81688
3.81 5.96634
3.82 6.01329
3.83 5.95203
3.84 5.7961
3.85 5.53647
3.86 5.19742
3.87 4.78366
3.88 4.31242
3.89 3.80082
3.9 3.26318
3.91 2.71856
3.92 2.18265
3.93 1.66966
3.94 1.1917
3.95 0.761481
3.96 0.380658
3.97 0.062774
3.98 -0.199507
3.99 -0.402103
4 -0.549943
4.01 -0.650435
4.02 -0.705908
4.03 -0.729675
4.04 -0.726218
4.05 -0.706397
4.06 -0.677191
4.07 -0.645841
4.08 -0.617701
4.09 -0.598232
4.1 -0.588977
4.11 -0.592131
4.12 -0.607353
4.13 -0.63291
4.14 -0.667429
4.15 -0.706937
4.16 -0.748565
4.17 -0.788537
4.18 -0.823713
4.19 -0.850637
4.2 -0.868053
4.21 -0.872467
4.22 -0.86484
4.23 -0.843941
4.24 -0.810624
4.25 -0.766483
4.26 -0.712015
4.27 -0.650298
4.28 -0.582391
4.29 -0.510767
4.3 -0.436964
4.31 -0.362478
4.32 -0.288364
4.33 -0.215509
4.34 -0.144095
4.35 -0.0743087
4.36 -0.00594282
4.37 0.0613302
4.38 0.127724
4.39 0.19355
4.4 0.258747
4.41 0.323107
4.42 0.386084
4.43 0.446624
4.44 0.503903
4.45 0.55571
4.46 0.601192
4.47 0.63811
4.48 0.664848
4.49 0.680537
4.5 0.682506
4.51 0.671799
4.52 0.646366
4.53 0.607616
4.54 0.55599
4.55 0.492284
4.56 0.419298
4.57 0.33786
4.58 0.25153
4.59 0.162345
4.6 0.0731067
4.61 -0.0139819
4.62 -0.0961924
4.63 -0.172462
4.64 -0.240571
4.65 -0.30029
4.66 -0.351142
4.67 -0.392875
4.68 -0.426975
4.69 -0.453264
4.7 -0.474096
4.71 -0.490388
4.72 -0.503842
4.73 -0.515908
4.74 -0.527892
4.75 -0.540796
4.76 -0.555527
4.77 -0.572366
4.78 -0.591421
4.79 -0.612528
4.8 -0.635013
4.81 -0.658284
4.82 -0.681377
4.83 -0.703392
4.84 -0.723411
4.85 -0.740842
4.86 -0.754717
4.87 -0.765169
4.88 -0.771637
4.89 -0.774603
4.9 -0.774372
4.91 -0.771452
4.92 -0.766791
4.93 -0.761044
4.94 -0.755214
4.95 -0.750089
4.96 -0.746424
4.97 -0.744664
4.98 -0.745474
4.99 -0.748688
5 -0.754613
5.01 -0.762831
5.02 -0.773063
5.03 -0.784915
5.04 -0.797769
5.05 -0.811216
5.06 -0.824704
5.07 -0.837844
5.08 -0.850304
5.09 -0.861917
5.1 -0.872426
5.11 -0.881902
5.12 -0.890141
5.13 -0.897138
5.14 -0.902697
5.15 -0.906377
5.16 -0.907909
5.17 -0.906085
5.18 -0.900393
5.19 -0.889311
5.2 -0.871416
5.21 -0.84565
5.22 -0.809245
5.23 -0.762148
5.24 -0.701487
5.25 -0.62721
5.26 -0.538451
5.27 -0.434313
5.28 -0.316799
5.29 -0.184928
5.3 -0.0425145
5.31 0.108885
5.32 0.265678
5.33 0.424201
5.34 0.579906
5.35 0.728968
5.36 0.865784
5.37 0.986769
5.38 1.08787
5.39 1.16418
5.4 1.21577
5.41 1.23625
5.42 1.22897
5.43 1.19158
5.44 1.12579
5.45 1.03497
5.46 0.919511
5.47 0.786295
5.48 0.637561
5.49 0.479511
5.5 0.316636
5.51 0.154137
5.52 -0.00387405
5.53 -0.151961
5.54 -0.288033
5.55 -0.408417
5.56 -0.511359
5.57 -0.596842
5.58 -0.662578
5.59 -0.711803
5.6 -0.74371
5.61 -0.761591
5.62 -0.767309
5.63 -0.762933
5.64 -0.751712
5.65 -0.735079
5.66 -0.71576
5.67 -0.695076
5.68 -0.674275
5.69 -0.653944
5.7 -0.634316
5.71 -0.615019
5.72 -0.595409
5.73 -0.574564
5.74 -0.551489
5.75 -0.52491
5.76 -0.49437
5.77 -0.458445
5.78 -0.41755
5.79 -0.37134
5.8 -0.320463
5.81 -0.266029
5.82 -0.209163
5.83 -0.151808
5.84 -0.0959411
5.85 -0.0436143
5.86 0.00316347
5.87 0.0419183
5.88 0.0719424
5.89 0.0902226
5.9 0.097445
5.91 0.092249
5.92 0.0749197
5.93 0.0466259
5.94 0.00723512
5.95 -0.0403849
5.96 -0.0954697
5.97 -0.155393
5.98 -0.218312
5.99 -0.28216
6 -0.34518
6.01 -0.405444
6.02 -0.462086
6.03 -0.513959
6.04 -0.560629
6.05 -0.602294
6.06 -0.63865
6.07 -0.670944
6.08 -0.699459
6.09 -0.725429
6.1 -0.749689
6.11 -0.773117
6.12 -0.796454
6.13 -0.820264
6.14 -0.844742
6.15 -0.869937
6.16 -0.895555
6.17 -0.921141
6.18 -0.945951
6.19 -0.969389
6.2 -0.990493
6.21 -1.00874
6.22 -1.0236
6.23 -1.03456
6.24 -1.04199
6.25 -1.04555
6.26 -1.04629
6.27 -1.04465
6.28 -1.04164
6.29 -1.03815
6.3 -1.03513
6.31 -1.03315
6.32 -1.03268
6.33 -1.03349
6.34 -1.03495
6.35 -1.03562
6.36 -1.03379
6.37 -1.02601
6.38 -1.00977
6.39 -0.980649
6.4 -0.934262
6.41 -0.867563
6.42 -0.77307
6.43 -0.650678
6.44 -0.493125
6.45 -0.30036
6.46 -0.0704709
6.47 0.198834
6.48 0.502348
6.49 0.842741
6.5 1.21077
6.51 1.60308
6.52 2.01156
6.53 2.42772
6.54 2.84182
6.55 3.24463
6.56 3.62396
6.57 3.97101
6.58 4.27637
6.59 4.52806
6.6 4.72503
6.61 4.85153
6.62 4.91305
6.63 4.90228
6.64 4.82029
6.65 4.67295
6.66 4.45693
6.67 4.18728
6.68 3.86507
6.69 3.50375
6.7 3.11219
6.71 2.70056
6.72 2.28065
6.73 1.86285
6.74 1.45663
6.75 1.07149
6.76 0.715297
6.77 0.391982
6.78 0.110769
6.79 -0.131372
6.8 -0.328198
6.81 -0.483609
6.82 -0.59888
6.83 -0.675251
6.84 -0.7205
6.85 -0.734762
6.86 -0.727288
6.87 -0.701361
6.88 -0.662727
6.89 -0.616383
6.9 -0.566171
6.91 -0.515978
6.92 -0.468718
6.93 -0.426291
6.94 -0.38996
6.95 -0.360749
6.96 -0.33794
6.97 -0.322132
6.98 -0.311665
6.99 -0.306106
7 -0.304392
7.01 -0.30554
7.02 -0.309143
7.03 -0.31446
7.04 -0.321548
7.05 -0.330387
7.06 -0.341321
7.07 -0.355054
7.08 -0.371859
7.09 -0.392984
7.1 -0.418429
7.11 -0.448953
7.12 -0.4847
7.13 -0.525293
7.14 -0.570868
7.15 -0.620047
7.16 -0.672212
7.17 -0.72579
7.18 -0.779417
7.19 -0.831352
7.2 -0.880374
7.21 -0.924381
7.22 -0.962824
7.23 -0.994358
7.24 -1.01846
7.25 -1.0354
7.26 -1.04456
7.27 -1.04763
7.28 -1.04486
7.29 -1.03802
7.3 -1.02843
7.31 -1.01762
7.32 -1.00702
7.33 -0.99806
7.34 -0.991446
7.35 -0.987867
7.36 -0.987332
7.37 -0.989235
7.38 -0.992731
7.39 -0.99616
7.4 -0.997486
7.41 -0.994475
7.42 -0.984751
7.43 -0.965082
7.44 -0.934309
7.45 -0.888121
7.46 -0.826782
7.47 -0.747888
7.48 -0.651011
7.49 -0.537319
7.5 -0.405747
7.51 -0.260366
7.52 -0.101969
7.53 0.0652114
7.54 0.237821
7.55 0.411621
7.56 0.582599
7.57 0.745403
7.58 0.896913
7.59 1.03246
7.6 1.1485
7.61 1.24358
7.62 1.31261
7.63 1.35784
7.64 1.37565
7.65 1.36836
7.66 1.3367
7.67 1.28121
7.68 1.20656
7.69 1.11273
7.7 1.00537
7.71 0.886666
7.72 0.760429
7.73 0.630153
7.74 0.499014
7.75 0.369975
7.76 0.246086
7.77 0.129405
7.78 0.0218138
7.79 -0.0744216
7.8 -0.159457
7.81 -0.230531
7.82 -0.289009
7.83 -0.333737
7.84 -0.364967
7.85 -0.383808
7.86 -0.389333
7.87 -0.384116
7.88 -0.367815
7.89 -0.34248
7.9 -0.309319
7.91 -0.269604
7.92 -0.225582
7.93 -0.178606
7.94 -0.131005
7.95 -0.0846735
7.96 -0.0417873
7.97 -0.00392896
7.98 0.026126
7.99 0.0478551
8 0.0587428
8.01 0.0584631
8.02 0.0463103
8.03 0.021346
8.04 -0.0148197
8.05 -0.0632097
8.06 -0.121034
8.07 -0.187476
8.08 -0.260359
8.09 -0.33733
8.1 -0.416261
8.11 -0.494655
8.12 -0.570132
8.13 -0.640813
8.14 -0.70511
8.15 -0.761276
8.16 -0.809519
8.17 -0.8483
8.18 -0.879168
8.19 -0.902273
8.2 -0.918966
8.21 -0.930953
8.22 -0.939475
8.23 -0.946545
8.24 -0.95348
8.25 -0.961466
8.26 -0.971124
8.27 -0.982629
8.28 -0.995236
8.29 -1.00764
8.3 -1.01782
8.31 -1.02299
8.32 -1.01966
8.33 -1.00506
8.34 -0.97331
8.35 -0.923113
8.36 -0.848432
8.37 -0.747827
8.38 -0.61898
8.39 -0.458705
8.4 -0.270206
8.41 -0.0500131
8.42 0.195404
8.43 0.464439
8.44 0.75161
8.45 1.05044
8.46 1.35457
8.47 1.6561
8.48 1.94651
8.49 2.21829
8.5 2.46416
8.51 2.6747
8.52 2.84816
8.53 2.97291
8.54 3.05166
8.55 3.07892
8.56 3.05457
8.57 2.98274
8.58 2.86024
8.59 2.69794
8.6 2.4963
8.61 2.26471
8.62 2.00955
8.63 1.73771
8.64 1.45783
8.65 1.17679
8.66 0.901548
8.67 0.638436
8.68 0.392968
8.69 0.167795
8.7 -0.0310067
8.71 -0.205349
8.72 -0.351466
8.73 -0.471773
8.74 -0.567391
8.75 -0.639194
8.76 -0.692237
8.77 -0.726941
8.78 -0.748981
8.79 -0.760611
8.8 -0.765341
8.81 -0.766197
8.82 -0.765519
8.83 -0.765443
8.84 -0.767609
8.85 -0.772917
8.86 -0.781878
8.87 -0.794835
8.88 -0.811127
8.89 -0.830716
8.9 -0.852471
8.91 -0.875786
8.92 -0.899775
8.93 -0.923722
8.94 -0.946892
8.95 -0.968931
8.96 -0.989372
8.97 -1.00818
8.98 -1.02535
8.99 -1.04095
9 -1.05536
9.01 -1.06869
9.02 -1.08137
9.03 -1.09357
9.04 -1.10546
9.05 -1.1171
9.06 -1.12836
9.07 -1.13905
9.08 -1.14872
9.09 -1.15689
9.1 -1.16297
9.11 -1.16604
9.12 -1.16575
9.13 -1.16069
9.14 -1.15074
9.15 -1.13492
9.16 -1.11266
9.17 -1.08402
9.18 -1.04788
9.19 -1.00527
9.2 -0.955557
9.21 -0.899674
9.22 -0.838183
9.23 -0.771671
9.24 -0.70162
9.25 -0.628787
9.26 -0.554853
9.27 -0.481108
9.28 -0.409148
9.29 -0.340196
9.3 -0.276307
9.31 -0.218071
9.32 -0.167453
9.33 -0.125013
9.34 -0.0915311
9.35 -0.0681864
9.36 -0.0541094
9.37 -0.0507656
9.38 -0.0564455
9.39 -0.0711942
9.4 -0.0939711
9.41 -0.123226
9.42 -0.158266
9.43 -0.196846
9.44 -0.237764
9.45 -0.279166
9.46 -0.319599
9.47 -0.357391
9.48 -0.391697
9.49 -0.420836
9.5 -0.444754
9.51 -0.462697
9.52 -0.474633
9.53 -0.481182
9.54 -0.482277
9.55 -0.479476
9.56 -0.473375
9.57 -0.465455
9.58 -0.456889
9.59 -0.449051
9.6 -0.442934
9.61 -0.439968
9.62 -0.44058
9.63 -0.445586
9.64 -0.455301
9.65 -0.469459
9.66 -0.488402
9.67 -0.511031
9.68 -0.537152
9.69 -0.565731
9.7 -0.596011
9.71 -0.627189
9.72 -0.658488
9.73 -0.689219
9.74 -0.718969
9.75 -0.747352
9.76 -0.774183
9.77 -0.799507
9.78 -0.823123
9.79 -0.845268
9.8 -0.865659
9.81 -0.884123
9.82 -0.900144
9.83 -0.912554
9.84 -0.920552
9.85 -0.921441
9.86 -0.913857
9.87 -0.89459
9.88 -0.860358
9.89 -0.809128
9.9 -0.73464
9.91 -0.636876
9.92 -0.509705
9.93 -0.352292
9.94 -0.162737
9.95 0.0622814
9.96 0.318899
9.97 0.610942
9.98 0.931518
9.99 1.27905
10 1.64797
10.01 2.03131
10.02 2.42269
10.03 2.81326
10.04 3.19398
10.05 3.55615
10.06 3.89154
10.07 4.18898
10.08 4.44573
10.09 4.64794
10.1 4.79726
10.11 4.88646
10.12 4.91365
10.13 4.88279
10.14 4.78791
10.15 4.64124
10.16 4.44155
10.17 4.1991
10.18 3.92088
10.19 3.61383
10.2 3.28909
10.21 2.95356
10.22 2.6171
10.23 2.28721
10.24 1.97144
10.25 1.67415
10.26 1.40313
10.27 1.15776
10.28 0.943076
10.29 0.7575
10.3 0.600287
10.31 0.47117
10.32 0.364489
10.33 0.28001
10.34 0.211088
10.35 0.154941
10.36 0.107242
10.37 0.0641127
10.38 0.022455
10.39 -0.0204996
10.4 -0.0669923
10.41 -0.118206
10.42 -0.174765
10.43 -0.237078
10.44 -0.304051
10.45 -0.375384
10.46 -0.449263
10.47 -0.524458
10.48 -0.599302
10.49 -0.672471
10.5 -0.74217
10.51 -0.80777
10.52 -0.867825
10.53 -0.922011
10.54 -0.969967
10.55 -1.0111
10.56 -1.04621
10.57 -1.07453
10.58 -1.09718
10.59 -1.11403
10.6 -1.12542
10.61 -1.1319
10.62 -1.13299
10.63 -1.12951
10.64 -1.1209
10.65 -1.10747
10.66 -1.08917
10.67 -1.06566
10.68 -1.03759
10.69 -1.00444
10.7 -0.967204
10.71 -0.926108
10.72 -0.881963
10.73 -0.835811
10.74 -0.788652
10.75 -0.741829
10.76 -0.696769
10.77 -0.654814
10.78 -0.617213
10.79 -0.58566
10.8 -0.560461
10.81 -0.543575
10.82 -0.534549
10.83 -0.534175
10.84 -0.542383
10.85 -0.558261
10.86 -0.582106
10.87 -0.611903
10.88 -0.647212
10.89 -0.68632
10.9 -0.72795
10.91 -0.770729
10.92 -0.813332
10.93 -0.854412
10.94 -0.893141
10.95 -0.928593
10.96 -0.960156
10.97 -0.987803
10.98 -1.01089
10.99 -1.03017
11 -1.04552
11.01 -1.05766
11.02 -1.06712
11.03 -1.0744
11.04 -1.08032
11.05 -1.08532
11.06 -1.09005
11.07 -1.09492
11.08 -1.10032
11.09 -1.10641
11.1 -1.11343
11.11 -1.12125
11.12 -1.12987
11.13 -1.139
11.14 -1.14836
11.15 -1.15749
11.16 -1.16594
11.17 -1.17288
11.18 -1.17774
11.19 -1.1795
11.2 -1.17702
11.21 -1.16954
11.22 -1.15479
11.23 -1.13239
11.24 -1.09977
11.25 -1.05583
11.26 -0.999059
11.27 -0.926755
11.28 -0.839321
11.29 -0.732973
11.3 -0.609108
11.31 -0.466089
11.32 -0.30395
11.33 -0.124577
11.34 0.0729508
11.35 0.28413
11.36 0.507812
11.37 0.739585
11.38 0.975641
11.39 1.21111
11.4 1.44149
11.41 1.66018
11.42 1.86329
11.43 2.04486
11.44 2.19967
11.45 2.32579
11.46 2.41521
11.47 2.47066
11.48 2.4865
11.49 2.46481
11.5 2.40647
11.51 2.31113
11.52 2.1857
11.53 2.02981
11.54 1.85194
11.55 1.65577
11.56 1.44746
11.57 1.23305
11.58 1.01818
11.59 0.807996
11.6 0.607887
11.61 0.4214
11.62 0.251342
11.63 0.101225
11.64 -0.0302058
11.65 -0.139891
11.66 -0.231316
11.67 -0.304877
11.68 -0.363056
11.69 -0.409431
11.7 -0.445847
11.71 -0.476734
11.72 -0.504513
11.73 -0.532242
11.74 -0.562024
11.75 -0.595893
11.76 -0.634311
11.77 -0.678328
11.78 -0.726846
11.79 -0.779114
11.8 -0.833329
11.81 -0.88744
11.82 -0.938599
11.83 -0.98467
11.84 -1.02229
11.85 -1.04929
11.86 -1.06357
11.87 -1.0621
11.88 -1.04535
11.89 -1.00994
11.9 -0.957837
11.91 -0.888253
11.92 -0.802105
11.93 -0.701816
11.94 -0.5875
11.95 -0.46329
11.96 -0.33056
11.97 -0.192672
11.98 -0.0522349
11.99 0.0878177
12 0.225082
12.01 0.356343
12.02 0.48002
12.03 0.593691
12.04 0.695449
12.05 0.784869
12.06 0.858926
12.07 0.919052
12.08 0.963086
12.09 0.991826
12.1 1.00545
12.11 1.0033
12.12 0.987713
12.13 0.957497
12.14 0.91545
12.15 0.861978
12.16 0.798541
12.17 0.727197
12.18 0.648657
12.19 0.565553
12.2 0.479079
12.21 0.391226
12.22 0.303522
12.23 0.217696
12.24 0.134786
12.25 0.0565388
12.26 -0.0166783
12.27 -0.0839292
12.28 -0.14481
12.29 -0.199728
12.3 -0.248095
12.31 -0.291325
12.32 -0.329542
12.33 -0.363993
12.34 -0.395626
12.35 -0.425387
12.36 -0.45438
12.37 -0.483408
12.38 -0.513102
12.39 -0.54385
12.4 -0.575708
12.41 -0.608332
