# xPDFsuite Configuration #
[PDF]
wavelength = 0.1432
dataformat = twotheta
inputfile = 1_1Pd_CeO2_cycle-00286.chi
backgroundfile = background-00000.chi
mode = xray
bgscale = 1.007
composition = CeO2
outputtype = gr
qmaxinst = 28.8974762299
qmin = 0.5
qmax = 27.9
rmax = 50.0
rmin = 0.0
rstep = 0.01
rpoly = 1.8657

[Misc]
inputdir = G:/SankarDec16/1Pd/Chi
savedir = D:/DATA/APS_CeO2/1Pd
backgroundfilefull = G:/SankarDec16/Background/background-00000.chi

#### start data
#S 1
#L r($\AA$)  G($\AA^{-2}$)
0 0
0.01 -0.00702377
0.02 -0.0135174
0.03 -0.0189349
0.04 -0.0228656
0.05 -0.0250808
0.06 -0.0252137
0.07 -0.0235097
0.08 -0.019852
0.09 -0.0147086
0.1 -0.00840411
0.11 -0.00143454
0.12 0.00566028
0.13 0.0122736
0.14 0.0179778
0.15 0.022248
0.16 0.0247782
0.17 0.0254477
0.18 0.0240084
0.19 0.0208225
0.2 0.0159076
0.21 0.00981001
0.22 0.00293435
0.23 -0.00416219
0.24 -0.0109725
0.25 -0.0168432
0.26 -0.0214698
0.27 -0.0243746
0.28 -0.0253716
0.29 -0.0244538
0.3 -0.0215044
0.31 -0.016985
0.32 -0.0110464
0.33 -0.00428703
0.34 0.0028286
0.35 0.0097091
0.36 0.0159052
0.37 0.0207491
0.38 0.0240745
0.39 0.0254745
0.4 0.0248925
0.41 0.0224359
0.42 0.0181254
0.43 0.0124991
0.44 0.00583431
0.45 -0.00124779
0.46 -0.00824576
0.47 -0.0145627
0.48 -0.0198298
0.49 -0.0233977
0.5 -0.0252467
0.51 -0.0250614
0.52 -0.0229176
0.53 -0.0190319
0.54 -0.0135625
0.55 -0.00709763
0.56 -2.74946e-05
0.57 0.00703414
0.58 0.0135738
0.59 0.0190183
0.6 0.0230979
0.61 0.0252137
0.62 0.0254945
0.63 0.0237317
0.64 0.0201306
0.65 0.0150069
0.66 0.00864847
0.67 0.00166508
0.68 -0.00545939
0.69 -0.0121487
0.7 -0.017903
0.71 -0.022201
0.72 -0.0248855
0.73 -0.0254384
0.74 -0.0241298
0.75 -0.0208688
0.76 -0.0159794
0.77 -0.00986002
0.78 -0.00291303
0.79 0.00426163
0.8 0.0111129
0.81 0.017132
0.82 0.0218601
0.83 0.0248565
0.84 0.0260857
0.85 0.0251405
0.86 0.0224183
0.87 0.0179526
0.88 0.0121696
0.89 0.00552823
0.9 -0.00147607
0.91 -0.00829005
0.92 -0.0143296
0.93 -0.0191881
0.94 -0.022483
0.95 -0.0238918
0.96 -0.0235137
0.97 -0.0211015
0.98 -0.0171677
0.99 -0.0118965
1 -0.00581255
1.01 0.000575902
1.02 0.00667187
1.03 0.0120069
1.04 0.0159623
1.05 0.0182702
1.06 0.0186432
1.07 0.0169026
1.08 0.0133146
1.09 0.00781972
1.1 0.00108032
1.11 -0.0065306
1.12 -0.0143472
1.13 -0.0217737
1.14 -0.0280368
1.15 -0.0327257
1.16 -0.0350849
1.17 -0.0349451
1.18 -0.0320346
1.19 -0.0262209
1.2 -0.0179301
1.21 -0.00711731
1.22 0.00534583
1.23 0.019003
1.24 0.03304
1.25 0.0467357
1.26 0.059175
1.27 0.0698388
1.28 0.0778084
1.29 0.082814
1.3 0.084448
1.31 0.0824064
1.32 0.0770704
1.33 0.0680916
1.34 0.0563716
1.35 0.0421257
1.36 0.0260767
1.37 0.00890686
1.38 -0.00870831
1.39 -0.0260659
1.4 -0.0424463
1.41 -0.0573524
1.42 -0.070297
1.43 -0.0808087
1.44 -0.0889107
1.45 -0.0940329
1.46 -0.0965967
1.47 -0.0964138
1.48 -0.0937175
1.49 -0.0887865
1.5 -0.0816481
1.51 -0.0728243
1.52 -0.0623601
1.53 -0.0506753
1.54 -0.0379793
1.55 -0.0245176
1.56 -0.0105947
1.57 0.0035667
1.58 0.0176574
1.59 0.0313772
1.6 0.0443907
1.61 0.0564099
1.62 0.066913
1.63 0.0757441
1.64 0.0822837
1.65 0.0863904
1.66 0.087726
1.67 0.0859524
1.68 0.0812772
1.69 0.0731992
1.7 0.062359
1.71 0.0487541
1.72 0.0329071
1.73 0.015397
1.74 -0.00322783
1.75 -0.0221562
1.76 -0.0406402
1.77 -0.0579632
1.78 -0.0734562
1.79 -0.0864151
1.8 -0.0967075
1.81 -0.103576
1.82 -0.107473
1.83 -0.108256
1.84 -0.106388
1.85 -0.102461
1.86 -0.0970222
1.87 -0.0909954
1.88 -0.0851721
1.89 -0.0803656
1.9 -0.0772893
1.91 -0.0766639
1.92 -0.0786072
1.93 -0.0837716
1.94 -0.0916088
1.95 -0.102058
1.96 -0.114436
1.97 -0.127954
1.98 -0.141662
1.99 -0.154551
2 -0.165358
2.01 -0.173189
2.02 -0.177086
2.03 -0.176053
2.04 -0.17011
2.05 -0.1581
2.06 -0.140938
2.07 -0.11842
2.08 -0.0912931
2.09 -0.0604515
2.1 -0.0265433
2.11 0.00908944
2.12 0.0456132
2.13 0.0819843
2.14 0.117459
2.15 0.151364
2.16 0.183564
2.17 0.213704
2.18 0.242309
2.19 0.269686
2.2 0.296573
2.21 0.323699
2.22 0.35201
2.23 0.382057
2.24 0.414707
2.25 0.450081
2.26 0.488269
2.27 0.528991
2.28 0.57132
2.29 0.614209
2.3 0.656073
2.31 0.695028
2.32 0.728985
2.33 0.756244
2.34 0.773743
2.35 0.781009
2.36 0.775035
2.37 0.755908
2.38 0.722829
2.39 0.675398
2.4 0.615774
2.41 0.543514
2.42 0.462513
2.43 0.374454
2.44 0.282705
2.45 0.190332
2.46 0.100955
2.47 0.0171106
2.48 -0.0574855
2.49 -0.121257
2.5 -0.172335
2.51 -0.209124
2.52 -0.232875
2.53 -0.24199
2.54 -0.239915
2.55 -0.227504
2.56 -0.207699
2.57 -0.183399
2.58 -0.157522
2.59 -0.133063
2.6 -0.113107
2.61 -0.0996609
2.62 -0.0945476
2.63 -0.0993202
2.64 -0.113312
2.65 -0.137682
2.66 -0.169838
2.67 -0.208855
2.68 -0.25221
2.69 -0.297445
2.7 -0.341785
2.71 -0.382948
2.72 -0.418078
2.73 -0.445787
2.74 -0.464684
2.75 -0.47372
2.76 -0.473967
2.77 -0.464814
2.78 -0.449057
2.79 -0.428003
2.8 -0.404325
2.81 -0.380475
2.82 -0.35937
2.83 -0.342906
2.84 -0.333846
2.85 -0.333083
2.86 -0.341597
2.87 -0.359895
2.88 -0.386425
2.89 -0.42108
2.9 -0.460746
2.91 -0.503516
2.92 -0.546381
2.93 -0.586761
2.94 -0.621285
2.95 -0.64846
2.96 -0.665287
2.97 -0.671387
2.98 -0.66606
2.99 -0.649193
3 -0.622957
3.01 -0.587855
3.02 -0.547604
3.03 -0.504547
3.04 -0.462104
3.05 -0.423095
3.06 -0.391211
3.07 -0.367845
3.08 -0.356106
3.09 -0.356113
3.1 -0.368365
3.11 -0.392692
3.12 -0.426581
3.13 -0.469206
3.14 -0.516604
3.15 -0.566205
3.16 -0.614499
3.17 -0.65872
3.18 -0.695279
3.19 -0.723119
3.2 -0.739538
3.21 -0.744921
3.22 -0.739332
3.23 -0.723668
3.24 -0.700778
3.25 -0.672513
3.26 -0.642785
3.27 -0.614771
3.28 -0.592021
3.29 -0.577063
3.3 -0.573584
3.31 -0.58168
3.32 -0.603713
3.33 -0.638206
3.34 -0.684211
3.35 -0.739703
3.36 -0.800956
3.37 -0.864739
3.38 -0.926694
3.39 -0.98267
3.4 -1.02873
3.41 -1.0624
3.42 -1.07959
3.43 -1.08125
3.44 -1.06522
3.45 -1.03425
3.46 -0.990317
3.47 -0.936726
3.48 -0.878345
3.49 -0.819893
3.5 -0.766321
3.51 -0.722692
3.52 -0.6931
3.53 -0.679587
3.54 -0.685684
3.55 -0.708604
3.56 -0.748383
3.57 -0.799373
3.58 -0.856248
3.59 -0.910874
3.6 -0.955553
3.61 -0.977491
3.62 -0.969998
3.63 -0.920793
3.64 -0.821271
3.65 -0.666989
3.66 -0.44559
3.67 -0.163196
3.68 0.188366
3.69 0.599965
3.7 1.06696
3.71 1.58145
3.72 2.12781
3.73 2.69513
3.74 3.26453
3.75 3.81948
3.76 4.34161
3.77 4.81707
3.78 5.22272
3.79 5.55486
3.8 5.79201
3.81 5.93403
3.82 5.97484
3.83 5.90914
3.84 5.75048
3.85 5.49029
3.86 5.15256
3.87 4.74212
3.88 4.27595
3.89 3.77088
3.9 3.24101
3.91 2.70488
3.92 2.17785
3.93 1.67365
3.94 1.20401
3.95 0.781202
3.96 0.406688
3.97 0.0935458
3.98 -0.165498
3.99 -0.366567
4 -0.514529
4.01 -0.616618
4.02 -0.675121
4.03 -0.702926
4.04 -0.704336
4.05 -0.689804
4.06 -0.666004
4.07 -0.639827
4.08 -0.616392
4.09 -0.60081
4.1 -0.594562
4.11 -0.599662
4.12 -0.615751
4.13 -0.641184
4.14 -0.674587
4.15 -0.71227
4.16 -0.751482
4.17 -0.788734
4.18 -0.821107
4.19 -0.845399
4.2 -0.86053
4.21 -0.863262
4.22 -0.854596
4.23 -0.833434
4.24 -0.800629
4.25 -0.757701
4.26 -0.705126
4.27 -0.645764
4.28 -0.580559
4.29 -0.511762
4.3 -0.440733
4.31 -0.368765
4.32 -0.296793
4.33 -0.225497
4.34 -0.155059
4.35 -0.0855729
4.36 -0.0168583
4.37 0.0513314
4.38 0.119167
4.39 0.186767
4.4 0.253959
4.41 0.320349
4.42 0.385245
4.43 0.447426
4.44 0.505994
4.45 0.558581
4.46 0.604365
4.47 0.641064
4.48 0.66712
4.49 0.68176
4.5 0.682399
4.51 0.670248
4.52 0.643398
4.53 0.603411
4.54 0.55086
4.55 0.486685
4.56 0.413711
4.57 0.332901
4.58 0.247728
4.59 0.160231
4.6 0.0731096
4.61 -0.0115647
4.62 -0.0912012
4.63 -0.164919
4.64 -0.230684
4.65 -0.288428
4.66 -0.337822
4.67 -0.378775
4.68 -0.412782
4.69 -0.439825
4.7 -0.462132
4.71 -0.48063
4.72 -0.496895
4.73 -0.512222
4.74 -0.527777
4.75 -0.544338
4.76 -0.562618
4.77 -0.582708
4.78 -0.604544
4.79 -0.627779
4.8 -0.651705
4.81 -0.675541
4.82 -0.698427
4.83 -0.719423
4.84 -0.737708
4.85 -0.752827
4.86 -0.763906
4.87 -0.7713
4.88 -0.774593
4.89 -0.774454
4.9 -0.771339
4.91 -0.765916
4.92 -0.759188
4.93 -0.751958
4.94 -0.745174
4.95 -0.739658
4.96 -0.736104
4.97 -0.734856
4.98 -0.736512
4.99 -0.74075
5 -0.747775
5.01 -0.757043
5.02 -0.768181
5.03 -0.780701
5.04 -0.793967
5.05 -0.807509
5.06 -0.820837
5.07 -0.833587
5.08 -0.845511
5.09 -0.856536
5.1 -0.86652
5.11 -0.875627
5.12 -0.883778
5.13 -0.891032
5.14 -0.897252
5.15 -0.902047
5.16 -0.905092
5.17 -0.905197
5.18 -0.901713
5.19 -0.893034
5.2 -0.877593
5.21 -0.854196
5.22 -0.819895
5.23 -0.774536
5.24 -0.715069
5.25 -0.641387
5.26 -0.552557
5.27 -0.447631
5.28 -0.328713
5.29 -0.194798
5.3 -0.0499053
5.31 0.104302
5.32 0.264034
5.33 0.42545
5.34 0.583774
5.35 0.735049
5.36 0.87345
5.37 0.995319
5.38 1.09652
5.39 1.17207
5.4 1.22217
5.41 1.24039
5.42 1.23032
5.43 1.18975
5.44 1.12061
5.45 1.02648
5.46 0.908047
5.47 0.772334
5.48 0.621855
5.49 0.462912
5.5 0.300103
5.51 0.138723
5.52 -0.0172466
5.53 -0.162315
5.54 -0.294674
5.55 -0.41079
5.56 -0.509181
5.57 -0.590088
5.58 -0.651542
5.59 -0.696996
5.6 -0.725971
5.61 -0.741903
5.62 -0.746812
5.63 -0.742914
5.64 -0.733331
5.65 -0.719616
5.66 -0.704179
5.67 -0.68822
5.68 -0.672691
5.69 -0.65788
5.7 -0.643681
5.71 -0.629428
5.72 -0.614105
5.73 -0.59657
5.74 -0.575611
5.75 -0.54973
5.76 -0.518554
5.77 -0.480449
5.78 -0.436136
5.79 -0.385333
5.8 -0.328966
5.81 -0.268459
5.82 -0.205239
5.83 -0.141615
5.84 -0.0799296
5.85 -0.0225285
5.86 0.0283149
5.87 0.0698405
5.88 0.101352
5.89 0.119555
5.9 0.125377
5.91 0.11745
5.92 0.0962734
5.93 0.0632924
5.94 0.0185978
5.95 -0.0345653
5.96 -0.0951319
5.97 -0.160165
5.98 -0.227567
5.99 -0.294992
6 -0.36064
6.01 -0.422331
6.02 -0.479359
6.03 -0.530559
6.04 -0.575662
6.05 -0.615094
6.06 -0.648742
6.07 -0.678169
6.08 -0.703918
6.09 -0.727481
6.1 -0.749906
6.11 -0.772293
6.12 -0.795397
6.13 -0.81996
6.14 -0.846004
6.15 -0.873538
6.16 -0.902067
6.17 -0.930893
6.18 -0.959008
6.19 -0.985535
6.2 -1.00918
6.21 -1.0292
6.22 -1.04484
6.23 -1.05535
6.24 -1.06116
6.25 -1.06173
6.26 -1.05835
6.27 -1.05157
6.28 -1.04263
6.29 -1.03276
6.3 -1.02322
6.31 -1.01494
6.32 -1.00881
6.33 -1.00488
6.34 -1.00282
6.35 -1.00149
6.36 -0.999132
6.37 -0.992609
6.38 -0.979127
6.39 -0.954221
6.4 -0.913252
6.41 -0.852828
6.42 -0.765166
6.43 -0.649719
6.44 -0.498827
6.45 -0.312071
6.46 -0.0872223
6.47 0.178358
6.48 0.479487
6.49 0.819159
6.5 1.18788
6.51 1.58233
6.52 1.99413
6.53 2.41448
6.54 2.83335
6.55 3.24108
6.56 3.6251
6.57 3.97626
6.58 4.28482
6.59 4.53848
6.6 4.73616
6.61 4.86182
6.62 4.9212
6.63 4.90701
6.64 4.82058
6.65 4.66813
6.66 4.44666
6.67 4.17165
6.68 3.84462
6.69 3.47936
6.7 3.0851
6.71 2.67235
6.72 2.2529
6.73 1.83746
6.74 1.43519
6.75 1.05556
6.76 0.706115
6.77 0.390388
6.78 0.117212
6.79 -0.116955
6.8 -0.306384
6.81 -0.455419
6.82 -0.56573
6.83 -0.639013
6.84 -0.683055
6.85 -0.698434
6.86 -0.694072
6.87 -0.673277
6.88 -0.641479
6.89 -0.603243
6.9 -0.562051
6.91 -0.521176
6.92 -0.483007
6.93 -0.448906
6.94 -0.419666
6.95 -0.395775
6.96 -0.376411
6.97 -0.361631
6.98 -0.350028
6.99 -0.341055
7 -0.333886
7.01 -0.327938
7.02 -0.32307
7.03 -0.319191
7.04 -0.31682
7.05 -0.316526
7.06 -0.319148
7.07 -0.325958
7.08 -0.337436
7.09 -0.355411
7.1 -0.379758
7.11 -0.411436
7.12 -0.450459
7.13 -0.496139
7.14 -0.548476
7.15 -0.605482
7.16 -0.666191
7.17 -0.728462
7.18 -0.790471
7.19 -0.849944
7.2 -0.905382
7.21 -0.95413
7.22 -0.995632
7.23 -1.02829
7.24 -1.0516
7.25 -1.06603
7.26 -1.07096
7.27 -1.06857
7.28 -1.05933
7.29 -1.04547
7.3 -1.02869
7.31 -1.01093
7.32 -0.993932
7.33 -0.979566
7.34 -0.968652
7.35 -0.962132
7.36 -0.960095
7.37 -0.961864
7.38 -0.966694
7.39 -0.972602
7.4 -0.977507
7.41 -0.978861
7.42 -0.974068
7.43 -0.959648
7.44 -0.934188
7.45 -0.893137
7.46 -0.836593
7.47 -0.761973
7.48 -0.668731
7.49 -0.558005
7.5 -0.428596
7.51 -0.28468
7.52 -0.126976
7.53 0.0401878
7.54 0.213421
7.55 0.388464
7.56 0.561189
7.57 0.726273
7.58 0.880481
7.59 1.01913
7.6 1.13862
7.61 1.23745
7.62 1.31047
7.63 1.35984
7.64 1.38186
7.65 1.37872
7.66 1.35104
7.67 1.29919
7.68 1.22771
7.69 1.13633
7.7 1.03065
7.71 0.912652
7.72 0.786039
7.73 0.654303
7.74 0.520458
7.75 0.387671
7.76 0.258962
7.77 0.136636
7.78 0.0227725
7.79 -0.0800963
7.8 -0.171808
7.81 -0.249236
7.82 -0.313453
7.83 -0.362944
7.84 -0.397663
7.85 -0.418583
7.86 -0.424411
7.87 -0.41789
7.88 -0.398486
7.89 -0.368496
7.9 -0.329302
7.91 -0.282414
7.92 -0.230515
7.93 -0.175292
7.94 -0.119546
7.95 -0.0655885
7.96 -0.0160238
7.97 0.0273039
7.98 0.0611418
7.99 0.0850139
8 0.0960985
8.01 0.0942222
8.02 0.0787731
8.03 0.0489488
8.04 0.00679246
8.05 -0.0485062
8.06 -0.113642
8.07 -0.187435
8.08 -0.267277
8.09 -0.350512
8.1 -0.434573
8.11 -0.516902
8.12 -0.594824
8.13 -0.666517
8.14 -0.73043
8.15 -0.78488
8.16 -0.830406
8.17 -0.865597
8.18 -0.892412
8.19 -0.911262
8.2 -0.923815
8.21 -0.932009
8.22 -0.93737
8.23 -0.941964
8.24 -0.947269
8.25 -0.954409
8.26 -0.963943
8.27 -0.975941
8.28 -0.989431
8.29 -1.00294
8.3 -1.01421
8.31 -1.02026
8.32 -1.01743
8.33 -1.00286
8.34 -0.970549
8.35 -0.919298
8.36 -0.843096
8.37 -0.740691
8.38 -0.609948
8.39 -0.44794
8.4 -0.258081
8.41 -0.0372332
8.42 0.208012
8.43 0.47583
8.44 0.760647
8.45 1.05604
8.46 1.35563
8.47 1.6518
8.48 1.93622
8.49 2.20175
8.5 2.44148
8.51 2.64643
8.52 2.81517
8.53 2.93661
8.54 3.0136
8.55 3.04097
8.56 3.01873
8.57 2.95088
8.58 2.83435
8.59 2.6795
8.6 2.4866
8.61 2.26451
8.62 2.01913
8.63 1.75676
8.64 1.48559
8.65 1.2118
8.66 0.942136
8.67 0.682462
8.68 0.43809
8.69 0.211748
8.7 0.00929696
8.71 -0.17063
8.72 -0.324161
8.73 -0.453118
8.74 -0.558143
8.75 -0.639528
8.76 -0.701799
8.77 -0.744725
8.78 -0.773651
8.79 -0.790382
8.8 -0.798184
8.81 -0.800115
8.82 -0.798299
8.83 -0.795347
8.84 -0.792991
8.85 -0.792666
8.86 -0.795314
8.87 -0.801796
8.88 -0.811919
8.89 -0.8262
8.9 -0.843776
8.91 -0.864387
8.92 -0.8873
8.93 -0.911713
8.94 -0.936965
8.95 -0.962246
8.96 -0.986878
8.97 -1.01031
8.98 -1.03213
8.99 -1.05185
9 -1.06952
9.01 -1.0847
9.02 -1.09774
9.03 -1.10857
9.04 -1.11736
9.05 -1.12442
9.06 -1.12974
9.07 -1.1337
9.08 -1.13625
9.09 -1.13753
9.1 -1.13748
9.11 -1.13582
9.12 -1.13248
9.13 -1.12672
9.14 -1.11835
9.15 -1.1066
9.16 -1.09076
9.17 -1.07048
9.18 -1.0444
9.19 -1.01274
9.2 -0.97428
9.21 -0.929158
9.22 -0.877236
9.23 -0.818246
9.24 -0.753345
9.25 -0.682382
9.26 -0.607171
9.27 -0.528688
9.28 -0.448686
9.29 -0.368898
9.3 -0.291617
9.31 -0.21846
9.32 -0.152055
9.33 -0.093973
9.34 -0.0458621
9.35 -0.0099628
9.36 0.0140961
9.37 0.0237028
9.38 0.0205773
9.39 0.00416926
9.4 -0.0244654
9.41 -0.0633031
9.42 -0.111623
9.43 -0.166033
9.44 -0.224796
9.45 -0.284931
9.46 -0.344056
9.47 -0.399382
9.48 -0.449341
9.49 -0.491035
9.5 -0.524154
9.51 -0.547267
9.52 -0.560122
9.53 -0.563617
9.54 -0.557429
9.55 -0.544138
9.56 -0.524598
9.57 -0.501302
9.58 -0.476228
9.59 -0.451682
9.6 -0.429481
9.61 -0.412057
9.62 -0.400322
9.63 -0.395759
9.64 -0.399057
9.65 -0.409897
9.66 -0.429002
9.67 -0.454586
9.68 -0.486413
9.69 -0.522732
9.7 -0.562236
9.71 -0.603497
9.72 -0.645053
9.73 -0.685565
9.74 -0.724144
9.75 -0.759922
9.76 -0.792388
9.77 -0.821545
9.78 -0.846912
9.79 -0.869106
9.8 -0.88785
9.81 -0.903394
9.82 -0.915556
9.83 -0.92354
9.84 -0.926957
9.85 -0.923482
9.86 -0.912022
9.87 -0.88962
9.88 -0.853146
9.89 -0.800558
9.9 -0.725682
9.91 -0.628264
9.92 -0.502095
9.93 -0.346082
9.94 -0.15812
9.95 0.0653419
9.96 0.320609
9.97 0.611709
9.98 0.931789
9.99 1.27933
10 1.64874
10.01 2.03293
10.02 2.42541
10.03 2.81713
10.04 3.19887
10.05 3.56175
10.06 3.89737
10.07 4.1944
10.08 4.4501
10.09 4.65051
10.1 4.79741
10.11 4.88363
10.12 4.9075
10.13 4.87316
10.14 4.7749
10.15 4.62517
10.16 4.42302
10.17 4.17891
10.18 3.89993
10.19 3.59324
10.2 3.26984
10.21 2.93678
10.22 2.60366
10.23 2.27785
10.24 1.96667
10.25 1.6742
10.26 1.40794
10.27 1.16703
10.28 0.9562
10.29 0.773693
10.3 0.618619
10.31 0.490549
10.32 0.383925
10.33 0.298411
10.34 0.227615
10.35 0.168857
10.36 0.11804
10.37 0.0715255
10.38 0.0264495
10.39 -0.0197392
10.4 -0.0690611
10.41 -0.122568
10.42 -0.180795
10.43 -0.244062
10.44 -0.311371
10.45 -0.3824
10.46 -0.455527
10.47 -0.529629
10.48 -0.603212
10.49 -0.675107
10.5 -0.74368
10.51 -0.80839
10.52 -0.867896
10.53 -0.921882
10.54 -0.96997
10.55 -1.01152
10.56 -1.0472
10.57 -1.07613
10.58 -1.09927
10.59 -1.11637
10.6 -1.12761
10.61 -1.13352
10.62 -1.13347
10.63 -1.12839
10.64 -1.11773
10.65 -1.10192
10.66 -1.0811
10.67 -1.05513
10.68 -1.02485
10.69 -0.990032
10.7 -0.951797
10.71 -0.910586
10.72 -0.867326
10.73 -0.823032
10.74 -0.778797
10.75 -0.735708
10.76 -0.695097
10.77 -0.657989
10.78 -0.625353
10.79 -0.598515
10.8 -0.577503
10.81 -0.56384
10.82 -0.556923
10.83 -0.55728
10.84 -0.564722
10.85 -0.578431
10.86 -0.598619
10.87 -0.623679
10.88 -0.653338
10.89 -0.686336
10.9 -0.721789
10.91 -0.758817
10.92 -0.79644
10.93 -0.833865
10.94 -0.870411
10.95 -0.905454
10.96 -0.938477
10.97 -0.96929
10.98 -0.997282
10.99 -1.02268
11 -1.04508
11.01 -1.06462
11.02 -1.08134
11.03 -1.09512
11.04 -1.10637
11.05 -1.11488
11.06 -1.12116
11.07 -1.12531
11.08 -1.12765
11.09 -1.1286
11.1 -1.12843
11.11 -1.1277
11.12 -1.12678
11.13 -1.12612
11.14 -1.12606
11.15 -1.1269
11.16 -1.12864
11.17 -1.13127
11.18 -1.13432
11.19 -1.13715
11.2 -1.13864
11.21 -1.13768
11.22 -1.13198
11.23 -1.12028
11.24 -1.09956
11.25 -1.06784
11.26 -1.02287
11.27 -0.961036
11.28 -0.882236
11.29 -0.781724
11.3 -0.66079
11.31 -0.517368
11.32 -0.351447
11.33 -0.16531
11.34 0.0419348
11.35 0.264811
11.36 0.501663
11.37 0.747113
11.38 0.996536
11.39 1.24407
11.4 1.48466
11.41 1.71066
11.42 1.91805
11.43 2.1004
11.44 2.25247
11.45 2.37271
11.46 2.45315
11.47 2.49753
11.48 2.50072
11.49 2.4658
11.5 2.3945
11.51 2.28742
11.52 2.15207
11.53 1.98906
11.54 1.80701
11.55 1.61001
11.56 1.40421
11.57 1.19523
11.58 0.988604
11.59 0.788471
11.6 0.599652
11.61 0.424718
11.62 0.26566
11.63 0.12502
11.64 0.0010526
11.65 -0.104128
11.66 -0.194014
11.67 -0.269321
11.68 -0.332424
11.69 -0.386377
11.7 -0.432773
11.71 -0.475013
11.72 -0.514826
11.73 -0.554285
11.74 -0.594672
11.75 -0.637026
11.76 -0.681429
11.77 -0.727993
11.78 -0.775768
11.79 -0.823773
11.8 -0.870448
11.81 -0.914392
11.82 -0.953152
11.83 -0.985708
11.84 -1.00951
11.85 -1.02342
11.86 -1.02622
11.87 -1.01587
11.88 -0.993181
11.89 -0.955703
11.9 -0.905125
11.91 -0.840821
11.92 -0.763344
11.93 -0.674356
11.94 -0.573447
11.95 -0.463556
11.96 -0.34513
11.97 -0.220455
11.98 -0.0912524
11.99 0.0406131
12 0.172969
12.01 0.303547
12.02 0.430369
12.03 0.55109
12.04 0.66333
12.05 0.7658
12.06 0.854819
12.07 0.930557
12.08 0.989813
12.09 1.03227
12.1 1.05719
12.11 1.06279
12.12 1.05127
12.13 1.02048
12.14 0.973727
12.15 0.911402
12.16 0.835546
12.17 0.749185
12.18 0.653797
12.19 0.553355
12.2 0.450194
12.21 0.347475
12.22 0.247676
12.23 0.153685
12.24 0.066649
12.25 -0.0106998
12.26 -0.0785954
12.27 -0.136125
12.28 -0.183534
12.29 -0.222275
12.3 -0.252589
12.31 -0.277302
12.32 -0.29774
12.33 -0.31636
12.34 -0.335088
12.35 -0.35606
12.36 -0.380468
12.37 -0.410117
12.38 -0.444998
12.39 -0.485457
12.4 -0.530871
12.41 -0.579818
