# xPDFsuite Configuration #
[PDF]
wavelength = 0.1432
dataformat = twotheta
inputfile = 1_1Pd_CeO2_cycle-00045.chi
backgroundfile = background-00000.chi
mode = xray
bgscale = 1.007
composition = CeO2
outputtype = gr
qmaxinst = 28.8974762299
qmin = 0.5
qmax = 27.9
rmax = 50.0
rmin = 0.0
rstep = 0.01
rpoly = 1.8657

[Misc]
inputdir = G:/SankarDec16/1Pd/Chi
savedir = D:/DATA/APS_CeO2/1Pd
backgroundfilefull = G:/SankarDec16/Background/background-00000.chi

#### start data
#S 1
#L r($\AA$)  G($\AA^{-2}$)
0 0
0.01 -0.00615158
0.02 -0.0118383
0.03 -0.0165815
0.04 -0.020021
0.05 -0.0219568
0.06 -0.0220673
0.07 -0.0205682
0.08 -0.0173574
0.09 -0.012846
0.1 -0.00731889
0.11 -0.00121153
0.12 0.00500283
0.13 0.0107917
0.14 0.0157808
0.15 0.01951
0.16 0.0217122
0.17 0.0222822
0.18 0.0210039
0.19 0.0181959
0.2 0.0138752
0.21 0.00852182
0.22 0.00249144
0.23 -0.00372647
0.24 -0.00968767
0.25 -0.0148185
0.26 -0.0188537
0.27 -0.021375
0.28 -0.0222212
0.29 -0.0213879
0.3 -0.0187751
0.31 -0.0147892
0.32 -0.00956494
0.33 -0.00362831
0.34 0.00261209
0.35 0.00863673
0.36 0.0140526
0.37 0.0182735
0.38 0.0211566
0.39 0.0223463
0.4 0.0217959
0.41 0.0196023
0.42 0.0157871
0.43 0.0108243
0.44 0.00496061
0.45 -0.00125816
0.46 -0.00739084
0.47 -0.0129133
0.48 -0.0175038
0.49 -0.0205928
0.5 -0.0221673
0.51 -0.0219527
0.52 -0.0200199
0.53 -0.0165624
0.54 -0.0117233
0.55 -0.00602102
0.56 0.000197944
0.57 0.00639462
0.58 0.0121174
0.59 0.0168634
0.6 0.0203988
0.61 0.0221993
0.62 0.0223832
0.63 0.0207711
0.64 0.0175482
0.65 0.0129959
0.66 0.00737238
0.67 0.00121461
0.68 -0.00504795
0.69 -0.0109099
0.7 -0.0159321
0.71 -0.0196579
0.72 -0.0219536
0.73 -0.0223665
0.74 -0.0211404
0.75 -0.0182002
0.76 -0.0138363
0.77 -0.00840292
0.78 -0.00225956
0.79 0.00406615
0.8 0.010086
0.81 0.0153548
0.82 0.019471
0.83 0.02205
0.84 0.0230664
0.85 0.0221674
0.86 0.0197091
0.87 0.0157274
0.88 0.0106028
0.89 0.00474274
0.9 -0.0014117
0.91 -0.00737607
0.92 -0.0126347
0.93 -0.0168359
0.94 -0.019648
0.95 -0.0207958
0.96 -0.0203754
0.97 -0.0181827
0.98 -0.0146769
0.99 -0.0100338
1 -0.00472433
1.01 0.000798412
1.02 0.00599683
1.03 0.0104648
1.04 0.0136503
1.05 0.015329
1.06 0.0152547
1.07 0.0132827
1.08 0.00966538
1.09 0.00436986
1.1 -0.0019992
1.11 -0.00908783
1.12 -0.016285
1.13 -0.023047
1.14 -0.0286569
1.15 -0.03275
1.16 -0.0346242
1.17 -0.0341318
1.18 -0.0310205
1.19 -0.0251636
1.2 -0.0169574
1.21 -0.00634285
1.22 0.00586932
1.23 0.0192706
1.24 0.03311
1.25 0.0467178
1.26 0.059251
1.27 0.0702073
1.28 0.0787252
1.29 0.0845212
1.3 0.0871839
1.31 0.0863822
1.32 0.0824293
1.33 0.0749205
1.34 0.0646599
1.35 0.0517691
1.36 0.0368686
1.37 0.0205617
1.38 0.00339563
1.39 -0.01394
1.4 -0.0308385
1.41 -0.0467795
1.42 -0.061289
1.43 -0.0738817
1.44 -0.0844784
1.45 -0.0924858
1.46 -0.0981646
1.47 -0.101231
1.48 -0.101776
1.49 -0.0999554
1.5 -0.0956377
1.51 -0.0892713
1.52 -0.0807443
1.53 -0.0704436
1.54 -0.0585145
1.55 -0.0451549
1.56 -0.0307421
1.57 -0.015437
1.58 0.000291762
1.59 0.0161088
1.6 0.0315538
1.61 0.0462196
1.62 0.0594685
1.63 0.0710174
1.64 0.0801203
1.65 0.0865435
1.66 0.0898602
1.67 0.0896476
1.68 0.0861177
1.69 0.0786772
1.7 0.0680503
1.71 0.0542243
1.72 0.0377918
1.73 0.019412
1.74 -0.000299019
1.75 -0.0204123
1.76 -0.0400869
1.77 -0.0585026
1.78 -0.0748988
1.79 -0.0884717
1.8 -0.0990561
1.81 -0.10578
1.82 -0.109133
1.83 -0.108924
1.84 -0.10565
1.85 -0.0999567
1.86 -0.0924226
1.87 -0.0840931
1.88 -0.0758362
1.89 -0.0685927
1.9 -0.0631884
1.91 -0.0604818
1.92 -0.0606701
1.93 -0.0645841
1.94 -0.0716892
1.95 -0.0820422
1.96 -0.0949862
1.97 -0.109716
1.98 -0.125329
1.99 -0.140676
2 -0.154481
2.01 -0.165683
2.02 -0.173202
2.03 -0.175879
2.04 -0.173574
2.05 -0.164922
2.06 -0.15072
2.07 -0.130581
2.08 -0.10514
2.09 -0.0752375
2.1 -0.0413877
2.11 -0.00504349
2.12 0.0330212
2.13 0.0715953
2.14 0.109827
2.15 0.146877
2.16 0.182396
2.17 0.215812
2.18 0.247439
2.19 0.277354
2.2 0.306106
2.21 0.334309
2.22 0.3627
2.23 0.391907
2.24 0.422674
2.25 0.455285
2.26 0.489929
2.27 0.526495
2.28 0.564322
2.29 0.602606
2.3 0.640052
2.31 0.675071
2.32 0.705848
2.33 0.730865
2.34 0.747376
2.35 0.754862
2.36 0.75054
2.37 0.734344
2.38 0.705415
2.39 0.663207
2.4 0.609557
2.41 0.54382
2.42 0.469487
2.43 0.387918
2.44 0.302123
2.45 0.2149
2.46 0.129472
2.47 0.0483325
2.48 -0.0251195
2.49 -0.0892273
2.5 -0.142129
2.51 -0.182162
2.52 -0.210262
2.53 -0.224729
2.54 -0.228559
2.55 -0.222332
2.56 -0.208612
2.57 -0.190003
2.58 -0.169043
2.59 -0.148598
2.6 -0.131447
2.61 -0.119602
2.62 -0.114843
2.63 -0.118746
2.64 -0.130895
2.65 -0.152517
2.66 -0.181402
2.67 -0.216849
2.68 -0.256657
2.69 -0.298616
2.7 -0.340256
2.71 -0.379399
2.72 -0.413413
2.73 -0.44088
2.74 -0.460405
2.75 -0.470859
2.76 -0.473082
2.77 -0.466303
2.78 -0.453001
2.79 -0.434222
2.8 -0.412351
2.81 -0.389639
2.82 -0.368707
2.83 -0.351452
2.84 -0.340453
2.85 -0.336733
2.86 -0.341357
2.87 -0.355011
2.88 -0.376455
2.89 -0.405863
2.9 -0.440487
2.91 -0.478784
2.92 -0.518089
2.93 -0.55605
2.94 -0.589685
2.95 -0.617441
2.96 -0.636575
2.97 -0.646509
2.98 -0.646439
2.99 -0.636044
3 -0.617083
3.01 -0.58976
3.02 -0.557301
3.03 -0.521628
3.04 -0.485722
3.05 -0.452097
3.06 -0.42396
3.07 -0.40271
3.08 -0.391101
3.09 -0.38941
3.1 -0.398185
3.11 -0.417398
3.12 -0.444963
3.13 -0.480258
3.14 -0.519875
3.15 -0.561625
3.16 -0.602465
3.17 -0.639978
3.18 -0.671056
3.19 -0.694741
3.2 -0.708707
3.21 -0.713282
3.22 -0.708555
3.23 -0.695371
3.24 -0.67624
3.25 -0.652928
3.26 -0.628861
3.27 -0.606945
3.28 -0.590342
3.29 -0.581272
3.3 -0.583057
3.31 -0.595645
3.32 -0.62111
3.33 -0.657963
3.34 -0.705205
3.35 -0.760817
3.36 -0.821282
3.37 -0.883394
3.38 -0.943112
3.39 -0.996437
3.4 -1.03967
3.41 -1.07051
3.42 -1.08505
3.43 -1.08434
3.44 -1.06634
3.45 -1.03379
3.46 -0.988653
3.47 -0.934207
3.48 -0.875209
3.49 -0.816312
3.5 -0.762348
3.51 -0.718307
3.52 -0.688221
3.53 -0.674111
3.54 -0.679509
3.55 -0.70169
3.56 -0.740776
3.57 -0.791232
3.58 -0.847863
3.59 -0.902698
3.6 -0.948105
3.61 -0.971494
3.62 -0.96613
3.63 -0.919802
3.64 -0.82383
3.65 -0.673639
3.66 -0.45673
3.67 -0.17896
3.68 0.168116
3.69 0.575661
3.7 1.03933
3.71 1.55156
3.72 2.09685
3.73 2.66469
3.74 3.23608
3.75 3.79465
3.76 4.3219
3.77 4.80374
3.78 5.21686
3.79 5.55708
3.8 5.80256
3.81 5.95267
3.82 6.00088
3.83 5.94138
3.84 5.78748
3.85 5.53002
3.86 5.19306
3.87 4.78115
3.88 4.31138
3.89 3.80081
3.9 3.26367
3.91 2.71908
3.92 2.18276
3.93 1.66906
3.94 1.19023
3.95 0.75914
3.96 0.377616
3.97 0.0594098
3.98 -0.20273
3.99 -0.404585
4 -0.551042
4.01 -0.649548
4.02 -0.702439
4.03 -0.723225
4.04 -0.71652
4.05 -0.693428
4.06 -0.661154
4.07 -0.62722
4.08 -0.597138
4.09 -0.576709
4.1 -0.567486
4.11 -0.571842
4.12 -0.589428
4.13 -0.618405
4.14 -0.657366
4.15 -0.702007
4.16 -0.749273
4.17 -0.795023
4.18 -0.835809
4.19 -0.867794
4.2 -0.889498
4.21 -0.896989
4.22 -0.891192
4.23 -0.870642
4.24 -0.836178
4.25 -0.789513
4.26 -0.73115
4.27 -0.664563
4.28 -0.590994
4.29 -0.513347
4.3 -0.433509
4.31 -0.353404
4.32 -0.274369
4.33 -0.19777
4.34 -0.123873
4.35 -0.0531362
4.36 0.0146036
4.37 0.0797785
4.38 0.142582
4.39 0.203736
4.4 0.263355
4.41 0.321685
4.42 0.378548
4.43 0.433343
4.44 0.485562
4.45 0.533511
4.46 0.576451
4.47 0.612455
4.48 0.639986
4.49 0.658092
4.5 0.66417
4.51 0.658842
4.52 0.639921
4.53 0.608345
4.54 0.564181
4.55 0.50776
4.56 0.441517
4.57 0.36574
4.58 0.283805
4.59 0.197378
4.6 0.109107
4.61 0.0212155
4.62 -0.0637421
4.63 -0.144322
4.64 -0.218276
4.65 -0.284938
4.66 -0.343508
4.67 -0.393329
4.68 -0.435477
4.69 -0.469309
4.7 -0.496881
4.71 -0.518727
4.72 -0.536301
4.73 -0.550967
4.74 -0.563754
4.75 -0.575903
4.76 -0.588207
4.77 -0.601255
4.78 -0.615345
4.79 -0.630568
4.8 -0.646624
4.81 -0.663198
4.82 -0.679685
4.83 -0.695484
4.84 -0.709961
4.85 -0.722694
4.86 -0.733004
4.87 -0.74098
4.88 -0.746253
4.89 -0.74919
4.9 -0.750056
4.91 -0.749285
4.92 -0.747579
4.93 -0.745522
4.94 -0.743815
4.95 -0.743079
4.96 -0.743838
4.97 -0.746353
4.98 -0.751061
4.99 -0.757695
5 -0.766358
5.01 -0.776581
5.02 -0.788008
5.03 -0.800166
5.04 -0.812529
5.05 -0.824589
5.06 -0.835981
5.07 -0.846345
5.08 -0.855487
5.09 -0.863396
5.1 -0.869948
5.11 -0.875408
5.12 -0.879751
5.13 -0.883148
5.14 -0.885565
5.15 -0.886762
5.16 -0.88652
5.17 -0.883875
5.18 -0.878253
5.19 -0.868237
5.2 -0.852375
5.21 -0.829503
5.22 -0.796836
5.23 -0.754063
5.24 -0.698194
5.25 -0.628908
5.26 -0.545116
5.27 -0.445641
5.28 -0.332298
5.29 -0.203762
5.3 -0.0637742
5.31 0.0863361
5.32 0.243056
5.33 0.402689
5.34 0.560785
5.35 0.713251
5.36 0.854434
5.37 0.980436
5.38 1.08696
5.39 1.16877
5.4 1.22564
5.41 1.2508
5.42 1.24738
5.43 1.21275
5.44 1.14841
5.45 1.05769
5.46 0.940799
5.47 0.804861
5.48 0.652088
5.49 0.489009
5.5 0.320358
5.51 0.151664
5.52 -0.0125961
5.53 -0.166579
5.54 -0.307893
5.55 -0.432501
5.56 -0.538384
5.57 -0.62542
5.58 -0.691033
5.59 -0.73867
5.6 -0.767415
5.61 -0.780859
5.62 -0.781075
5.63 -0.770422
5.64 -0.752544
5.65 -0.729232
5.66 -0.703581
5.67 -0.677277
5.68 -0.651877
5.69 -0.628129
5.7 -0.606588
5.71 -0.586748
5.72 -0.568128
5.73 -0.549576
5.74 -0.52995
5.75 -0.507763
5.76 -0.482199
5.77 -0.451579
5.78 -0.415955
5.79 -0.374685
5.8 -0.328136
5.81 -0.277254
5.82 -0.222894
5.83 -0.167062
5.84 -0.111595
5.85 -0.0586957
5.86 -0.0104709
5.87 0.0304619
5.88 0.0631354
5.89 0.0843672
5.9 0.0945842
5.91 0.0922327
5.92 0.0774154
5.93 0.0512003
5.94 0.0133094
5.95 -0.0333397
5.96 -0.0880304
5.97 -0.148025
5.98 -0.211395
5.99 -0.27596
6 -0.339821
6.01 -0.400933
6.02 -0.458328
6.03 -0.510783
6.04 -0.55783
6.05 -0.599687
6.06 -0.636085
6.07 -0.668375
6.08 -0.696954
6.09 -0.723189
6.1 -0.748043
6.11 -0.772546
6.12 -0.797469
6.13 -0.823521
6.14 -0.850803
6.15 -0.879346
6.16 -0.908718
6.17 -0.938274
6.18 -0.967034
6.19 -0.994151
6.2 -1.01833
6.21 -1.03879
6.22 -1.05477
6.23 -1.06543
6.24 -1.07118
6.25 -1.07136
6.26 -1.06728
6.27 -1.05938
6.28 -1.04893
6.29 -1.03718
6.3 -1.02541
6.31 -1.01465
6.32 -1.00589
6.33 -0.999337
6.34 -0.99478
6.35 -0.991276
6.36 -0.987178
6.37 -0.979569
6.38 -0.965681
6.39 -0.941187
6.4 -0.901472
6.41 -0.843093
6.42 -0.758292
6.43 -0.64631
6.44 -0.499405
6.45 -0.316919
6.46 -0.0964255
6.47 0.164967
6.48 0.462265
6.49 0.798765
6.5 1.16508
6.51 1.55808
6.52 1.9695
6.53 2.39052
6.54 2.81123
6.55 3.22176
6.56 3.60953
6.57 3.96513
6.58 4.27866
6.59 4.53757
6.6 4.74054
6.61 4.87128
6.62 4.93533
6.63 4.92516
6.64 4.84195
6.65 4.69184
6.66 4.47166
6.67 4.19701
6.68 3.86932
6.69 3.50255
6.7 3.10601
6.71 2.69033
6.72 2.26753
6.73 1.84844
6.74 1.44245
6.75 1.05915
6.76 0.706279
6.77 0.387448
6.78 0.111644
6.79 -0.124681
6.8 -0.315704
6.81 -0.465808
6.82 -0.576686
6.83 -0.650054
6.84 -0.693811
6.85 -0.708554
6.86 -0.703332
6.87 -0.681509
6.88 -0.648597
6.89 -0.609225
6.9 -0.56693
6.91 -0.52502
6.92 -0.485921
6.93 -0.451005
6.94 -0.42107
6.95 -0.396608
6.96 -0.376773
6.97 -0.361628
6.98 -0.349733
6.99 -0.340535
7 -0.333193
7.01 -0.327108
7.02 -0.322133
7.03 -0.318168
7.04 -0.315726
7.05 -0.315372
7.06 -0.31794
7.07 -0.3247
7.08 -0.336126
7.09 -0.354045
7.1 -0.378328
7.11 -0.409928
7.12 -0.448858
7.13 -0.49443
7.14 -0.546644
7.15 -0.603517
7.16 -0.664092
7.17 -0.726238
7.18 -0.788145
7.19 -0.847557
7.2 -0.902984
7.21 -0.951797
7.22 -0.993442
7.23 -1.02634
7.24 -1.04997
7.25 -1.0648
7.26 -1.07022
7.27 -1.06837
7.28 -1.0597
7.29 -1.0464
7.3 -1.03015
7.31 -1.01285
7.32 -0.996212
7.33 -0.982068
7.34 -0.971237
7.35 -0.964642
7.36 -0.962375
7.37 -0.963782
7.38 -0.968127
7.39 -0.973477
7.4 -0.977783
7.41 -0.978548
7.42 -0.973217
7.43 -0.958355
7.44 -0.932568
7.45 -0.891348
7.46 -0.834776
7.47 -0.760273
7.48 -0.667264
7.49 -0.556846
7.5 -0.427775
7.51 -0.284168
7.52 -0.126683
7.53 0.0403993
7.54 0.213728
7.55 0.389083
7.56 0.562316
7.57 0.728113
7.58 0.883166
7.59 1.02273
7.6 1.14312
7.61 1.24272
7.62 1.31623
7.63 1.36574
7.64 1.38741
7.65 1.38336
7.66 1.35415
7.67 1.3001
7.68 1.22586
7.69 1.13116
7.7 1.02179
7.71 0.899873
7.72 0.769358
7.73 0.633953
7.74 0.496994
7.75 0.361819
7.76 0.231785
7.77 0.109328
7.78 -0.00332536
7.79 -0.103478
7.8 -0.19113
7.81 -0.263032
7.82 -0.320619
7.83 -0.362541
7.84 -0.389115
7.85 -0.401695
7.86 -0.399445
7.87 -0.385486
7.88 -0.35981
7.89 -0.32503
7.9 -0.282842
7.91 -0.235123
7.92 -0.184446
7.93 -0.132853
7.94 -0.0827215
7.95 -0.036299
7.96 0.00419495
7.97 0.0373964
7.98 0.060493
7.99 0.0736156
8 0.0745243
8.01 0.0635706
8.02 0.0406076
8.03 0.00537833
8.04 -0.0400316
8.05 -0.095888
8.06 -0.15921
8.07 -0.228746
8.08 -0.302179
8.09 -0.377319
8.1 -0.451923
8.11 -0.524144
8.12 -0.591832
8.13 -0.653796
8.14 -0.709012
8.15 -0.756412
8.16 -0.796718
8.17 -0.82913
8.18 -0.855426
8.19 -0.876181
8.2 -0.892882
8.21 -0.907074
8.22 -0.920068
8.23 -0.933242
8.24 -0.947632
8.25 -0.963733
8.26 -0.981588
8.27 -1.00067
8.28 -1.01976
8.29 -1.03679
8.3 -1.04959
8.31 -1.05498
8.32 -1.0494
8.33 -1.03031
8.34 -0.991863
8.35 -0.933463
8.36 -0.849465
8.37 -0.739182
8.38 -0.60094
8.39 -0.432337
8.4 -0.237035
8.41 -0.0124087
8.42 0.234993
8.43 0.503169
8.44 0.78663
8.45 1.07922
8.46 1.37467
8.47 1.6659
8.48 1.94487
8.49 2.20493
8.5 2.43955
8.51 2.64017
8.52 2.80555
8.53 2.925
8.54 3.0013
8.55 3.02938
8.56 3.00913
8.57 2.9443
8.58 2.83163
8.59 2.68106
8.6 2.49254
8.61 2.27452
8.62 2.03259
8.63 1.77271
8.64 1.50296
8.65 1.22921
8.66 0.958363
8.67 0.696266
8.68 0.448425
8.69 0.217861
8.7 0.0107013
8.71 -0.174011
8.72 -0.332027
8.73 -0.464815
8.74 -0.572714
8.75 -0.655677
8.76 -0.718217
8.77 -0.759809
8.78 -0.786042
8.79 -0.798752
8.8 -0.801466
8.81 -0.797589
8.82 -0.789573
8.83 -0.780471
8.84 -0.772447
8.85 -0.767308
8.86 -0.766321
8.87 -0.77072
8.88 -0.780305
8.89 -0.795933
8.9 -0.816468
8.91 -0.841639
8.92 -0.870451
8.93 -0.901739
8.94 -0.934544
8.95 -0.967575
8.96 -0.999746
8.97 -1.0301
8.98 -1.05788
8.99 -1.08223
9 -1.10313
9.01 -1.11978
9.02 -1.13272
9.03 -1.14184
9.04 -1.14749
9.05 -1.15025
9.06 -1.15028
9.07 -1.14842
9.08 -1.14488
9.09 -1.14014
9.1 -1.13443
9.11 -1.12775
9.12 -1.12014
9.13 -1.11113
9.14 -1.10044
9.15 -1.08735
9.16 -1.0711
9.17 -1.05115
9.18 -1.02609
9.19 -0.995876
9.2 -0.959186
9.21 -0.915965
9.22 -0.86596
9.23 -0.808798
9.24 -0.745595
9.25 -0.676162
9.26 -0.602357
9.27 -0.525194
9.28 -0.446503
9.29 -0.368087
9.3 -0.292326
9.31 -0.22087
9.32 -0.156393
9.33 -0.100439
9.34 -0.0546073
9.35 -0.0210443
9.36 0.000745752
9.37 0.00834002
9.38 0.00360322
9.39 -0.0138114
9.4 -0.0426689
9.41 -0.0808688
9.42 -0.127465
9.43 -0.179178
9.44 -0.234173
9.45 -0.289645
9.46 -0.343364
9.47 -0.39275
9.48 -0.436549
9.49 -0.472186
9.5 -0.499677
9.51 -0.517948
9.52 -0.52708
9.53 -0.528141
9.54 -0.52121
9.55 -0.508746
9.56 -0.491825
9.57 -0.472742
9.58 -0.453321
9.59 -0.435672
9.6 -0.421172
9.61 -0.411949
9.62 -0.408427
9.63 -0.411675
9.64 -0.421936
9.65 -0.438612
9.66 -0.461928
9.67 -0.490116
9.68 -0.52262
9.69 -0.557814
9.7 -0.594475
9.71 -0.631292
9.72 -0.667238
9.73 -0.701188
9.74 -0.732778
9.75 -0.761524
9.76 -0.787372
9.77 -0.810653
9.78 -0.831375
9.79 -0.850235
9.8 -0.867297
9.81 -0.882782
9.82 -0.896487
9.83 -0.907584
9.84 -0.915323
9.85 -0.917266
9.86 -0.911848
9.87 -0.895813
9.88 -0.865631
9.89 -0.81895
9.9 -0.749185
9.91 -0.655945
9.92 -0.532707
9.93 -0.378342
9.94 -0.190707
9.95 0.033791
9.96 0.291211
9.97 0.585576
9.98 0.909688
9.99 1.26186
10 1.63624
10.01 2.02549
10.02 2.42292
10.03 2.8193
10.04 3.20525
10.05 3.57181
10.06 3.91054
10.07 4.21008
10.08 4.46777
10.09 4.66962
10.1 4.81757
10.11 4.90447
10.12 4.92873
10.13 4.89456
10.14 4.79624
10.15 4.64628
10.16 4.44367
10.17 4.19885
10.18 3.91886
10.19 3.61076
10.2 3.28557
10.21 2.95019
10.22 2.61428
10.23 2.28518
10.24 1.97025
10.25 1.6737
10.26 1.4031
10.27 1.15778
10.28 0.942649
10.29 0.756165
10.3 0.597625
10.31 0.466853
10.32 0.358364
10.33 0.272101
10.34 0.201614
10.35 0.144323
10.36 0.0960798
10.37 0.0530813
10.38 0.0124022
10.39 -0.028841
10.4 -0.0728677
10.41 -0.121051
10.42 -0.174198
10.43 -0.232958
10.44 -0.296498
10.45 -0.364841
10.46 -0.436374
10.47 -0.510118
10.48 -0.584573
10.49 -0.658417
10.5 -0.729992
10.51 -0.798405
10.52 -0.862135
10.53 -0.920526
10.54 -0.972917
10.55 -1.01833
10.56 -1.05726
10.57 -1.08846
10.58 -1.11288
10.59 -1.13012
10.6 -1.14036
10.61 -1.14426
10.62 -1.14124
10.63 -1.13254
10.64 -1.11781
10.65 -1.09781
10.66 -1.07294
10.67 -1.04339
10.68 -1.01018
10.69 -0.973401
10.7 -0.934189
10.71 -0.893119
10.72 -0.851104
10.73 -0.80901
10.74 -0.767888
10.75 -0.728497
10.76 -0.691982
10.77 -0.659053
10.78 -0.630419
10.79 -0.607099
10.8 -0.588964
10.81 -0.577236
10.82 -0.571312
10.83 -0.571606
10.84 -0.577961
10.85 -0.589709
10.86 -0.607123
10.87 -0.628905
10.88 -0.654973
10.89 -0.684361
10.9 -0.716426
10.91 -0.750574
10.92 -0.785957
10.93 -0.822053
10.94 -0.858166
10.95 -0.893757
10.96 -0.928266
10.97 -0.961345
10.98 -0.99231
10.99 -1.0211
11 -1.04709
11.01 -1.07019
11.02 -1.09017
11.03 -1.10666
11.04 -1.11997
11.05 -1.1296
11.06 -1.13613
11.07 -1.13954
11.08 -1.1402
11.09 -1.13871
11.1 -1.13536
11.11 -1.13101
11.12 -1.1262
11.13 -1.12163
11.14 -1.11784
11.15 -1.1154
11.16 -1.11441
11.17 -1.11512
11.18 -1.11705
11.19 -1.11965
11.2 -1.12182
11.21 -1.12234
11.22 -1.11894
11.23 -1.11013
11.24 -1.09282
11.25 -1.06483
11.26 -1.02376
11.27 -0.965855
11.28 -0.890864
11.29 -0.793891
11.3 -0.676158
11.31 -0.535501
11.32 -0.371847
11.33 -0.187478
11.34 0.0185948
11.35 0.24082
11.36 0.47761
11.37 0.723549
11.38 0.974008
11.39 1.22317
11.4 1.46588
11.41 1.6946
11.42 1.90521
11.43 2.09131
11.44 2.24758
11.45 2.37243
11.46 2.45781
11.47 2.50733
11.48 2.51573
11.49 2.48593
11.5 2.41945
11.51 2.31669
11.52 2.18502
11.53 2.02472
11.54 1.84435
11.55 1.64777
11.56 1.44106
11.57 1.22985
11.58 1.01953
11.59 0.814507
11.6 0.619626
11.61 0.437761
11.62 0.271164
11.63 0.122701
11.64 -0.00901499
11.65 -0.121447
11.66 -0.217782
11.67 -0.298361
11.68 -0.365243
11.69 -0.421388
11.7 -0.468004
11.71 -0.508727
11.72 -0.545128
11.73 -0.579557
11.74 -0.613526
11.75 -0.648338
11.76 -0.684553
11.77 -0.722651
11.78 -0.762165
11.79 -0.802547
11.8 -0.842679
11.81 -0.881398
11.82 -0.916756
11.83 -0.947649
11.84 -0.971825
11.85 -0.987987
11.86 -0.994782
11.87 -0.99007
11.88 -0.974169
11.89 -0.944423
11.9 -0.901994
11.91 -0.845874
11.92 -0.776163
11.93 -0.694209
11.94 -0.599119
11.95 -0.493755
11.96 -0.378227
11.97 -0.254831
11.98 -0.125301
11.99 0.0085086
12 0.144088
12.01 0.279112
12.02 0.411177
12.03 0.537693
12.04 0.655942
12.05 0.764347
12.06 0.858905
12.07 0.93962
12.08 1.00304
12.09 1.04878
12.1 1.07605
12.11 1.083
12.12 1.07199
12.13 1.04083
12.14 0.993049
12.15 0.929147
12.16 0.851309
12.17 0.762714
12.18 0.664938
12.19 0.562071
12.2 0.456515
12.21 0.351475
12.22 0.249448
12.23 0.153328
12.24 0.064242
12.25 -0.0150837
12.26 -0.0849032
12.27 -0.144301
12.28 -0.193505
12.29 -0.23394
12.3 -0.265768
12.31 -0.291768
12.32 -0.313147
12.33 -0.332284
12.34 -0.351025
12.35 -0.371383
12.36 -0.394577
12.37 -0.422297
12.38 -0.454647
12.39 -0.492004
12.4 -0.533873
