# xPDFsuite Configuration #
[PDF]
wavelength = 0.1432
dataformat = twotheta
inputfile = 1_1Pd_CeO2_cycle-00280.chi
backgroundfile = background-00000.chi
mode = xray
bgscale = 1.007
composition = CeO2
outputtype = gr
qmaxinst = 28.8974762299
qmin = 0.5
qmax = 27.9
rmax = 50.0
rmin = 0.0
rstep = 0.01
rpoly = 1.8657

[Misc]
inputdir = G:/SankarDec16/1Pd/Chi
savedir = D:/DATA/APS_CeO2/1Pd
backgroundfilefull = G:/SankarDec16/Background/background-00000.chi

#### start data
#S 1
#L r($\AA$)  G($\AA^{-2}$)
0 0
0.01 -0.00602731
0.02 -0.0115992
0.03 -0.0162468
0.04 -0.0196173
0.05 -0.0215147
0.06 -0.0216239
0.07 -0.0201562
0.08 -0.0170117
0.09 -0.0125929
0.1 -0.00717885
0.11 -0.00119622
0.12 0.00489144
0.13 0.0105625
0.14 0.0154502
0.15 0.019104
0.16 0.0212619
0.17 0.0218211
0.18 0.0205695
0.19 0.0178196
0.2 0.0135876
0.21 0.00834386
0.22 0.00243685
0.23 -0.00365399
0.24 -0.00949342
0.25 -0.0145194
0.26 -0.0184722
0.27 -0.0209418
0.28 -0.0217703
0.29 -0.0209533
0.3 -0.018393
0.31 -0.0144872
0.32 -0.00936829
0.33 -0.00355138
0.34 0.00256313
0.35 0.00846613
0.36 0.0137726
0.37 0.0179079
0.38 0.0207321
0.39 0.0218968
0.4 0.0213562
0.41 0.0192051
0.42 0.0154648
0.43 0.0105998
0.44 0.00485192
0.45 -0.0012439
0.46 -0.00725519
0.47 -0.0126681
0.48 -0.0171673
0.49 -0.0201944
0.5 -0.0217366
0.51 -0.0215247
0.52 -0.019628
0.53 -0.0162364
0.54 -0.0114902
0.55 -0.00589754
0.56 0.000201612
0.57 0.00627873
0.58 0.0118909
0.59 0.0165449
0.6 0.0200113
0.61 0.0217758
0.62 0.0219544
0.63 0.0203711
0.64 0.0172076
0.65 0.0127399
0.66 0.00722143
0.67 0.0011791
0.68 -0.00496555
0.69 -0.0107165
0.7 -0.0156425
0.71 -0.0192953
0.72 -0.0215436
0.73 -0.0219428
0.74 -0.0207322
0.75 -0.0178381
0.76 -0.0135457
0.77 -0.00820304
0.78 -0.00216358
0.79 0.00405403
0.8 0.00996932
0.81 0.0151443
0.82 0.0191832
0.83 0.0217067
0.84 0.022689
0.85 0.0217805
0.86 0.019331
0.87 0.0153735
0.88 0.010281
0.89 0.00445341
0.9 -0.00167703
0.91 -0.00763209
0.92 -0.012905
0.93 -0.0171467
0.94 -0.020028
0.95 -0.0212734
0.96 -0.0209721
0.97 -0.0189145
0.98 -0.015546
0.99 -0.0110284
1 -0.00581537
1.01 -0.000344586
1.02 0.00487186
1.03 0.00943528
1.04 0.012821
1.05 0.0148078
1.06 0.01516
1.07 0.0137402
1.08 0.0107855
1.09 0.00627086
1.1 0.000766609
1.11 -0.00538806
1.12 -0.0116166
1.13 -0.0174091
1.14 -0.0220951
1.15 -0.0253456
1.16 -0.0265189
1.17 -0.0255028
1.18 -0.0220927
1.19 -0.0162163
1.2 -0.00827444
1.21 0.00170859
1.22 0.0129579
1.23 0.0250227
1.24 0.0371673
1.25 0.0487509
1.26 0.0589304
1.27 0.0672878
1.28 0.0729898
1.29 0.0758467
1.3 0.0755215
1.31 0.0717833
1.32 0.0650276
1.33 0.05499
1.34 0.0425334
1.35 0.0279079
1.36 0.0118151
1.37 -0.00509336
1.38 -0.0221396
1.39 -0.0386892
1.4 -0.0540251
1.41 -0.0677067
1.42 -0.0792727
1.43 -0.0882805
1.44 -0.0947917
1.45 -0.098252
1.46 -0.0991186
1.47 -0.0972242
1.48 -0.0928298
1.49 -0.0862378
1.5 -0.0775117
1.51 -0.0671922
1.52 -0.0553712
1.53 -0.0424892
1.54 -0.0287903
1.55 -0.0145603
1.56 -0.00010377
1.57 0.0142928
1.58 0.0283522
1.59 0.0417445
1.6 0.0541502
1.61 0.0653079
1.62 0.0747001
1.63 0.0822375
1.64 0.0873226
1.65 0.0898805
1.66 0.0896201
1.67 0.0862607
1.68 0.0800543
1.69 0.0705616
1.7 0.0584437
1.71 0.0437413
1.72 0.0269939
1.73 0.00878335
1.74 -0.0103163
1.75 -0.0295262
1.76 -0.0480804
1.77 -0.0652923
1.78 -0.0804987
1.79 -0.0929996
1.8 -0.102686
1.81 -0.108777
1.82 -0.11175
1.83 -0.111442
1.84 -0.108318
1.85 -0.102971
1.86 -0.095931
1.87 -0.088153
1.88 -0.0804267
1.89 -0.0736115
1.9 -0.068461
1.91 -0.0657612
1.92 -0.0656965
1.93 -0.0690306
1.94 -0.0752821
1.95 -0.0845098
1.96 -0.0961194
1.97 -0.109378
1.98 -0.123464
1.99 -0.137321
2 -0.149774
2.01 -0.15984
2.02 -0.166511
2.03 -0.1687
2.04 -0.166257
2.05 -0.157881
2.06 -0.144285
2.07 -0.125064
2.08 -0.100766
2.09 -0.0721409
2.1 -0.0395997
2.11 -0.00449184
2.12 0.0325264
2.13 0.0703198
2.14 0.10811
2.15 0.14512
2.16 0.180975
2.17 0.215149
2.18 0.247848
2.19 0.279103
2.2 0.309347
2.21 0.33908
2.22 0.368899
2.23 0.399326
2.24 0.430952
2.25 0.463993
2.26 0.498561
2.27 0.534483
2.28 0.571156
2.29 0.607732
2.3 0.643076
2.31 0.675669
2.32 0.703857
2.33 0.726269
2.34 0.740346
2.35 0.7457
2.36 0.739743
2.37 0.722491
2.38 0.693176
2.39 0.651331
2.4 0.598711
2.41 0.534728
2.42 0.462669
2.43 0.383808
2.44 0.300959
2.45 0.216736
2.46 0.134138
2.47 0.055495
2.48 -0.0160268
2.49 -0.0788721
2.5 -0.131295
2.51 -0.171724
2.52 -0.201007
2.53 -0.217514
2.54 -0.224007
2.55 -0.220971
2.56 -0.210746
2.57 -0.195721
2.58 -0.178181
2.59 -0.160799
2.6 -0.146087
2.61 -0.135934
2.62 -0.131981
2.63 -0.135691
2.64 -0.14674
2.65 -0.166257
2.66 -0.192287
2.67 -0.224222
2.68 -0.260095
2.69 -0.297927
2.7 -0.335508
2.71 -0.370875
2.72 -0.401672
2.73 -0.426622
2.74 -0.444476
2.75 -0.454227
2.76 -0.456635
2.77 -0.451029
2.78 -0.439638
2.79 -0.423424
2.8 -0.404543
2.81 -0.385025
2.82 -0.367247
2.83 -0.352901
2.84 -0.344319
2.85 -0.342403
2.86 -0.3481
2.87 -0.362011
2.88 -0.382991
2.89 -0.411177
2.9 -0.444064
2.91 -0.480237
2.92 -0.517273
2.93 -0.553036
2.94 -0.584817
2.95 -0.611216
2.96 -0.629745
2.97 -0.639891
2.98 -0.640928
2.99 -0.632568
3 -0.61641
3.01 -0.592629
3.02 -0.564145
3.03 -0.532683
3.04 -0.500924
3.05 -0.471126
3.06 -0.446154
3.07 -0.427265
3.08 -0.416902
3.09 -0.415308
3.1 -0.422956
3.11 -0.4398
3.12 -0.463977
3.13 -0.494902
3.14 -0.529552
3.15 -0.565972
3.16 -0.601476
3.17 -0.633943
3.18 -0.660652
3.19 -0.680811
3.2 -0.69243
3.21 -0.695874
3.22 -0.691307
3.23 -0.679585
3.24 -0.662972
3.25 -0.643177
3.26 -0.623212
3.27 -0.605728
3.28 -0.593511
3.29 -0.588475
3.3 -0.593546
3.31 -0.608524
3.32 -0.635163
3.33 -0.67197
3.34 -0.717915
3.35 -0.771024
3.36 -0.828068
3.37 -0.885987
3.38 -0.941174
3.39 -0.989959
3.4 -1.02905
3.41 -1.05645
3.42 -1.06871
3.43 -1.06695
3.44 -1.04944
3.45 -1.01887
3.46 -0.977138
3.47 -0.927388
3.48 -0.873985
3.49 -0.821302
3.5 -0.773644
3.51 -0.735538
3.52 -0.710513
3.53 -0.700221
3.54 -0.707625
3.55 -0.729973
3.56 -0.766976
3.57 -0.813274
3.58 -0.863752
3.59 -0.910658
3.6 -0.94691
3.61 -0.960299
3.62 -0.944808
3.63 -0.88884
3.64 -0.784402
3.65 -0.627411
3.66 -0.406154
3.67 -0.126541
3.68 0.219274
3.69 0.622641
3.7 1.07926
3.71 1.58178
3.72 2.11538
3.73 2.66992
3.74 3.22735
3.75 3.77203
3.76 4.28631
3.77 4.75681
3.78 5.16119
3.79 5.49547
3.8 5.73864
3.81 5.88997
3.82 5.94302
3.83 5.89187
3.84 5.74911
3.85 5.50533
3.86 5.18348
3.87 4.78737
3.88 4.33308
3.89 3.83683
3.9 3.31173
3.91 2.77649
3.92 2.24584
3.93 1.73404
3.94 1.2531
3.95 0.815818
3.96 0.424712
3.97 0.0935736
3.98 -0.18365
3.99 -0.402078
4 -0.565521
4.01 -0.680489
4.02 -0.74814
4.03 -0.781362
4.04 -0.783661
4.05 -0.765842
4.06 -0.734707
4.07 -0.69748
4.08 -0.660257
4.09 -0.628626
4.1 -0.605317
4.11 -0.593212
4.12 -0.593001
4.13 -0.603813
4.14 -0.625354
4.15 -0.654138
4.16 -0.688229
4.17 -0.724007
4.18 -0.758572
4.19 -0.78859
4.2 -0.8122
4.21 -0.825923
4.22 -0.829674
4.23 -0.821698
4.24 -0.801958
4.25 -0.771278
4.26 -0.729258
4.27 -0.678459
4.28 -0.619144
4.29 -0.553562
4.3 -0.482994
4.31 -0.408768
4.32 -0.332378
4.33 -0.254638
4.34 -0.176549
4.35 -0.0986805
4.36 -0.0215207
4.37 0.0546462
4.38 0.129351
4.39 0.20247
4.4 0.273346
4.41 0.34158
4.42 0.406437
4.43 0.466753
4.44 0.522039
4.45 0.57008
4.46 0.610639
4.47 0.641812
4.48 0.662524
4.49 0.672369
4.5 0.669227
4.51 0.654418
4.52 0.626352
4.53 0.586519
4.54 0.535455
4.55 0.473973
4.56 0.404545
4.57 0.327912
4.58 0.247101
4.59 0.163809
4.6 0.0803602
4.61 -0.00142598
4.62 -0.0793205
4.63 -0.152433
4.64 -0.218938
4.65 -0.278608
4.66 -0.331005
4.67 -0.375838
4.68 -0.414247
4.69 -0.445923
4.7 -0.472706
4.71 -0.495167
4.72 -0.514551
4.73 -0.531953
4.74 -0.548196
4.75 -0.564146
4.76 -0.580333
4.77 -0.597056
4.78 -0.614397
4.79 -0.632231
4.8 -0.650226
4.81 -0.667907
4.82 -0.68481
4.83 -0.700358
4.84 -0.714068
4.85 -0.725695
4.86 -0.734726
4.87 -0.741442
4.88 -0.745647
4.89 -0.747831
4.9 -0.748347
4.91 -0.747695
4.92 -0.746522
4.93 -0.745416
4.94 -0.74492
4.95 -0.745549
4.96 -0.747666
4.97 -0.75139
4.98 -0.756978
4.99 -0.764094
5 -0.772701
5.01 -0.782336
5.02 -0.792645
5.03 -0.803201
5.04 -0.813624
5.05 -0.823522
5.06 -0.832737
5.07 -0.841092
5.08 -0.848595
5.09 -0.855371
5.1 -0.861516
5.11 -0.867287
5.12 -0.872793
5.13 -0.878111
5.14 -0.883141
5.15 -0.887515
5.16 -0.890782
5.17 -0.891771
5.18 -0.889638
5.19 -0.882704
5.2 -0.869257
5.21 -0.847977
5.22 -0.815796
5.23 -0.772456
5.24 -0.714798
5.25 -0.642654
5.26 -0.555036
5.27 -0.450939
5.28 -0.332492
5.29 -0.19863
5.3 -0.0534486
5.31 0.10139
5.32 0.262045
5.33 0.424611
5.34 0.584274
5.35 0.736986
5.36 0.876865
5.37 1.00017
5.38 1.1027
5.39 1.1794
5.4 1.2304
5.41 1.2492
5.42 1.23937
5.43 1.19864
5.44 1.12894
5.45 1.03386
5.46 0.914061
5.47 0.776675
5.48 0.624235
5.49 0.463155
5.5 0.298125
5.51 0.134563
5.52 -0.0234469
5.53 -0.170249
5.54 -0.303965
5.55 -0.420927
5.56 -0.519575
5.57 -0.600132
5.58 -0.66053
5.59 -0.704331
5.6 -0.731029
5.61 -0.744207
5.62 -0.745987
5.63 -0.73874
5.64 -0.725762
5.65 -0.708808
5.66 -0.69045
5.67 -0.672087
5.68 -0.654829
5.69 -0.639043
5.7 -0.624812
5.71 -0.611385
5.72 -0.597851
5.73 -0.582934
5.74 -0.565337
5.75 -0.543438
5.76 -0.516639
5.77 -0.483142
5.78 -0.443421
5.79 -0.396985
5.8 -0.344542
5.81 -0.287375
5.82 -0.226675
5.83 -0.164759
5.84 -0.103804
5.85 -0.0462226
5.86 0.00568854
5.87 0.0491212
5.88 0.0831814
5.89 0.104512
5.9 0.113792
5.91 0.109505
5.92 0.0919605
5.93 0.0624541
5.94 0.0208949
5.95 -0.0295341
5.96 -0.0879053
5.97 -0.151287
5.98 -0.217599
5.99 -0.284504
6 -0.350098
6.01 -0.412203
6.02 -0.469971
6.03 -0.522178
6.04 -0.568463
6.05 -0.609171
6.06 -0.644128
6.07 -0.674845
6.08 -0.701831
6.09 -0.726561
6.1 -0.750082
6.11 -0.773491
6.12 -0.79756
6.13 -0.823029
6.14 -0.849929
6.15 -0.878254
6.16 -0.907489
6.17 -0.936907
6.18 -0.965435
6.19 -0.992164
6.2 -1.01571
6.21 -1.03529
6.22 -1.0501
6.23 -1.05933
6.24 -1.06345
6.25 -1.06186
6.26 -1.05599
6.27 -1.0464
6.28 -1.03449
6.29 -1.02163
6.3 -1.00926
6.31 -0.998462
6.32 -0.990348
6.33 -0.985108
6.34 -0.982542
6.35 -0.981678
6.36 -0.980711
6.37 -0.976648
6.38 -0.966488
6.39 -0.945722
6.4 -0.909498
6.41 -0.854183
6.42 -0.771728
6.43 -0.661292
6.44 -0.514874
6.45 -0.331799
6.46 -0.109587
6.47 0.154682
6.48 0.455812
6.49 0.797079
6.5 1.16875
6.51 1.5675
6.52 1.98471
6.53 2.41128
6.54 2.83689
6.55 3.25147
6.56 3.64204
6.57 3.99906
6.58 4.31245
6.59 4.56952
6.6 4.76913
6.61 4.89483
6.62 4.95258
6.63 4.93501
6.64 4.84366
6.65 4.68507
6.66 4.45647
6.67 4.17386
6.68 3.83913
6.69 3.46655
6.7 3.06573
6.71 2.64763
6.72 2.22418
6.73 1.80656
6.74 1.40377
6.75 1.02541
6.76 0.678891
6.77 0.367444
6.78 0.0997325
6.79 -0.128294
6.8 -0.311245
6.81 -0.453926
6.82 -0.558391
6.83 -0.626766
6.84 -0.667009
6.85 -0.680116
6.86 -0.674916
6.87 -0.654836
6.88 -0.625177
6.89 -0.59025
6.9 -0.553361
6.91 -0.517326
6.92 -0.484209
6.93 -0.454953
6.94 -0.430001
6.95 -0.409447
6.96 -0.392337
6.97 -0.378356
6.98 -0.366218
6.99 -0.3553
7 -0.344938
7.01 -0.334817
7.02 -0.325018
7.03 -0.315888
7.04 -0.308305
7.05 -0.303235
7.06 -0.301858
7.07 -0.305832
7.08 -0.315721
7.09 -0.333722
7.1 -0.35953
7.11 -0.394152
7.12 -0.437402
7.13 -0.488285
7.14 -0.546544
7.15 -0.60973
7.16 -0.676488
7.17 -0.744269
7.18 -0.8109
7.19 -0.873712
7.2 -0.931138
7.21 -0.980151
7.22 -1.0204
7.23 -1.05026
7.24 -1.06944
7.25 -1.07872
7.26 -1.07778
7.27 -1.06926
7.28 -1.05402
7.29 -1.03472
7.3 -1.0134
7.31 -0.992383
7.32 -0.973467
7.33 -0.958872
7.34 -0.949194
7.35 -0.945384
7.36 -0.947282
7.37 -0.953868
7.38 -0.964081
7.39 -0.975468
7.4 -0.985513
7.41 -0.991262
7.42 -0.98977
7.43 -0.977164
7.44 -0.952012
7.45 -0.909414
7.46 -0.849745
7.47 -0.770444
7.48 -0.671264
7.49 -0.553736
7.5 -0.417042
7.51 -0.265877
7.52 -0.101473
7.53 0.0713888
7.54 0.248913
7.55 0.426376
7.56 0.599631
7.57 0.762906
7.58 0.913283
7.59 1.04606
7.6 1.15795
7.61 1.24788
7.62 1.31108
7.63 1.35033
7.64 1.36248
7.65 1.35028
7.66 1.31484
7.67 1.25708
7.68 1.1817
7.69 1.08899
7.7 0.984319
7.71 0.869803
7.72 0.748937
7.73 0.624808
7.74 0.500198
7.75 0.377583
7.76 0.259533
7.77 0.147719
7.78 0.0436952
7.79 -0.0506231
7.8 -0.135338
7.81 -0.207972
7.82 -0.269534
7.83 -0.318782
7.84 -0.355615
7.85 -0.380731
7.86 -0.392799
7.87 -0.393934
7.88 -0.383328
7.89 -0.362683
7.9 -0.332913
7.91 -0.294978
7.92 -0.251202
7.93 -0.202691
7.94 -0.152127
7.95 -0.101499
7.96 -0.0533206
7.97 -0.00955415
7.98 0.0266574
7.99 0.0543802
8 0.0706899
8.01 0.0749597
8.02 0.0662356
8.03 0.0433179
8.04 0.00789128
8.05 -0.0412671
8.06 -0.101065
8.07 -0.170602
8.08 -0.247423
8.09 -0.328865
8.1 -0.412517
8.11 -0.495557
8.12 -0.575305
8.13 -0.649662
8.14 -0.716872
8.15 -0.775021
8.16 -0.824384
8.17 -0.86332
8.18 -0.893599
8.19 -0.91546
8.2 -0.930453
8.21 -0.940492
8.22 -0.947009
8.23 -0.952194
8.24 -0.957529
8.25 -0.964279
8.26 -0.97311
8.27 -0.984211
8.28 -0.996736
8.29 -1.00932
8.3 -1.01977
8.31 -1.02515
8.32 -1.02183
8.33 -1.00692
8.34 -0.974371
8.35 -0.922906
8.36 -0.846422
8.37 -0.743569
8.38 -0.612127
8.39 -0.449066
8.4 -0.257788
8.41 -0.0350713
8.42 0.212421
8.43 0.482843
8.44 0.770516
8.45 1.06889
8.46 1.37142
8.47 1.67033
8.48 1.95708
8.49 2.22438
8.5 2.46515
8.51 2.67024
8.52 2.83823
8.53 2.95784
8.54 3.03207
8.55 3.05578
8.56 3.02909
8.57 2.95622
8.58 2.83429
8.59 2.67395
8.6 2.47573
8.61 2.24874
8.62 1.99914
8.63 1.7335
8.64 1.46008
8.65 1.18535
8.66 0.915929
8.67 0.657775
8.68 0.416095
8.69 0.193415
8.7 -0.00450666
8.71 -0.179388
8.72 -0.327575
8.73 -0.451206
8.74 -0.551182
8.75 -0.628099
8.76 -0.686615
8.77 -0.726795
8.78 -0.753959
8.79 -0.770016
8.8 -0.778186
8.81 -0.781377
8.82 -0.781648
8.83 -0.781308
8.84 -0.781915
8.85 -0.784625
8.86 -0.790157
8.87 -0.799122
8.88 -0.811209
8.89 -0.826712
8.9 -0.844802
8.91 -0.865169
8.92 -0.887162
8.93 -0.910141
8.94 -0.933583
8.95 -0.956945
8.96 -0.979783
8.97 -1.0018
8.98 -1.02277
8.99 -1.04248
9 -1.061
9.01 -1.07811
9.02 -1.09399
9.03 -1.10855
9.04 -1.12179
9.05 -1.13374
9.06 -1.1441
9.07 -1.15293
9.08 -1.15979
9.09 -1.16449
9.1 -1.16668
9.11 -1.16574
9.12 -1.16159
9.13 -1.15318
9.14 -1.14057
9.15 -1.12302
9.16 -1.1001
9.17 -1.07183
9.18 -1.03722
9.19 -0.997009
9.2 -0.950515
9.21 -0.898347
9.22 -0.840808
9.23 -0.778158
9.24 -0.711616
9.25 -0.641566
9.26 -0.569547
9.27 -0.496614
9.28 -0.424259
9.29 -0.353764
9.3 -0.287102
9.31 -0.225173
9.32 -0.170053
9.33 -0.122644
9.34 -0.0840226
9.35 -0.0557301
9.36 -0.0371775
9.37 -0.0302491
9.38 -0.0333825
9.39 -0.0468886
9.4 -0.0698513
9.41 -0.100664
9.42 -0.138762
9.43 -0.181562
9.44 -0.22779
9.45 -0.275228
9.46 -0.322125
9.47 -0.366448
9.48 -0.407023
9.49 -0.441745
9.5 -0.470347
9.51 -0.491767
9.52 -0.50578
9.53 -0.513
9.54 -0.513142
9.55 -0.508042
9.56 -0.498271
9.57 -0.485612
9.58 -0.47148
9.59 -0.457527
9.6 -0.445097
9.61 -0.435948
9.62 -0.430799
9.63 -0.430763
9.64 -0.436403
9.65 -0.447551
9.66 -0.464819
9.67 -0.486968
9.68 -0.513923
9.69 -0.544472
9.7 -0.577723
9.71 -0.612723
9.72 -0.648391
9.73 -0.683848
9.74 -0.718377
9.75 -0.75135
9.76 -0.782327
9.77 -0.811193
9.78 -0.837474
9.79 -0.86141
9.8 -0.882535
9.81 -0.900724
9.82 -0.915491
9.83 -0.925692
9.84 -0.930745
9.85 -0.928013
9.86 -0.916404
9.87 -0.892879
9.88 -0.85439
9.89 -0.799094
9.9 -0.720987
9.91 -0.620159
9.92 -0.490699
9.93 -0.331836
9.94 -0.141735
9.95 0.0828443
9.96 0.338169
9.97 0.628008
9.98 0.945698
9.99 1.28976
10 1.65483
10.01 2.03413
10.02 2.42153
10.03 2.80833
10.04 3.18576
10.05 3.54526
10.06 3.87872
10.07 4.17514
10.08 4.4317
10.09 4.63469
10.1 4.78557
10.11 4.87705
10.12 4.90708
10.13 4.87938
10.14 4.78777
10.15 4.64425
10.16 4.44734
10.17 4.20708
10.18 3.93029
10.19 3.62373
10.2 3.29853
10.21 2.96147
10.22 2.62258
10.23 2.28941
10.24 1.96973
10.25 1.66814
10.26 1.39269
10.27 1.14308
10.28 0.92466
10.29 0.736128
10.3 0.576965
10.31 0.447185
10.32 0.341095
10.33 0.258705
10.34 0.193135
10.35 0.141557
10.36 0.0994038
10.37 0.0624705
10.38 0.0273541
10.39 -0.00912499
10.4 -0.0496153
10.41 -0.0956598
10.42 -0.148193
10.43 -0.207999
10.44 -0.273984
10.45 -0.346188
10.46 -0.422544
10.47 -0.50181
10.48 -0.582066
10.49 -0.661615
10.5 -0.738348
10.51 -0.811132
10.52 -0.878074
10.53 -0.938412
10.54 -0.991417
10.55 -1.03606
10.56 -1.0731
10.57 -1.10137
10.58 -1.12224
10.59 -1.13559
10.6 -1.14199
10.61 -1.14241
10.62 -1.13667
10.63 -1.12614
10.64 -1.11075
10.65 -1.09123
10.66 -1.06796
10.67 -1.04104
10.68 -1.01115
10.69 -0.978165
10.7 -0.9428
10.71 -0.905273
10.72 -0.866101
10.73 -0.825905
10.74 -0.785312
10.75 -0.745114
10.76 -0.706238
10.77 -0.669562
10.78 -0.635962
10.79 -0.606696
10.8 -0.582089
10.81 -0.563766
10.82 -0.551614
10.83 -0.546527
10.84 -0.548819
10.85 -0.558061
10.86 -0.575045
10.87 -0.598317
10.88 -0.628031
10.89 -0.662932
10.9 -0.702113
10.91 -0.744637
10.92 -0.789056
10.93 -0.834324
10.94 -0.879128
10.95 -0.922335
10.96 -0.96281
10.97 -0.999919
10.98 -1.03235
10.99 -1.06023
11 -1.08268
11.01 -1.09992
11.02 -1.11205
11.03 -1.11909
11.04 -1.12207
11.05 -1.12107
11.06 -1.11739
11.07 -1.11171
11.08 -1.10507
11.09 -1.09838
11.1 -1.09269
11.11 -1.08864
11.12 -1.0871
11.13 -1.08842
11.14 -1.09281
11.15 -1.10041
11.16 -1.11053
11.17 -1.12281
11.18 -1.13594
11.19 -1.14862
11.2 -1.15901
11.21 -1.16549
11.22 -1.16497
11.23 -1.15616
11.24 -1.13553
11.25 -1.1013
11.26 -1.05137
11.27 -0.982379
11.28 -0.894941
11.29 -0.784776
11.3 -0.654015
11.31 -0.501283
11.32 -0.327334
11.33 -0.134918
11.34 0.0760407
11.35 0.300116
11.36 0.535206
11.37 0.776192
11.38 1.01871
11.39 1.25723
11.4 1.48748
11.41 1.70241
11.42 1.89887
11.43 2.07122
11.44 2.21498
11.45 2.32908
11.46 2.40642
11.47 2.45059
11.48 2.4569
11.49 2.42812
11.5 2.36561
11.51 2.2696
11.52 2.1467
11.53 1.99688
11.54 1.8278
11.55 1.64273
11.56 1.44697
11.57 1.24566
11.58 1.04341
11.59 0.844545
11.6 0.653401
11.61 0.472924
11.62 0.305446
11.63 0.153925
11.64 0.017536
11.65 -0.100951
11.66 -0.20405
11.67 -0.29165
11.68 -0.365263
11.69 -0.427466
11.7 -0.478954
11.71 -0.523283
11.72 -0.561736
11.73 -0.596752
11.74 -0.629954
11.75 -0.662797
11.76 -0.696259
11.77 -0.731096
11.78 -0.767293
11.79 -0.804662
11.8 -0.842456
11.81 -0.879706
11.82 -0.914792
11.83 -0.94651
11.84 -0.972698
11.85 -0.991827
11.86 -1.00231
11.87 -1.00169
11.88 -0.989886
11.89 -0.963809
11.9 -0.924273
11.91 -0.869887
11.92 -0.800446
11.93 -0.717237
11.94 -0.619068
11.95 -0.50911
11.96 -0.387472
11.97 -0.256846
11.98 -0.11933
11.99 0.0227641
12 0.16644
12.01 0.308787
12.02 0.447016
12.03 0.57807
12.04 0.698874
12.05 0.807805
12.06 0.900483
12.07 0.977311
12.08 1.0348
12.09 1.07303
12.1 1.0916
12.11 1.08916
12.12 1.06864
12.13 1.02845
12.14 0.972589
12.15 0.902065
12.16 0.819478
12.17 0.728106
12.18 0.629957
12.19 0.528768
12.2 0.427034
12.21 0.327542
12.22 0.232423
12.23 0.14415
12.24 0.0632733
12.25 -0.0080056
12.26 -0.0704335
12.27 -0.123574
12.28 -0.168066
12.29 -0.205469
12.3 -0.236362
12.31 -0.263246
12.32 -0.287443
12.33 -0.310981
12.34 -0.3354
12.35 -0.36236
12.36 -0.392564
12.37 -0.427256
12.38 -0.466089
12.39 -0.509019
