# xPDFsuite Configuration #
[PDF]
wavelength = 0.1432
dataformat = twotheta
inputfile = 1_1Pd_CeO2_cycle-00495.chi
backgroundfile = background-00000.chi
mode = xray
bgscale = 1.007
composition = CeO2
outputtype = gr
qmaxinst = 28.8974762299
qmin = 0.5
qmax = 27.9
rmax = 50.0
rmin = 0.0
rstep = 0.01
rpoly = 1.8657

[Misc]
inputdir = G:/SankarDec16/1Pd/Chi
savedir = D:/DATA/APS_CeO2/1Pd
backgroundfilefull = G:/SankarDec16/Background/background-00000.chi

#### start data
#S 1
#L r($\AA$)  G($\AA^{-2}$)
0 0
0.01 -0.00381503
0.02 -0.00734329
0.03 -0.0102894
0.04 -0.0124309
0.05 -0.0136437
0.06 -0.0137284
0.07 -0.0128172
0.08 -0.0108452
0.09 -0.00806501
0.1 -0.00465088
0.11 -0.00087011
0.12 0.00298504
0.13 0.00658745
0.14 0.00970395
0.15 0.0120499
0.16 0.0134578
0.17 0.0138597
0.18 0.0131185
0.19 0.0114277
0.2 0.00879287
0.21 0.00550791
0.22 0.00178942
0.23 -0.00206286
0.24 -0.00577332
0.25 -0.00898974
0.26 -0.0115432
0.27 -0.0131733
0.28 -0.0137748
0.29 -0.0133397
0.3 -0.0117994
0.31 -0.00939978
0.32 -0.00621668
0.33 -0.00257194
0.34 0.0012857
0.35 0.00503765
0.36 0.00843789
0.37 0.0111254
0.38 0.0130034
0.39 0.0138476
0.4 0.0136205
0.41 0.012374
0.42 0.0101115
0.43 0.00712012
0.44 0.0035423
0.45 -0.000286853
0.46 -0.00409812
0.47 -0.00756866
0.48 -0.0104936
0.49 -0.0125199
0.5 -0.0136274
0.51 -0.0136388
0.52 -0.0125858
0.53 -0.0105783
0.54 -0.00769145
0.55 -0.0042404
0.56 -0.000427751
0.57 0.00341355
0.58 0.00700644
0.59 0.0100386
0.6 0.0123561
0.61 0.0136303
0.62 0.0139187
0.63 0.0130992
0.64 0.0112717
0.65 0.00859866
0.66 0.00522406
0.67 0.00147634
0.68 -0.00239116
0.69 -0.00606288
0.7 -0.00926682
0.71 -0.0117154
0.72 -0.0133128
0.73 -0.0137695
0.74 -0.0132178
0.75 -0.0115957
0.76 -0.00906598
0.77 -0.0058353
0.78 -0.00210826
0.79 0.00178926
0.8 0.00556738
0.81 0.00894312
0.82 0.011664
0.83 0.0134821
0.84 0.0143637
0.85 0.0140746
0.86 0.0128133
0.87 0.0105809
0.88 0.0075925
0.89 0.00408608
0.9 0.000312326
0.91 -0.00342673
0.92 -0.00682755
0.93 -0.00966141
0.94 -0.0117184
0.95 -0.012817
0.96 -0.0129943
0.97 -0.0121088
0.98 -0.0104174
0.99 -0.00800688
1 -0.00514505
1.01 -0.00209504
1.02 0.000836191
1.03 0.00339967
1.04 0.00527576
1.05 0.0063214
1.06 0.00638869
1.07 0.00539014
1.08 0.00346778
1.09 0.000611686
1.1 -0.00282517
1.11 -0.00662029
1.12 -0.0104026
1.13 -0.0138409
1.14 -0.0164855
1.15 -0.0181215
1.16 -0.0183055
1.17 -0.0169556
1.18 -0.0139184
1.19 -0.00912379
1.2 -0.00283671
1.21 0.0049593
1.22 0.0137286
1.23 0.0231768
1.24 0.0327882
1.25 0.042101
1.26 0.0505063
1.27 0.0576635
1.28 0.062933
1.29 0.0661122
1.3 0.0668864
1.31 0.0649917
1.32 0.0606553
1.33 0.0535405
1.34 0.0442549
1.35 0.0328749
1.36 0.0198785
1.37 0.00574436
1.38 -0.00907933
1.39 -0.0240146
1.4 -0.0385246
1.41 -0.0521378
1.42 -0.0644035
1.43 -0.0748397
1.44 -0.0833436
1.45 -0.0893023
1.46 -0.0929417
1.47 -0.0939585
1.48 -0.0924362
1.49 -0.0885463
1.5 -0.0822007
1.51 -0.0739046
1.52 -0.0636553
1.53 -0.0519325
1.54 -0.0390023
1.55 -0.0252092
1.56 -0.0109696
1.57 0.00335432
1.58 0.0173671
1.59 0.0306576
1.6 0.0428405
1.61 0.0536302
1.62 0.062498
1.63 0.0694143
1.64 0.0738503
1.65 0.0758437
1.66 0.0752257
1.67 0.0718726
1.68 0.0661162
1.69 0.0577221
1.7 0.0473324
1.71 0.0350849
1.72 0.0214813
1.73 0.0070115
1.74 -0.00782962
1.75 -0.0224957
1.76 -0.0364132
1.77 -0.049159
1.78 -0.0603186
1.79 -0.0694884
1.8 -0.0766925
1.81 -0.0815137
1.82 -0.0843771
1.83 -0.0852934
1.84 -0.0846723
1.85 -0.0829704
1.86 -0.0806496
1.87 -0.0783062
1.88 -0.0765244
1.89 -0.0757862
1.9 -0.0765333
1.91 -0.0791832
1.92 -0.0837106
1.93 -0.0904639
1.94 -0.0989579
1.95 -0.109036
1.96 -0.120123
1.97 -0.131601
1.98 -0.142673
1.99 -0.15264
2 -0.160481
2.01 -0.165577
2.02 -0.167193
2.03 -0.164555
2.04 -0.157714
2.05 -0.145677
2.06 -0.129179
2.07 -0.107952
2.08 -0.0825074
2.09 -0.0534875
2.1 -0.0212303
2.11 0.0131714
2.12 0.0492191
2.13 0.0860136
2.14 0.122952
2.15 0.159426
2.16 0.195111
2.17 0.229575
2.18 0.262906
2.19 0.29505
2.2 0.326235
2.21 0.356747
2.22 0.386865
2.23 0.416921
2.24 0.447149
2.25 0.47765
2.26 0.50838
2.27 0.53907
2.28 0.569312
2.29 0.598244
2.3 0.625185
2.31 0.648913
2.32 0.668269
2.33 0.68234
2.34 0.689216
2.35 0.688833
2.36 0.679283
2.37 0.660765
2.38 0.632801
2.39 0.595139
2.4 0.549201
2.41 0.494583
2.42 0.43381
2.43 0.367839
2.44 0.298774
2.45 0.228556
2.46 0.159377
2.47 0.0929697
2.48 0.0316402
2.49 -0.0234508
2.5 -0.0710106
2.51 -0.109859
2.52 -0.140569
2.53 -0.161882
2.54 -0.175751
2.55 -0.182431
2.56 -0.183537
2.57 -0.180734
2.58 -0.175537
2.59 -0.169884
2.6 -0.165451
2.61 -0.163622
2.62 -0.165546
2.63 -0.172255
2.64 -0.183614
2.65 -0.200388
2.66 -0.221342
2.67 -0.24608
2.68 -0.273315
2.69 -0.301744
2.7 -0.32989
2.71 -0.356465
2.72 -0.379895
2.73 -0.399348
2.74 -0.414004
2.75 -0.423214
2.76 -0.427513
2.77 -0.426488
2.78 -0.421656
2.79 -0.413699
2.8 -0.404086
2.81 -0.39419
2.82 -0.385629
2.83 -0.379513
2.84 -0.377402
2.85 -0.37985
2.86 -0.387445
2.87 -0.400512
2.88 -0.418211
2.89 -0.440509
2.9 -0.465659
2.91 -0.492584
2.92 -0.519567
2.93 -0.545125
2.94 -0.567303
2.95 -0.585222
2.96 -0.597117
2.97 -0.60274
2.98 -0.601648
2.99 -0.593736
3 -0.58025
3.01 -0.561434
3.02 -0.53946
3.03 -0.515678
3.04 -0.492097
3.05 -0.470388
3.06 -0.452729
3.07 -0.439989
3.08 -0.434029
3.09 -0.434973
3.1 -0.443163
3.11 -0.458553
3.12 -0.479695
3.13 -0.506164
3.14 -0.535627
3.15 -0.566604
3.16 -0.59703
3.17 -0.625267
3.18 -0.649217
3.19 -0.668223
3.2 -0.680717
3.21 -0.686912
3.22 -0.686862
3.23 -0.681136
3.24 -0.671421
3.25 -0.658914
3.26 -0.645926
3.27 -0.63443
3.28 -0.626575
3.29 -0.623874
3.3 -0.628609
3.31 -0.640758
3.32 -0.661773
3.33 -0.690666
3.34 -0.7268
3.35 -0.768848
3.36 -0.814424
3.37 -0.861417
3.38 -0.907046
3.39 -0.948613
3.4 -0.98357
3.41 -1.0103
3.42 -1.02611
3.43 -1.0316
3.44 -1.02526
3.45 -1.00884
3.46 -0.983502
3.47 -0.951268
3.48 -0.915245
3.49 -0.878216
3.5 -0.843369
3.51 -0.813709
3.52 -0.79168
3.53 -0.778427
3.54 -0.775686
3.55 -0.781577
3.56 -0.795339
3.57 -0.813027
3.58 -0.830559
3.59 -0.84176
3.6 -0.841509
3.61 -0.819819
3.62 -0.772591
3.63 -0.690584
3.64 -0.567737
3.65 -0.401102
3.66 -0.181366
3.67 0.0863294
3.68 0.408227
3.69 0.777103
3.7 1.18934
3.71 1.63884
3.72 2.11342
3.73 2.60464
3.74 3.09765
3.75 3.57941
3.76 4.03521
3.77 4.45381
3.78 4.81627
3.79 5.11911
3.8 5.34421
3.81 5.4906
3.82 5.5523
3.83 5.5236
3.84 5.4148
3.85 5.21678
3.86 4.94886
3.87 4.61343
3.88 4.22372
3.89 3.79345
3.9 3.33298
3.91 2.85898
3.92 2.3835
3.93 1.91951
3.94 1.47764
3.95 1.06933
3.96 0.6978
3.97 0.375321
3.98 0.0979061
3.99 -0.129515
4 -0.309294
4.01 -0.44634
4.02 -0.540748
4.03 -0.603332
4.04 -0.636366
4.05 -0.649104
4.06 -0.647207
4.07 -0.636734
4.08 -0.623363
4.09 -0.611617
4.1 -0.60454
4.11 -0.60465
4.12 -0.612896
4.13 -0.628867
4.14 -0.65236
4.15 -0.680768
4.16 -0.712376
4.17 -0.744255
4.18 -0.773909
4.19 -0.798406
4.2 -0.81625
4.21 -0.824225
4.22 -0.822444
4.23 -0.809318
4.24 -0.784924
4.25 -0.750144
4.26 -0.704736
4.27 -0.651249
4.28 -0.590142
4.29 -0.523708
4.3 -0.45336
4.31 -0.380613
4.32 -0.306937
4.33 -0.233455
4.34 -0.161
4.35 -0.0902536
4.36 -0.0215868
4.37 0.0449278
4.38 0.108964
4.39 0.170841
4.4 0.230238
4.41 0.287246
4.42 0.341586
4.43 0.392666
4.44 0.44028
4.45 0.482941
4.46 0.520411
4.47 0.551204
4.48 0.574292
4.49 0.589103
4.5 0.59362
4.51 0.588526
4.52 0.572067
4.53 0.545055
4.54 0.507521
4.55 0.459658
4.56 0.403412
4.57 0.338846
4.58 0.268695
4.59 0.194191
4.6 0.117452
4.61 0.0403111
4.62 -0.0352032
4.63 -0.107748
4.64 -0.175459
4.65 -0.2376
4.66 -0.293377
4.67 -0.342075
4.68 -0.384419
4.69 -0.419702
4.7 -0.449529
4.71 -0.474233
4.72 -0.494982
4.73 -0.512933
4.74 -0.528954
4.75 -0.544215
4.76 -0.559475
4.77 -0.575384
4.78 -0.59233
4.79 -0.610543
4.8 -0.629833
4.81 -0.650072
4.82 -0.670685
4.83 -0.691155
4.84 -0.710812
4.85 -0.729124
4.86 -0.745276
4.87 -0.759104
4.88 -0.769948
4.89 -0.777877
4.9 -0.78285
4.91 -0.784934
4.92 -0.78474
4.93 -0.782423
4.94 -0.778852
4.95 -0.774528
4.96 -0.77015
4.97 -0.766272
4.98 -0.763561
4.99 -0.762274
5 -0.762927
5.01 -0.76555
5.02 -0.77022
5.03 -0.776954
5.04 -0.78537
5.05 -0.795446
5.06 -0.806616
5.07 -0.818608
5.08 -0.830973
5.09 -0.843317
5.1 -0.855163
5.11 -0.866177
5.12 -0.875792
5.13 -0.883639
5.14 -0.88921
5.15 -0.891754
5.16 -0.890998
5.17 -0.885534
5.18 -0.875174
5.19 -0.858574
5.2 -0.834767
5.21 -0.803178
5.22 -0.76172
5.23 -0.710822
5.24 -0.648415
5.25 -0.574849
5.26 -0.48971
5.27 -0.392569
5.28 -0.285179
5.29 -0.166982
5.3 -0.0410008
5.31 0.0914665
5.32 0.22762
5.33 0.364652
5.34 0.499006
5.35 0.627801
5.36 0.74664
5.37 0.852748
5.38 0.942907
5.39 1.01315
5.4 1.06343
5.41 1.08841
5.42 1.09059
5.43 1.06774
5.44 1.02089
5.45 0.95246
5.46 0.862213
5.47 0.755633
5.48 0.633971
5.49 0.502226
5.5 0.36388
5.51 0.222992
5.52 0.0832818
5.53 -0.0510188
5.54 -0.177532
5.55 -0.293045
5.56 -0.395578
5.57 -0.484567
5.58 -0.557588
5.59 -0.616728
5.6 -0.660715
5.61 -0.691818
5.62 -0.711157
5.63 -0.719981
5.64 -0.720994
5.65 -0.714883
5.66 -0.704256
5.67 -0.690094
5.68 -0.673665
5.69 -0.655797
5.7 -0.636804
5.71 -0.616924
5.72 -0.59583
5.73 -0.573175
5.74 -0.548408
5.75 -0.520748
5.76 -0.489997
5.77 -0.455173
5.78 -0.416652
5.79 -0.374218
5.8 -0.328388
5.81 -0.280019
5.82 -0.230023
5.83 -0.17989
5.84 -0.131225
5.85 -0.0856584
5.86 -0.0448295
5.87 -0.0107936
5.88 0.0158551
5.89 0.0325372
5.9 0.0397835
5.91 0.0363629
5.92 0.0224262
5.93 -0.00110488
5.94 -0.0344737
5.95 -0.0752551
5.96 -0.122904
5.97 -0.175169
5.98 -0.230484
5.99 -0.287077
6 -0.343349
6.01 -0.397637
6.02 -0.44907
6.03 -0.496608
6.04 -0.539796
6.05 -0.578748
6.06 -0.613171
6.07 -0.644129
6.08 -0.671892
6.09 -0.697575
6.1 -0.721973
6.11 -0.745958
6.12 -0.77023
6.13 -0.79545
6.14 -0.821795
6.15 -0.849404
6.16 -0.878028
6.17 -0.907202
6.18 -0.936243
6.19 -0.964412
6.2 -0.99069
6.21 -1.01433
6.22 -1.03457
6.23 -1.05055
6.24 -1.06235
6.25 -1.06909
6.26 -1.07156
6.27 -1.06972
6.28 -1.06421
6.29 -1.05581
6.3 -1.04493
6.31 -1.03249
6.32 -1.01871
6.33 -1.0038
6.34 -0.987504
6.35 -0.968874
6.36 -0.946995
6.37 -0.919229
6.38 -0.883993
6.39 -0.837884
6.4 -0.777589
6.41 -0.700779
6.42 -0.601471
6.43 -0.479589
6.44 -0.329196
6.45 -0.150147
6.46 0.0592371
6.47 0.301005
6.48 0.571035
6.49 0.871746
6.5 1.19564
6.51 1.54015
6.52 1.89866
6.53 2.26418
6.54 2.62875
6.55 2.98457
6.56 3.32152
6.57 3.63208
6.58 3.90821
6.59 4.13969
6.6 4.32535
6.61 4.45165
6.62 4.52289
6.63 4.53249
6.64 4.48095
6.65 4.37288
6.66 4.2048
6.67 3.98929
6.68 3.72654
6.69 3.42768
6.7 3.09988
6.71 2.75117
6.72 2.39172
6.73 2.02949
6.74 1.67301
6.75 1.32996
6.76 1.00716
6.77 0.708339
6.78 0.441166
6.79 0.203993
6.8 0.00222444
6.81 -0.166603
6.82 -0.302971
6.83 -0.40721
6.84 -0.485137
6.85 -0.536006
6.86 -0.567009
6.87 -0.580121
6.88 -0.579536
6.89 -0.56915
6.9 -0.551305
6.91 -0.529563
6.92 -0.50571
6.93 -0.481685
6.94 -0.458627
6.95 -0.437468
6.96 -0.418389
6.97 -0.401892
6.98 -0.387584
6.99 -0.375502
7 -0.365451
7.01 -0.35723
7.02 -0.351084
7.03 -0.346874
7.04 -0.345161
7.05 -0.346202
7.06 -0.350512
7.07 -0.358905
7.08 -0.371448
7.09 -0.389372
7.1 -0.412304
7.11 -0.440804
7.12 -0.474728
7.13 -0.513486
7.14 -0.557026
7.15 -0.603914
7.16 -0.653502
7.17 -0.704332
7.18 -0.755196
7.19 -0.80461
7.2 -0.851569
7.21 -0.89436
7.22 -0.932571
7.23 -0.965133
7.24 -0.991635
7.25 -1.01229
7.26 -1.02653
7.27 -1.03564
7.28 -1.03965
7.29 -1.03982
7.3 -1.03698
7.31 -1.03205
7.32 -1.02604
7.33 -1.01961
7.34 -1.01333
7.35 -1.00743
7.36 -1.00182
7.37 -0.996098
7.38 -0.989392
7.39 -0.980823
7.4 -0.968784
7.41 -0.951963
7.42 -0.928821
7.43 -0.897213
7.44 -0.856689
7.45 -0.804304
7.46 -0.740622
7.47 -0.664118
7.48 -0.574711
7.49 -0.473376
7.5 -0.359472
7.51 -0.235908
7.52 -0.103248
7.53 0.0355873
7.54 0.178312
7.55 0.32206
7.56 0.464073
7.57 0.600708
7.58 0.729744
7.59 0.84788
7.6 0.952482
7.61 1.04233
7.62 1.11345
7.63 1.16709
7.64 1.2001
7.65 1.21359
7.66 1.2075
7.67 1.18137
7.68 1.13829
7.69 1.07708
7.7 1.0019
7.71 0.91363
7.72 0.814867
7.73 0.708407
7.74 0.596137
7.75 0.481267
7.76 0.366071
7.77 0.253113
7.78 0.144556
7.79 0.04302
7.8 -0.0505388
7.81 -0.132973
7.82 -0.204412
7.83 -0.263012
7.84 -0.308177
7.85 -0.34041
7.86 -0.358121
7.87 -0.363714
7.88 -0.356485
7.89 -0.338594
7.9 -0.311354
7.91 -0.27622
7.92 -0.235865
7.93 -0.191885
7.94 -0.147036
7.95 -0.103474
7.96 -0.0636077
7.97 -0.0291053
7.98 -0.0027839
7.99 0.0149967
8 0.0219217
8.01 0.0179798
8.02 0.00279552
8.03 -0.0241245
8.04 -0.0609763
8.05 -0.108258
8.06 -0.163227
8.07 -0.224866
8.08 -0.291088
8.09 -0.359831
8.1 -0.429146
8.11 -0.49715
8.12 -0.561907
8.13 -0.62215
8.14 -0.676821
8.15 -0.724789
8.16 -0.766488
8.17 -0.800974
8.18 -0.829624
8.19 -0.8527
8.2 -0.871281
8.21 -0.886601
8.22 -0.899473
8.23 -0.911162
8.24 -0.922302
8.25 -0.933394
8.26 -0.944476
8.27 -0.955073
8.28 -0.96441
8.29 -0.970692
8.3 -0.972426
8.31 -0.967047
8.32 -0.951812
8.33 -0.924814
8.34 -0.881324
8.35 -0.821064
8.36 -0.739458
8.37 -0.636048
8.38 -0.509499
8.39 -0.357837
8.4 -0.18406
8.41 0.0140931
8.42 0.2313
8.43 0.466057
8.44 0.713987
8.45 0.970104
8.46 1.22947
8.47 1.4862
8.48 1.73384
8.49 1.96679
8.5 2.17961
8.51 2.36509
8.52 2.52192
8.53 2.64099
8.54 2.72418
8.55 2.76687
8.56 2.76842
8.57 2.73155
8.58 2.65278
8.59 2.54015
8.6 2.39285
8.61 2.21769
8.62 2.019
8.63 1.80123
8.64 1.57146
8.65 1.33395
8.66 1.0951
8.67 0.859739
8.68 0.632817
8.69 0.417436
8.7 0.218885
8.71 0.037248
8.72 -0.123569
8.73 -0.264079
8.74 -0.384038
8.75 -0.482814
8.76 -0.563768
8.77 -0.625849
8.78 -0.673539
8.79 -0.707976
8.8 -0.731887
8.81 -0.748125
8.82 -0.758371
8.83 -0.765517
8.84 -0.771142
8.85 -0.777023
8.86 -0.784325
8.87 -0.794132
8.88 -0.806653
8.89 -0.822553
8.9 -0.841298
8.91 -0.862764
8.92 -0.886354
8.93 -0.911341
8.94 -0.937075
8.95 -0.962749
8.96 -0.987635
8.97 -1.01115
8.98 -1.03283
8.99 -1.05216
9 -1.06922
9.01 -1.08355
9.02 -1.09558
9.03 -1.1053
9.04 -1.11298
9.05 -1.11899
9.06 -1.12343
9.07 -1.12673
9.08 -1.1289
9.09 -1.13006
9.1 -1.13012
9.11 -1.12878
9.12 -1.12585
9.13 -1.12053
9.14 -1.11253
9.15 -1.10098
9.16 -1.08514
9.17 -1.06466
9.18 -1.03818
9.19 -1.00606
9.2 -0.967231
9.21 -0.922018
9.22 -0.870511
9.23 -0.812754
9.24 -0.750038
9.25 -0.682615
9.26 -0.612289
9.27 -0.540217
9.28 -0.46813
9.29 -0.397555
9.3 -0.330675
9.31 -0.268593
9.32 -0.213531
9.33 -0.166452
9.34 -0.128422
9.35 -0.100902
9.36 -0.0831372
9.37 -0.0767672
9.38 -0.0799975
9.39 -0.0928378
9.4 -0.114088
9.41 -0.142004
9.42 -0.175673
9.43 -0.212656
9.44 -0.251527
9.45 -0.29032
9.46 -0.327508
9.47 -0.36138
9.48 -0.391232
9.49 -0.415465
9.5 -0.434301
9.51 -0.44723
9.52 -0.454539
9.53 -0.457095
9.54 -0.455238
9.55 -0.450613
9.56 -0.444141
9.57 -0.437309
9.58 -0.43131
9.59 -0.427525
9.6 -0.426638
9.61 -0.430002
9.62 -0.437603
9.63 -0.449973
9.64 -0.46703
9.65 -0.488183
9.66 -0.513336
9.67 -0.541213
9.68 -0.571245
9.69 -0.6023
9.7 -0.633511
9.71 -0.663922
9.72 -0.692951
9.73 -0.719732
9.74 -0.744156
9.75 -0.765852
9.76 -0.784773
9.77 -0.801152
9.78 -0.814787
9.79 -0.826158
9.8 -0.834996
9.81 -0.841294
9.82 -0.844658
9.83 -0.84407
9.84 -0.838964
9.85 -0.826939
9.86 -0.806969
9.87 -0.776318
9.88 -0.732279
9.89 -0.67327
9.9 -0.594072
9.91 -0.494913
9.92 -0.370787
9.93 -0.221235
9.94 -0.0448675
9.95 0.160855
9.96 0.392569
9.97 0.653251
9.98 0.937146
9.99 1.24289
10 1.56594
10.01 1.90066
10.02 2.24197
10.03 2.58279
10.04 2.916
10.05 3.23471
10.06 3.5324
10.07 3.80021
10.08 4.03588
10.09 4.22829
10.1 4.37851
10.11 4.48047
10.12 4.53218
10.13 4.53634
10.14 4.48725
10.15 4.39426
10.16 4.25524
10.17 4.07774
10.18 3.86658
10.19 3.62616
10.2 3.36548
10.21 3.08858
10.22 2.80401
10.23 2.51724
10.24 2.23456
10.25 1.96034
10.26 1.70073
10.27 1.45703
10.28 1.23384
10.29 1.03147
10.3 0.850585
10.31 0.692404
10.32 0.553576
10.33 0.435481
10.34 0.333477
10.35 0.24639
10.36 0.171376
10.37 0.105263
10.38 0.0463301
10.39 -0.00870072
10.4 -0.0615028
10.41 -0.114067
10.42 -0.167664
10.43 -0.223439
10.44 -0.281649
10.45 -0.342864
10.46 -0.406516
10.47 -0.472298
10.48 -0.539411
10.49 -0.606953
10.5 -0.673812
10.51 -0.739058
10.52 -0.801397
10.53 -0.859958
10.54 -0.913891
10.55 -0.962004
10.56 -1.00436
10.57 -1.03951
10.58 -1.06802
10.59 -1.08929
10.6 -1.10334
10.61 -1.11076
10.62 -1.11095
10.63 -1.10528
10.64 -1.09352
10.65 -1.07663
10.66 -1.05519
10.67 -1.02963
10.68 -1.00104
10.69 -0.969714
10.7 -0.9367
10.71 -0.902559
10.72 -0.868039
10.73 -0.833763
10.74 -0.800487
10.75 -0.768639
10.76 -0.738956
10.77 -0.711819
10.78 -0.687636
10.79 -0.667037
10.8 -0.649917
10.81 -0.637122
10.82 -0.628318
10.83 -0.623908
10.84 -0.62397
10.85 -0.628211
10.86 -0.637151
10.87 -0.650018
10.88 -0.667107
10.89 -0.68788
10.9 -0.712039
10.91 -0.73938
10.92 -0.76914
10.93 -0.801141
10.94 -0.834541
10.95 -0.86885
10.96 -0.903368
10.97 -0.937486
10.98 -0.970388
10.99 -1.00163
11 -1.03039
11.01 -1.05627
11.02 -1.07887
11.03 -1.09761
11.04 -1.11274
11.05 -1.12366
11.06 -1.13101
11.07 -1.13481
11.08 -1.13551
11.09 -1.13382
11.1 -1.13014
11.11 -1.1254
11.12 -1.12017
11.13 -1.11517
11.14 -1.11089
11.15 -1.10776
11.16 -1.1058
11.17 -1.10502
11.18 -1.10483
11.19 -1.10452
11.2 -1.10286
11.21 -1.09866
11.22 -1.08958
11.23 -1.07443
11.24 -1.05031
11.25 -1.01552
11.26 -0.968091
11.27 -0.904964
11.28 -0.826357
11.29 -0.728362
11.3 -0.612533
11.31 -0.47745
11.32 -0.323538
11.33 -0.15306
11.34 0.0342771
11.35 0.233737
11.36 0.443631
11.37 0.659471
11.38 0.877447
11.39 1.09279
11.4 1.30164
11.41 1.49797
11.42 1.6789
11.43 1.83955
11.44 1.97604
11.45 2.08739
11.46 2.1675
11.47 2.21941
11.48 2.23907
11.49 2.22877
11.5 2.18961
11.51 2.12162
11.52 2.03033
11.53 1.91538
11.54 1.78309
11.55 1.63588
11.56 1.47784
11.57 1.31312
11.58 1.14488
11.59 0.976798
11.6 0.811874
11.61 0.652512
11.62 0.500519
11.63 0.358043
11.64 0.224871
11.65 0.102986
11.66 -0.00894982
11.67 -0.110599
11.68 -0.202604
11.69 -0.286358
11.7 -0.361741
11.71 -0.430845
11.72 -0.493837
11.73 -0.551949
11.74 -0.605824
11.75 -0.65571
11.76 -0.702327
11.77 -0.745256
11.78 -0.784835
11.79 -0.820573
11.8 -0.851995
11.81 -0.878916
11.82 -0.899982
11.83 -0.915382
11.84 -0.923743
11.85 -0.92482
11.86 -0.918098
11.87 -0.902454
11.88 -0.87852
11.89 -0.84466
11.9 -0.801898
11.91 -0.749623
11.92 -0.687934
11.93 -0.617728
11.94 -0.53828
11.95 -0.451469
11.96 -0.357195
11.97 -0.256917
11.98 -0.151718
11.99 -0.042716
12 0.0683119
12.01 0.179894
12.02 0.290206
12.03 0.397405
12.04 0.499435
12.05 0.594973
12.06 0.680994
12.07 0.757204
12.08 0.820857
12.09 0.871356
12.1 0.907844
12.11 0.928579
12.12 0.935086
12.13 0.925246
12.14 0.901535
12.15 0.863926
12.16 0.813734
12.17 0.753253
12.18 0.683072
12.19 0.60647
12.2 0.524782
12.21 0.440502
12.22 0.355489
12.23 0.271743
12.24 0.190567
12.25 0.113784
12.26 0.0418162
12.27 -0.0244777
12.28 -0.0848405
12.29 -0.139804
12.3 -0.189076
12.31 -0.234106
12.32 -0.275239
12.33 -0.313688
12.34 -0.350338
12.35 -0.386021
12.36 -0.421487
12.37 -0.457231
12.38 -0.493423
