# xPDFsuite Configuration #
[PDF]
wavelength = 0.1432
dataformat = twotheta
inputfile = 1_1Pd_CeO2_cycle-00102.chi
backgroundfile = background-00000.chi
mode = xray
bgscale = 1.007
composition = CeO2
outputtype = gr
qmaxinst = 28.8974762299
qmin = 0.5
qmax = 27.9
rmax = 50.0
rmin = 0.0
rstep = 0.01
rpoly = 1.8657

[Misc]
inputdir = G:/SankarDec16/1Pd/Chi
savedir = D:/DATA/APS_CeO2/1Pd
backgroundfilefull = G:/SankarDec16/Background/background-00000.chi

#### start data
#S 1
#L r($\AA$)  G($\AA^{-2}$)
0 0
0.01 -0.00717858
0.02 -0.013816
0.03 -0.0193552
0.04 -0.0233766
0.05 -0.0256467
0.06 -0.0257905
0.07 -0.0240581
0.08 -0.0203294
0.09 -0.0150816
0.1 -0.00864537
0.11 -0.00152628
0.12 0.00572452
0.13 0.0124884
0.14 0.0183278
0.15 0.0227065
0.16 0.0253111
0.17 0.0260169
0.18 0.0245689
0.19 0.0213353
0.2 0.0163319
0.21 0.0101153
0.22 0.00309718
0.23 -0.00415466
0.24 -0.0111219
0.25 -0.0171382
0.26 -0.0218904
0.27 -0.0248896
0.28 -0.0259434
0.29 -0.025042
0.3 -0.0220632
0.31 -0.0174757
0.32 -0.0114305
0.33 -0.0045371
0.34 0.00273161
0.35 0.00977267
0.36 0.0161257
0.37 0.0211089
0.38 0.0245486
0.39 0.026027
0.4 0.0254822
0.41 0.0230202
0.42 0.0186576
0.43 0.0129415
0.44 0.00615064
0.45 -0.00108113
0.46 -0.00824299
0.47 -0.0147254
0.48 -0.0201486
0.49 -0.0238482
0.5 -0.0257988
0.51 -0.0256741
0.52 -0.0235461
0.53 -0.0196318
0.54 -0.0140866
0.55 -0.00750961
0.56 -0.000294319
0.57 0.00693171
0.58 0.0136444
0.59 0.0192567
0.6 0.0234883
0.61 0.0257248
0.62 0.0260904
0.63 0.0243665
0.64 0.0207564
0.65 0.0155776
0.66 0.00911751
0.67 0.00199838
0.68 -0.00529017
0.69 -0.0121569
0.7 -0.0180899
0.71 -0.022553
0.72 -0.0253792
0.73 -0.0260332
0.74 -0.0247831
0.75 -0.0215285
0.76 -0.0165934
0.77 -0.0103803
0.78 -0.00329356
0.79 0.0040522
0.8 0.0110972
0.81 0.0173156
0.82 0.0222348
0.83 0.0253966
0.84 0.0267556
0.85 0.0258845
0.86 0.0231804
0.87 0.0186659
0.88 0.0127677
0.89 0.0059499
0.9 -0.00129065
0.91 -0.00838328
0.92 -0.0147354
0.93 -0.0199213
0.94 -0.0235425
0.95 -0.0252577
0.96 -0.0251531
0.97 -0.0229585
0.98 -0.0191818
0.99 -0.0139913
1 -0.00790607
1.01 -0.00143356
1.02 0.00483953
1.03 0.0104318
1.04 0.014732
1.05 0.0174593
1.06 0.0183224
1.07 0.0171376
1.08 0.0141578
1.09 0.00932393
1.1 0.00328207
1.11 -0.00359992
1.12 -0.0106682
1.13 -0.0173388
1.14 -0.0228543
1.15 -0.0268193
1.16 -0.0285043
1.17 -0.0277612
1.18 -0.0243475
1.19 -0.01817
1.2 -0.00967134
1.21 0.00112509
1.22 0.0133473
1.23 0.0264851
1.24 0.0397046
1.25 0.0522795
1.26 0.0632538
1.27 0.0721573
1.28 0.0780516
1.29 0.0807331
1.3 0.0798367
1.31 0.0751273
1.32 0.067074
1.33 0.0554302
1.34 0.0411928
1.35 0.0246993
1.36 0.00678085
1.37 -0.0118012
1.38 -0.0302194
1.39 -0.0477799
1.4 -0.0636258
1.41 -0.0773023
1.42 -0.0883081
1.43 -0.0961871
1.44 -0.101093
1.45 -0.102472
1.46 -0.100953
1.47 -0.096458
1.48 -0.0894054
1.49 -0.0802335
1.5 -0.0691798
1.51 -0.0568797
1.52 -0.0435973
1.53 -0.0298208
1.54 -0.0158674
1.55 -0.0020758
1.56 0.0113269
1.57 0.023999
1.58 0.0358405
1.59 0.0465776
1.6 0.0560423
1.61 0.0641164
1.62 0.0704391
1.63 0.0750603
1.64 0.0775525
1.65 0.0779389
1.66 0.0760345
1.67 0.0716573
1.68 0.0650329
1.69 0.0558341
1.7 0.0445906
1.71 0.0313443
1.72 0.0165282
1.73 0.000608513
1.74 -0.0159404
1.75 -0.0324959
1.76 -0.0484186
1.77 -0.063152
1.78 -0.0761468
1.79 -0.0868228
1.8 -0.0951008
1.81 -0.100332
1.82 -0.102935
1.83 -0.102789
1.84 -0.100308
1.85 -0.096011
1.86 -0.0903797
1.87 -0.0842291
1.88 -0.0782598
1.89 -0.0731968
1.9 -0.069682
1.91 -0.0683723
1.92 -0.0693879
1.93 -0.073346
1.94 -0.0797762
1.95 -0.088665
1.96 -0.0994326
1.97 -0.111395
1.98 -0.123752
1.99 -0.135586
2 -0.145805
2.01 -0.153582
2.02 -0.158047
2.03 -0.158281
2.04 -0.154241
2.05 -0.144844
2.06 -0.130829
2.07 -0.111931
2.08 -0.0887287
2.09 -0.0619461
2.1 -0.0320326
2.11 -0.000157459
2.12 0.0330755
2.13 0.0667533
2.14 0.100277
2.15 0.133112
2.16 0.165081
2.17 0.19598
2.18 0.226138
2.19 0.255845
2.2 0.285668
2.21 0.316148
2.22 0.348052
2.23 0.381701
2.24 0.417736
2.25 0.456097
2.26 0.496702
2.27 0.539101
2.28 0.582362
2.29 0.625271
2.3 0.666394
2.31 0.703841
2.32 0.735674
2.33 0.760357
2.34 0.774996
2.35 0.779343
2.36 0.770604
2.37 0.749053
2.38 0.714064
2.39 0.665411
2.4 0.605267
2.41 0.533365
2.42 0.453461
2.43 0.367248
2.44 0.277962
2.45 0.188505
2.46 0.102343
2.47 0.0217898
2.48 -0.0496451
2.49 -0.110576
2.5 -0.159306
2.51 -0.194418
2.52 -0.217189
2.53 -0.226204
2.54 -0.224788
2.55 -0.213826
2.56 -0.196145
2.57 -0.174502
2.58 -0.151697
2.59 -0.13051
2.6 -0.113866
2.61 -0.10359
2.62 -0.101355
2.63 -0.108561
2.64 -0.124503
2.65 -0.150194
2.66 -0.183122
2.67 -0.222334
2.68 -0.26539
2.69 -0.309935
2.7 -0.353273
2.71 -0.393272
2.72 -0.427182
2.73 -0.453724
2.74 -0.47159
2.75 -0.4798
2.76 -0.479426
2.77 -0.469884
2.78 -0.453893
2.79 -0.432708
2.8 -0.4089
2.81 -0.384828
2.82 -0.363277
2.83 -0.346079
2.84 -0.335878
2.85 -0.333548
2.86 -0.340046
2.87 -0.355888
2.88 -0.379627
2.89 -0.411219
2.9 -0.44773
2.91 -0.48741
2.92 -0.527447
2.93 -0.56542
2.94 -0.598211
2.95 -0.624387
2.96 -0.641175
2.97 -0.648194
2.98 -0.644786
2.99 -0.630844
3 -0.608356
3.01 -0.5778
3.02 -0.542588
3.03 -0.504887
3.04 -0.467842
3.05 -0.434036
3.06 -0.406852
3.07 -0.387539
3.08 -0.378917
3.09 -0.381045
3.1 -0.394324
3.11 -0.418519
3.12 -0.451276
3.13 -0.491718
3.14 -0.536191
3.15 -0.582251
3.16 -0.626645
3.17 -0.666839
3.18 -0.699495
3.19 -0.723742
3.2 -0.737108
3.21 -0.740071
3.22 -0.732786
3.23 -0.716211
3.24 -0.693089
3.25 -0.665295
3.26 -0.63652
3.27 -0.609838
3.28 -0.588609
3.29 -0.575196
3.3 -0.573113
3.31 -0.582349
3.32 -0.605137
3.33 -0.639984
3.34 -0.685934
3.35 -0.741004
3.36 -0.801588
3.37 -0.864563
3.38 -0.925743
3.39 -0.981139
3.4 -1.02698
3.41 -1.06088
3.42 -1.07893
3.43 -1.08203
3.44 -1.06809
3.45 -1.03973
3.46 -0.998803
3.47 -0.948433
3.48 -0.893261
3.49 -0.837711
3.5 -0.786518
3.51 -0.744453
3.52 -0.715396
3.53 -0.701288
3.54 -0.705424
3.55 -0.72519
3.56 -0.760546
3.57 -0.806131
3.58 -0.856844
3.59 -0.904887
3.6 -0.942954
3.61 -0.958724
3.62 -0.945867
3.63 -0.892568
3.64 -0.790568
3.65 -0.635599
3.66 -0.415699
3.67 -0.136752
3.68 0.209239
3.69 0.613537
3.7 1.07178
3.71 1.5765
3.72 2.11263
3.73 2.66987
3.74 3.22988
3.75 3.77679
3.76 4.29277
3.77 4.76427
3.78 5.16875
3.79 5.50233
3.8 5.74387
3.81 5.89284
3.82 5.9429
3.83 5.88834
3.84 5.74201
3.85 5.49477
3.86 5.16979
3.87 4.7712
3.88 4.31525
3.89 3.81831
3.9 3.29367
3.91 2.75994
3.92 2.23195
3.93 1.72373
3.94 1.24715
3.95 0.814784
3.96 0.42886
3.97 0.102885
3.98 -0.169472
3.99 -0.38362
4 -0.543608
4.01 -0.656077
4.02 -0.722436
4.03 -0.755471
4.04 -0.758823
4.05 -0.743112
4.06 -0.715035
4.07 -0.681647
4.08 -0.648767
4.09 -0.621788
4.1 -0.60315
4.11 -0.595506
4.12 -0.59932
4.13 -0.613584
4.14 -0.637788
4.15 -0.668475
4.16 -0.703582
4.17 -0.739588
4.18 -0.773646
4.19 -0.802508
4.2 -0.824501
4.21 -0.836241
4.22 -0.837846
4.23 -0.827692
4.24 -0.805884
4.25 -0.77334
4.26 -0.729771
4.27 -0.677741
4.28 -0.617572
4.29 -0.551468
4.3 -0.480681
4.31 -0.406491
4.32 -0.330307
4.33 -0.252894
4.34 -0.17517
4.35 -0.0976532
4.36 -0.0207864
4.37 0.0551685
4.38 0.129764
4.39 0.20286
4.4 0.273791
4.41 0.342129
4.42 0.407112
4.43 0.467549
4.44 0.522931
4.45 0.57103
4.46 0.611615
4.47 0.642795
4.48 0.663523
4.49 0.673427
4.5 0.670439
4.51 0.655907
4.52 0.628296
4.53 0.589111
4.54 0.5389
4.55 0.478477
4.56 0.410269
4.57 0.334982
4.58 0.255555
4.59 0.1736
4.6 0.0913343
4.61 0.0104913
4.62 -0.0668427
4.63 -0.139809
4.64 -0.206707
4.65 -0.267307
4.66 -0.321182
4.67 -0.368034
4.68 -0.408887
4.69 -0.443386
4.7 -0.473185
4.71 -0.498724
4.72 -0.521065
4.73 -0.541155
4.74 -0.559604
4.75 -0.577212
4.76 -0.594323
4.77 -0.61123
4.78 -0.627978
4.79 -0.644439
4.8 -0.660429
4.81 -0.675503
4.82 -0.689436
4.83 -0.701799
4.84 -0.712328
4.85 -0.720957
4.86 -0.727415
4.87 -0.73208
4.88 -0.734963
4.89 -0.736581
4.9 -0.737333
4.91 -0.737739
4.92 -0.738298
4.93 -0.739582
4.94 -0.741892
4.95 -0.745604
4.96 -0.750868
4.97 -0.757623
4.98 -0.765906
4.99 -0.775275
5 -0.78551
5.01 -0.796113
5.02 -0.80669
5.03 -0.816795
5.04 -0.826175
5.05 -0.834447
5.06 -0.841658
5.07 -0.847739
5.08 -0.852865
5.09 -0.857299
5.1 -0.861286
5.11 -0.865157
5.12 -0.869128
5.13 -0.873283
5.14 -0.877527
5.15 -0.881468
5.16 -0.884562
5.17 -0.885587
5.18 -0.883578
5.19 -0.876773
5.2 -0.863378
5.21 -0.842022
5.22 -0.809587
5.23 -0.765844
5.24 -0.707654
5.25 -0.634933
5.26 -0.546784
5.27 -0.44233
5.28 -0.323793
5.29 -0.190283
5.3 -0.0459282
5.31 0.107503
5.32 0.266155
5.33 0.426177
5.34 0.582774
5.35 0.732094
5.36 0.868393
5.37 0.988168
5.38 1.08744
5.39 1.16143
5.4 1.21042
5.41 1.22827
5.42 1.21855
5.43 1.17916
5.44 1.11203
5.45 1.02061
5.46 0.905541
5.47 0.773582
5.48 0.627047
5.49 0.471946
5.5 0.312614
5.51 0.154023
5.52 6.80225e-06
5.53 -0.144306
5.54 -0.277071
5.55 -0.394903
5.56 -0.496259
5.57 -0.581205
5.58 -0.647663
5.59 -0.698689
5.6 -0.733523
5.61 -0.755187
5.62 -0.765333
5.63 -0.765736
5.64 -0.759316
5.65 -0.747131
5.66 -0.731635
5.67 -0.713815
5.68 -0.694685
5.69 -0.674751
5.7 -0.654008
5.71 -0.632303
5.72 -0.608938
5.73 -0.583303
5.74 -0.554639
5.75 -0.521999
5.76 -0.485302
5.77 -0.443532
5.78 -0.397421
5.79 -0.346994
5.8 -0.29317
5.81 -0.237169
5.82 -0.1804
5.83 -0.124588
5.84 -0.0718054
5.85 -0.0237932
5.86 0.0176677
5.87 0.0504132
5.88 0.0741376
5.89 0.0862125
5.9 0.087684
5.91 0.0775632
5.92 0.0564339
5.93 0.0256018
5.94 -0.0147642
5.95 -0.0619744
5.96 -0.11515
5.97 -0.171946
5.98 -0.230729
5.99 -0.289721
6 -0.34756
6.01 -0.402688
6.02 -0.454608
6.03 -0.502544
6.04 -0.546373
6.05 -0.586447
6.06 -0.622779
6.07 -0.656457
6.08 -0.687894
6.09 -0.718053
6.1 -0.747568
6.11 -0.777026
6.12 -0.806757
6.13 -0.836936
6.14 -0.867352
6.15 -0.897637
6.16 -0.927128
6.17 -0.955169
6.18 -0.980601
6.19 -1.00296
6.2 -1.02105
6.21 -1.0346
6.22 -1.04322
6.23 -1.04663
6.24 -1.04567
6.25 -1.04033
6.26 -1.03214
6.27 -1.02202
6.28 -1.01142
6.29 -1.00155
6.3 -0.993868
6.31 -0.988955
6.32 -0.987675
6.33 -0.98967
6.34 -0.994286
6.35 -1.00001
6.36 -1.00468
6.37 -1.00473
6.38 -0.997075
6.39 -0.976912
6.4 -0.939378
6.41 -0.881029
6.42 -0.793853
6.43 -0.67755
6.44 -0.524407
6.45 -0.334304
6.46 -0.105225
6.47 0.16521
6.48 0.471489
6.49 0.816324
6.5 1.18996
6.51 1.58881
6.52 2.00432
6.53 2.42761
6.54 2.84847
6.55 3.25738
6.56 3.6417
6.57 3.99246
6.58 4.30003
6.59 4.55227
6.6 4.7483
6.61 4.87223
6.62 4.92996
6.63 4.91432
6.64 4.82673
6.65 4.67343
6.66 4.45149
6.67 4.17628
6.68 3.84929
6.69 3.4842
6.7 3.09013
6.71 2.67746
6.72 2.25789
6.73 1.84201
6.74 1.43895
6.75 1.0581
6.76 0.707049
6.77 0.389369
6.78 0.113947
6.79 -0.122615
6.8 -0.314464
6.81 -0.465785
6.82 -0.578106
6.83 -0.652941
6.84 -0.698014
6.85 -0.713704
6.86 -0.70897
6.87 -0.687047
6.88 -0.653406
6.89 -0.612719
6.9 -0.568524
6.91 -0.524312
6.92 -0.482618
6.93 -0.445022
6.94 -0.412506
6.95 -0.385784
6.96 -0.364141
6.97 -0.347886
6.98 -0.335601
6.99 -0.326852
7 -0.320801
7.01 -0.316766
7.02 -0.314585
7.03 -0.313921
7.04 -0.315165
7.05 -0.318633
7.06 -0.324951
7.07 -0.335133
7.08 -0.349498
7.09 -0.36958
7.1 -0.395204
7.11 -0.427158
7.12 -0.465411
7.13 -0.509335
7.14 -0.558875
7.15 -0.612293
7.16 -0.668697
7.17 -0.726214
7.18 -0.783239
7.19 -0.837771
7.2 -0.888543
7.21 -0.933227
7.22 -0.971416
7.23 -1.00176
7.24 -1.02389
7.25 -1.0383
7.26 -1.04457
7.27 -1.04466
7.28 -1.03907
7.29 -1.02982
7.3 -1.01842
7.31 -1.00659
7.32 -0.995756
7.33 -0.987527
7.34 -0.982439
7.35 -0.981145
7.36 -0.983475
7.37 -0.988614
7.38 -0.995509
7.39 -1.00226
7.4 -1.00659
7.41 -1.00608
7.42 -0.998205
7.43 -0.979588
7.44 -0.949113
7.45 -0.902367
7.46 -0.839805
7.47 -0.7591
7.48 -0.660016
7.49 -0.543926
7.5 -0.409977
7.51 -0.262432
7.52 -0.102295
7.53 0.0660874
7.54 0.239273
7.55 0.412955
7.56 0.583222
7.57 0.744727
7.58 0.89457
7.59 1.02823
7.6 1.14239
7.61 1.2358
7.62 1.30362
7.63 1.34821
7.64 1.36617
7.65 1.35983
7.66 1.32994
7.67 1.27702
7.68 1.20553
7.69 1.11533
7.7 1.0118
7.71 0.896836
7.72 0.773973
7.73 0.646474
7.74 0.517166
7.75 0.38896
7.76 0.264657
7.77 0.146366
7.78 0.0359993
7.79 -0.0640923
7.8 -0.153755
7.81 -0.230042
7.82 -0.293906
7.83 -0.343861
7.84 -0.379769
7.85 -0.402463
7.86 -0.410577
7.87 -0.406643
7.88 -0.390015
7.89 -0.362821
7.9 -0.326321
7.91 -0.281892
7.92 -0.232166
7.93 -0.178714
7.94 -0.124359
7.95 -0.0713829
7.96 -0.0224185
7.97 0.0206288
7.98 0.0544815
7.99 0.0785605
8 0.0899987
8.01 0.0885463
8.02 0.073542
8.03 0.0441401
8.04 0.00236453
8.05 -0.0526096
8.06 -0.117461
8.07 -0.190992
8.08 -0.270561
8.09 -0.353479
8.1 -0.437138
8.11 -0.518966
8.12 -0.596256
8.13 -0.667196
8.14 -0.73025
8.15 -0.783767
8.16 -0.828344
8.17 -0.86264
8.18 -0.888685
8.19 -0.906977
8.2 -0.91927
8.21 -0.927545
8.22 -0.933433
8.23 -0.938966
8.24 -0.945677
8.25 -0.954625
8.26 -0.966312
8.27 -0.980724
8.28 -0.996752
8.29 -1.01278
8.3 -1.0264
8.31 -1.03446
8.32 -1.03312
8.33 -1.01945
8.34 -0.987224
8.35 -0.935289
8.36 -0.8575
8.37 -0.752681
8.38 -0.618754
8.39 -0.452871
8.4 -0.258658
8.41 -0.0331148
8.42 0.216907
8.43 0.489365
8.44 0.778439
8.45 1.07753
8.46 1.37996
8.47 1.67809
8.48 1.96338
8.49 2.2287
8.5 2.46715
8.51 2.66977
8.52 2.83535
8.53 2.95287
8.54 3.02549
8.55 3.04824
8.56 3.0214
8.57 2.94921
8.58 2.82888
8.59 2.67088
8.6 2.47574
8.61 2.25233
8.62 2.0066
8.63 1.74488
8.64 1.47516
8.65 1.2036
8.66 0.936651
8.67 0.680001
8.68 0.438701
8.69 0.215258
8.7 0.0152517
8.71 -0.16281
8.72 -0.315284
8.73 -0.444037
8.74 -0.549747
8.75 -0.632728
8.76 -0.697319
8.77 -0.743234
8.78 -0.775528
8.79 -0.795801
8.8 -0.807033
8.81 -0.812049
8.82 -0.812635
8.83 -0.811287
8.84 -0.809455
8.85 -0.808529
8.86 -0.809406
8.87 -0.812908
8.88 -0.819072
8.89 -0.828455
8.9 -0.840558
8.91 -0.855363
8.92 -0.872495
8.93 -0.89146
8.94 -0.912028
8.95 -0.933584
8.96 -0.955848
8.97 -0.978393
8.98 -1.00092
8.99 -1.0231
9 -1.04475
9.01 -1.06552
9.02 -1.0853
9.03 -1.10383
9.04 -1.12089
9.05 -1.13637
9.06 -1.14979
9.07 -1.16117
9.08 -1.16998
9.09 -1.17605
9.1 -1.17907
9.11 -1.17843
9.12 -1.17419
9.13 -1.16534
9.14 -1.15205
9.15 -1.13366
9.16 -1.1098
9.17 -1.08056
9.18 -1.04495
9.19 -1.00374
9.2 -0.956216
9.21 -0.902961
9.22 -0.844246
9.23 -0.780287
9.24 -0.712289
9.25 -0.640595
9.26 -0.566772
9.27 -0.491889
9.28 -0.417494
9.29 -0.34494
9.3 -0.276302
9.31 -0.212572
9.32 -0.155958
9.33 -0.107456
9.34 -0.06823
9.35 -0.0399307
9.36 -0.0219408
9.37 -0.0162421
9.38 -0.0211519
9.39 -0.0369496
9.4 -0.0625964
9.41 -0.0963347
9.42 -0.137447
9.43 -0.183174
9.44 -0.232056
9.45 -0.281733
9.46 -0.330333
9.47 -0.37569
9.48 -0.416662
9.49 -0.45105
9.5 -0.478736
9.51 -0.49872
9.52 -0.510934
9.53 -0.516173
9.54 -0.514344
9.55 -0.507467
9.56 -0.496313
9.57 -0.482793
9.58 -0.468415
9.59 -0.454921
9.6 -0.443566
9.61 -0.436121
9.62 -0.433088
9.63 -0.435429
9.64 -0.443464
9.65 -0.456802
9.66 -0.475749
9.67 -0.498918
9.68 -0.525963
9.69 -0.555597
9.7 -0.586876
9.71 -0.618806
9.72 -0.650529
9.73 -0.681244
9.74 -0.710602
9.75 -0.738266
9.76 -0.764193
9.77 -0.788598
9.78 -0.811507
9.79 -0.833322
9.8 -0.854002
9.81 -0.873488
9.82 -0.891355
9.83 -0.906516
9.84 -0.918022
9.85 -0.923157
9.86 -0.920254
9.87 -0.905882
9.88 -0.876422
9.89 -0.829552
9.9 -0.758584
9.91 -0.663334
9.92 -0.537299
9.93 -0.379566
9.94 -0.188166
9.95 0.0402829
9.96 0.301616
9.97 0.599604
9.98 0.926871
9.99 1.28151
10 1.65751
10.01 2.04748
10.02 2.44451
10.03 2.83952
10.04 3.22304
10.05 3.58628
10.06 3.92091
10.07 4.21573
10.08 4.46833
10.09 4.66495
10.1 4.80778
10.11 4.88994
10.12 4.91006
10.13 4.87253
10.14 4.77193
10.15 4.6207
10.16 4.41806
10.17 4.17434
10.18 3.89655
10.19 3.59166
10.2 3.27042
10.21 2.93962
10.22 2.60856
10.23 2.28435
10.24 1.97406
10.25 1.68164
10.26 1.41436
10.27 1.17148
10.28 0.957658
10.29 0.771358
10.3 0.611885
10.31 0.479076
10.32 0.367702
10.33 0.277801
10.34 0.203273
10.35 0.141785
10.36 0.0895186
10.37 0.0429247
10.38 -0.000551096
10.39 -0.0436849
10.4 -0.08841
10.41 -0.136075
10.42 -0.187467
10.43 -0.243228
10.44 -0.302792
10.45 -0.366264
10.46 -0.432423
10.47 -0.500561
10.48 -0.569552
10.49 -0.638375
10.5 -0.705805
10.51 -0.771098
10.52 -0.833083
10.53 -0.891167
10.54 -0.944742
10.55 -0.992895
10.56 -1.03582
10.57 -1.07226
10.58 -1.1027
10.59 -1.12649
10.6 -1.1434
10.61 -1.15374
10.62 -1.15648
10.63 -1.15265
10.64 -1.14149
10.65 -1.12366
10.66 -1.09945
10.67 -1.06897
10.68 -1.03348
10.69 -0.993062
10.7 -0.949287
10.71 -0.902974
10.72 -0.855432
10.73 -0.807886
10.74 -0.76182
10.75 -0.718242
10.76 -0.678674
10.77 -0.643966
10.78 -0.614931
10.79 -0.592697
10.8 -0.576897
10.81 -0.568757
10.82 -0.567263
10.83 -0.572579
10.84 -0.584152
10.85 -0.600961
10.86 -0.62283
10.87 -0.648221
10.88 -0.67666
10.89 -0.707042
10.9 -0.738616
10.91 -0.770667
10.92 -0.802598
10.93 -0.833869
10.94 -0.864214
10.95 -0.893347
10.96 -0.921116
10.97 -0.947552
10.98 -0.972435
10.99 -0.995974
11 -1.01799
11.01 -1.03854
11.02 -1.05756
11.03 -1.07485
11.04 -1.09049
11.05 -1.1041
11.06 -1.1158
11.07 -1.12541
11.08 -1.13291
11.09 -1.13852
11.1 -1.14214
11.11 -1.14429
11.12 -1.14511
11.13 -1.14509
11.14 -1.14456
11.15 -1.14389
11.16 -1.14331
11.17 -1.14292
11.18 -1.14254
11.19 -1.14174
11.2 -1.1397
11.21 -1.1355
11.22 -1.12713
11.23 -1.11343
11.24 -1.09156
11.25 -1.05958
11.26 -1.01524
11.27 -0.954949
11.28 -0.878412
11.29 -0.780843
11.3 -0.663269
11.31 -0.523456
11.32 -0.361154
11.33 -0.178443
11.34 0.0258399
11.35 0.246341
11.36 0.481645
11.37 0.726458
11.38 0.976231
11.39 1.22522
11.4 1.46821
11.41 1.69766
11.42 1.90931
11.43 2.09664
11.44 2.2542
11.45 2.38023
11.46 2.4665
11.47 2.51654
11.48 2.52493
11.49 2.49454
11.5 2.42689
11.51 2.32233
11.52 2.18837
11.53 2.02534
11.54 1.84196
11.55 1.64227
11.56 1.4325
11.57 1.21847
11.58 1.00576
11.59 0.798876
11.6 0.60284
11.61 0.420562
11.62 0.254325
11.63 0.107037
11.64 -0.0228318
11.65 -0.132747
11.66 -0.22611
11.67 -0.303389
11.68 -0.366839
11.69 -0.419597
11.7 -0.463092
11.71 -0.501087
11.72 -0.535357
11.73 -0.568342
11.74 -0.601629
11.75 -0.636626
11.76 -0.673799
11.77 -0.713708
11.78 -0.755703
11.79 -0.799172
11.8 -0.842846
11.81 -0.885383
11.82 -0.92467
11.83 -0.95941
11.84 -0.987154
11.85 -1.00644
11.86 -1.01577
11.87 -1.01282
11.88 -0.997881
11.89 -0.968105
11.9 -0.924733
11.91 -0.866695
11.92 -0.794131
11.93 -0.708521
11.94 -0.60898
11.95 -0.49862
11.96 -0.37766
11.97 -0.248623
11.98 -0.11344
11.99 0.0257916
12 0.166388
12.01 0.305728
12.02 0.441293
12.03 0.570283
12.04 0.689825
12.05 0.798342
12.06 0.891607
12.07 0.969829
12.08 1.02948
12.09 1.07035
12.1 1.09184
12.11 1.09226
12.12 1.07429
12.13 1.036
12.14 0.98125
12.15 0.910832
12.16 0.827265
12.17 0.733915
12.18 0.632768
12.19 0.527887
12.2 0.421954
12.21 0.318118
12.22 0.218833
12.23 0.126975
12.24 0.0433262
12.25 -0.0294843
12.26 -0.0921521
12.27 -0.144057
12.28 -0.18583
12.29 -0.219226
12.3 -0.244875
12.31 -0.265738
12.32 -0.283419
12.33 -0.300412
12.34 -0.318657
12.35 -0.340314
12.36 -0.366331
12.37 -0.39847
12.38 -0.436401
12.39 -0.480286
12.4 -0.529246
