# xPDFsuite Configuration #
[PDF]
wavelength = 0.1432
dataformat = twotheta
inputfile = 1_1Pd_CeO2_cycle-00301.chi
backgroundfile = background-00000.chi
mode = xray
bgscale = 1.007
composition = CeO2
outputtype = gr
qmaxinst = 28.8974762299
qmin = 0.5
qmax = 27.9
rmax = 50.0
rmin = 0.0
rstep = 0.01
rpoly = 1.8657

[Misc]
inputdir = G:/SankarDec16/1Pd/Chi
savedir = D:/DATA/APS_CeO2/1Pd
backgroundfilefull = G:/SankarDec16/Background/background-00000.chi

#### start data
#S 1
#L r($\AA$)  G($\AA^{-2}$)
0 0
0.01 -0.00621659
0.02 -0.0119653
0.03 -0.0167645
0.04 -0.0202511
0.05 -0.0222231
0.06 -0.0223556
0.07 -0.0208644
0.08 -0.0176446
0.09 -0.0131084
0.1 -0.00754085
0.11 -0.00137847
0.12 0.00490204
0.13 0.0107665
0.14 0.0158352
0.15 0.0196443
0.16 0.0219212
0.17 0.0225564
0.18 0.0213275
0.19 0.0185514
0.2 0.014239
0.21 0.00887078
0.22 0.00280116
0.23 -0.00347982
0.24 -0.00952301
0.25 -0.0147529
0.26 -0.0188959
0.27 -0.0215276
0.28 -0.0224787
0.29 -0.021738
0.3 -0.019196
0.31 -0.0152559
0.32 -0.0100445
0.33 -0.00408789
0.34 0.00220642
0.35 0.00831756
0.36 0.0138452
0.37 0.0181995
0.38 0.0212257
0.39 0.0225594
0.4 0.0221426
0.41 0.0200629
0.42 0.0163297
0.43 0.0114138
0.44 0.00555182
0.45 -0.000708293
0.46 -0.00692552
0.47 -0.0125721
0.48 -0.0173157
0.49 -0.0205799
0.5 -0.0223363
0.51 -0.022298
0.52 -0.0205215
0.53 -0.0171896
0.54 -0.0124305
0.55 -0.00676095
0.56 -0.000516624
0.57 0.00575822
0.58 0.0116098
0.59 0.016528
0.6 0.0202647
0.61 0.022284
0.62 0.0226858
0.63 0.0212746
0.64 0.0182193
0.65 0.0137899
0.66 0.00822798
0.67 0.00207219
0.68 -0.00425821
0.69 -0.0102479
0.7 -0.0154519
0.71 -0.0194014
0.72 -0.0219444
0.73 -0.0226108
0.74 -0.0216245
0.75 -0.0188902
0.76 -0.0146813
0.77 -0.00934183
0.78 -0.00321488
0.79 0.00316493
0.8 0.00931606
0.81 0.014777
0.82 0.0191339
0.83 0.0219829
0.84 0.0232755
0.85 0.0226318
0.86 0.0203872
0.87 0.0165517
0.88 0.0114883
0.89 0.00559545
0.9 -0.000702401
0.91 -0.00690544
0.92 -0.0125013
0.93 -0.0171115
0.94 -0.0203836
0.95 -0.0220112
0.96 -0.0220583
0.97 -0.0202769
0.98 -0.0170993
0.99 -0.0126598
1 -0.00740196
1.01 -0.00176368
1.02 0.0037521
1.03 0.00871909
1.04 0.0126069
1.05 0.0151586
1.06 0.0161117
1.07 0.0152929
1.08 0.0129085
1.09 0.00888936
1.1 0.00378699
1.11 -0.00209414
1.12 -0.0081946
1.13 -0.0140106
1.14 -0.0188936
1.15 -0.02249
1.16 -0.0241695
1.17 -0.0237892
1.18 -0.0211293
1.19 -0.0160957
1.2 -0.0090572
1.21 -1.83773e-05
1.22 0.0102775
1.23 0.0214031
1.24 0.0326468
1.25 0.0433861
1.26 0.0528064
1.27 0.0604964
1.28 0.0656556
1.29 0.0681021
1.3 0.0675219
1.31 0.0637131
1.32 0.0570731
1.33 0.0473967
1.34 0.0355332
1.35 0.0217768
1.36 0.00683925
1.37 -0.00862888
1.38 -0.0239176
1.39 -0.0384428
1.4 -0.0514766
1.41 -0.0626462
1.42 -0.0715399
1.43 -0.0777934
1.44 -0.0815592
1.45 -0.0824077
1.46 -0.0808927
1.47 -0.0769913
1.48 -0.0710863
1.49 -0.0635671
1.5 -0.0546763
1.51 -0.0449332
1.52 -0.0345887
1.53 -0.0240211
1.54 -0.0134798
1.55 -0.00321471
1.56 0.0066406
1.57 0.0158512
1.58 0.0244014
1.59 0.0321313
1.6 0.0389676
1.61 0.0448601
1.62 0.0495883
1.63 0.0531908
1.64 0.055374
1.65 0.056128
1.66 0.0552917
1.67 0.0526863
1.68 0.0484234
1.69 0.0421902
1.7 0.0343243
1.71 0.0247841
1.72 0.0138373
1.73 0.00180095
1.74 -0.0110324
1.75 -0.0241656
1.76 -0.0371524
1.77 -0.0495187
1.78 -0.0608185
1.79 -0.0705614
1.8 -0.0786095
1.81 -0.0844109
1.82 -0.0882032
1.83 -0.0898293
1.84 -0.0895453
1.85 -0.0877141
1.86 -0.0846567
1.87 -0.0810171
1.88 -0.0773202
1.89 -0.0741724
1.9 -0.0721071
1.91 -0.0716914
1.92 -0.073082
1.93 -0.0768352
1.94 -0.0826371
1.95 -0.0905423
1.96 -0.100136
1.97 -0.110893
1.98 -0.122207
1.99 -0.133301
2 -0.14328
2.01 -0.151394
2.02 -0.156856
2.03 -0.158794
2.04 -0.157063
2.05 -0.150573
2.06 -0.139826
2.07 -0.1244
2.08 -0.104621
2.09 -0.0809843
2.1 -0.0536237
2.11 -0.0235634
2.12 0.00890749
2.13 0.0429363
2.14 0.0780332
2.15 0.113721
2.16 0.149635
2.17 0.185588
2.18 0.221528
2.19 0.257538
2.2 0.293817
2.21 0.330581
2.22 0.368171
2.23 0.406669
2.24 0.446296
2.25 0.486866
2.26 0.528128
2.27 0.569511
2.28 0.610296
2.29 0.649182
2.3 0.685197
2.31 0.716658
2.32 0.74205
2.33 0.760232
2.34 0.768776
2.35 0.767754
2.36 0.754843
2.37 0.730498
2.38 0.694304
2.39 0.646188
2.4 0.588121
2.41 0.519939
2.42 0.444911
2.43 0.364515
2.44 0.281527
2.45 0.198427
2.46 0.118176
2.47 0.0427365
2.48 -0.0248887
2.49 -0.0835094
2.5 -0.131655
2.51 -0.16807
2.52 -0.193805
2.53 -0.207549
2.54 -0.212094
2.55 -0.208079
2.56 -0.197828
2.57 -0.183633
2.58 -0.167734
2.59 -0.152536
2.6 -0.140403
2.61 -0.132952
2.62 -0.131613
2.63 -0.137609
2.64 -0.150488
2.65 -0.17115
2.66 -0.19767
2.67 -0.229364
2.68 -0.264344
2.69 -0.300761
2.7 -0.336533
2.71 -0.36994
2.72 -0.398841
2.73 -0.422194
2.74 -0.43896
2.75 -0.448359
2.76 -0.451198
2.77 -0.447032
2.78 -0.437952
2.79 -0.424937
2.8 -0.409975
2.81 -0.394883
2.82 -0.381805
2.83 -0.372123
2.84 -0.367835
2.85 -0.369555
2.86 -0.377945
2.87 -0.393298
2.88 -0.414434
2.89 -0.44115
2.9 -0.471161
2.91 -0.502994
2.92 -0.534439
2.93 -0.563642
2.94 -0.588147
2.95 -0.606998
2.96 -0.618095
2.97 -0.621338
2.98 -0.616382
2.99 -0.603362
3 -0.583996
3.01 -0.558934
3.02 -0.530916
3.03 -0.501822
3.04 -0.474163
3.05 -0.449922
3.06 -0.431776
3.07 -0.420454
3.08 -0.418046
3.09 -0.424281
3.1 -0.439202
3.11 -0.462267
3.12 -0.491388
3.13 -0.525433
3.14 -0.561457
3.15 -0.59727
3.16 -0.630279
3.17 -0.658591
3.18 -0.679601
3.19 -0.693057
3.2 -0.697286
3.21 -0.693204
3.22 -0.681429
3.23 -0.663359
3.24 -0.641551
3.25 -0.618319
3.26 -0.596677
3.27 -0.579576
3.28 -0.569777
3.29 -0.569003
3.3 -0.580128
3.31 -0.602397
3.32 -0.637277
3.33 -0.682684
3.34 -0.737097
3.35 -0.797949
3.36 -0.861637
3.37 -0.924415
3.38 -0.982596
3.39 -1.03211
3.4 -1.06961
3.41 -1.09325
3.42 -1.09952
3.43 -1.09014
3.44 -1.06359
3.45 -1.0232
3.46 -0.971418
3.47 -0.912016
3.48 -0.849849
3.49 -0.790057
3.5 -0.737159
3.51 -0.6962
3.52 -0.670882
3.53 -0.662809
3.54 -0.675131
3.55 -0.704524
3.56 -0.750587
3.57 -0.807275
3.58 -0.868948
3.59 -0.927171
3.6 -0.974251
3.61 -0.997153
3.62 -0.989461
3.63 -0.938931
3.64 -0.837213
3.65 -0.680136
3.66 -0.455581
3.67 -0.169964
3.68 0.184655
3.69 0.598972
3.7 1.06823
3.71 1.58446
3.72 2.13209
3.73 2.70027
3.74 3.27028
3.75 3.82577
3.76 4.34857
3.77 4.82499
3.78 5.23209
3.79 5.56622
3.8 5.80602
3.81 5.95128
3.82 5.99583
3.83 5.9342
3.84 5.7797
3.85 5.52347
3.86 5.1892
3.87 4.78137
3.88 4.31668
3.89 3.81177
3.9 3.28039
3.91 2.74119
3.92 2.20934
3.93 1.69882
3.94 1.22152
3.95 0.789981
3.96 0.406132
3.97 0.0834391
3.98 -0.184869
3.99 -0.394425
4 -0.549626
4.01 -0.657403
4.02 -0.719501
4.03 -0.748876
4.04 -0.749457
4.05 -0.73192
4.06 -0.703036
4.07 -0.669896
4.08 -0.638142
4.09 -0.613158
4.1 -0.597078
4.11 -0.592387
4.12 -0.599287
4.13 -0.616543
4.14 -0.64338
4.15 -0.676208
4.16 -0.712747
4.17 -0.749445
4.18 -0.783415
4.19 -0.811418
4.2 -0.831949
4.21 -0.841696
4.22 -0.841045
4.23 -0.828565
4.24 -0.804608
4.25 -0.770286
4.26 -0.725574
4.27 -0.673093
4.28 -0.613356
4.29 -0.548523
4.3 -0.479818
4.31 -0.408436
4.32 -0.33555
4.33 -0.261746
4.34 -0.187632
4.35 -0.113446
4.36 -0.0393287
4.37 0.0346688
4.38 0.108441
4.39 0.181844
4.4 0.254449
4.41 0.325707
4.42 0.394792
4.43 0.460365
4.44 0.52158
4.45 0.57596
4.46 0.622853
4.47 0.659996
4.48 0.685946
4.49 0.700054
4.5 0.699804
4.51 0.686545
4.52 0.658423
4.53 0.617082
4.54 0.563134
4.55 0.497546
4.56 0.423156
4.57 0.340922
4.58 0.254311
4.59 0.165349
4.6 0.0767267
4.61 -0.00948469
4.62 -0.0906906
4.63 -0.165988
4.64 -0.233315
4.65 -0.292565
4.66 -0.343362
4.67 -0.385559
4.68 -0.420621
4.69 -0.44845
4.7 -0.471278
4.71 -0.489985
4.72 -0.506148
4.73 -0.521084
4.74 -0.535952
4.75 -0.551609
4.76 -0.568792
4.77 -0.587667
4.78 -0.608231
4.79 -0.630203
4.8 -0.652929
4.81 -0.675695
4.82 -0.697662
4.83 -0.717931
4.84 -0.735689
4.85 -0.750474
4.86 -0.761424
4.87 -0.768848
4.88 -0.772328
4.89 -0.772494
4.9 -0.769785
4.91 -0.764853
4.92 -0.758682
4.93 -0.752085
4.94 -0.746006
4.95 -0.741286
4.96 -0.738633
4.97 -0.738404
4.98 -0.741225
4.99 -0.746762
5 -0.755228
5.01 -0.766046
5.02 -0.778809
5.03 -0.792968
5.04 -0.807819
5.05 -0.82278
5.06 -0.837285
5.07 -0.850848
5.08 -0.863117
5.09 -0.873962
5.1 -0.883094
5.11 -0.890723
5.12 -0.896676
5.13 -0.901093
5.14 -0.903889
5.15 -0.904758
5.16 -0.903554
5.17 -0.89923
5.18 -0.891356
5.19 -0.878534
5.2 -0.859418
5.21 -0.832971
5.22 -0.796522
5.23 -0.749928
5.24 -0.690359
5.25 -0.617657
5.26 -0.530887
5.27 -0.429066
5.28 -0.314062
5.29 -0.18479
5.3 -0.044936
5.31 0.104064
5.32 0.258728
5.33 0.415465
5.34 0.569852
5.35 0.718056
5.36 0.854565
5.37 0.975762
5.38 1.07759
5.39 1.15512
5.4 1.20832
5.41 1.2308
5.42 1.22576
5.43 1.1908
5.44 1.1275
5.45 1.03914
5.46 0.926009
5.47 0.794904
5.48 0.647951
5.49 0.491299
5.5 0.329373
5.51 0.167294
5.52 0.00919876
5.53 -0.139583
5.54 -0.276876
5.55 -0.399036
5.56 -0.504261
5.57 -0.592456
5.58 -0.661303
5.59 -0.713896
5.6 -0.749351
5.61 -0.770818
5.62 -0.780039
5.63 -0.778925
5.64 -0.770624
5.65 -0.756363
5.66 -0.73882
5.67 -0.719164
5.68 -0.698569
5.69 -0.677619
5.7 -0.656431
5.71 -0.634782
5.72 -0.611993
5.73 -0.58732
5.74 -0.559895
5.75 -0.528617
5.76 -0.493252
5.77 -0.452606
5.78 -0.407305
5.79 -0.357247
5.8 -0.303287
5.81 -0.246647
5.82 -0.188701
5.83 -0.131304
5.84 -0.0765781
5.85 -0.0264232
5.86 0.0172516
5.87 0.0521269
5.88 0.077786
5.89 0.0914418
5.9 0.0941095
5.91 0.0847264
5.92 0.0638809
5.93 0.0329366
5.94 -0.00790262
5.95 -0.0558026
5.96 -0.109788
5.97 -0.167374
5.98 -0.226815
5.99 -0.286213
6 -0.344166
6.01 -0.399028
6.02 -0.450358
6.03 -0.497401
6.04 -0.540132
6.05 -0.57902
6.06 -0.614232
6.07 -0.646988
6.08 -0.677887
6.09 -0.707997
6.1 -0.738052
6.11 -0.768738
6.12 -0.800321
6.13 -0.833032
6.14 -0.866475
6.15 -0.900179
6.16 -0.933284
6.17 -0.964932
6.18 -0.993716
6.19 -1.01901
6.2 -1.03935
6.21 -1.05437
6.22 -1.06359
6.23 -1.06663
6.24 -1.06446
6.25 -1.05703
6.26 -1.04617
6.27 -1.03291
6.28 -1.01899
6.29 -1.00586
6.3 -0.995281
6.31 -0.987989
6.32 -0.985118
6.33 -0.986382
6.34 -0.991191
6.35 -0.998055
6.36 -1.00463
6.37 -1.00728
6.38 -1.00258
6.39 -0.9855
6.4 -0.950834
6.41 -0.894873
6.42 -0.80922
6.43 -0.693465
6.44 -0.539586
6.45 -0.347471
6.46 -0.115088
6.47 0.159897
6.48 0.471666
6.49 0.822775
6.5 1.20302
6.51 1.60846
6.52 2.03012
6.53 2.45877
6.54 2.88371
6.55 3.29531
6.56 3.68057
6.57 4.03053
6.58 4.33558
6.59 4.58362
6.6 4.77418
6.61 4.89154
6.62 4.94215
6.63 4.91923
6.64 4.82472
6.65 4.66524
6.66 4.43839
6.67 4.15969
6.68 3.83101
6.69 3.46601
6.7 3.0738
6.71 2.66469
6.72 2.24994
6.73 1.83996
6.74 1.44329
6.75 1.06893
6.76 0.723925
6.77 0.411479
6.78 0.139929
6.79 -0.0942224
6.8 -0.285511
6.81 -0.438048
6.82 -0.553323
6.83 -0.632737
6.84 -0.683572
6.85 -0.705969
6.86 -0.708314
6.87 -0.693413
6.88 -0.666229
6.89 -0.631077
6.9 -0.590969
6.91 -0.549345
6.92 -0.508393
6.93 -0.469813
6.94 -0.434666
6.95 -0.403824
6.96 -0.377023
6.97 -0.354847
6.98 -0.336422
6.99 -0.321737
7 -0.31042
7.01 -0.302091
7.02 -0.29705
7.03 -0.294948
7.04 -0.296435
7.05 -0.301652
7.06 -0.311085
7.07 -0.325527
7.08 -0.344859
7.09 -0.370282
7.1 -0.401151
7.11 -0.437852
7.12 -0.479968
7.13 -0.526658
7.14 -0.577513
7.15 -0.630917
7.16 -0.68585
7.17 -0.740713
7.18 -0.794135
7.19 -0.844443
7.2 -0.890794
7.21 -0.931301
7.22 -0.965926
7.23 -0.993718
7.24 -1.0146
7.25 -1.02914
7.26 -1.03716
7.27 -1.04033
7.28 -1.03912
7.29 -1.03511
7.3 -1.02943
7.31 -1.02331
7.32 -1.01773
7.33 -1.01366
7.34 -1.01135
7.35 -1.011
7.36 -1.01222
7.37 -1.01423
7.38 -1.01579
7.39 -1.01551
7.4 -1.01127
7.41 -1.00129
7.42 -0.983583
7.43 -0.955457
7.44 -0.916353
7.45 -0.862695
7.46 -0.795241
7.47 -0.712222
7.48 -0.613652
7.49 -0.500816
7.5 -0.373087
7.51 -0.234046
7.52 -0.0845061
7.53 0.0719748
7.54 0.23261
7.55 0.393917
7.56 0.55267
7.57 0.70449
7.58 0.846873
7.59 0.975953
7.6 1.08873
7.61 1.1839
7.62 1.2569
7.63 1.30937
7.64 1.33773
7.65 1.34347
7.66 1.32663
7.67 1.28688
7.68 1.22789
7.69 1.14854
7.7 1.0537
7.71 0.944601
7.72 0.824376
7.73 0.696328
7.74 0.562929
7.75 0.427824
7.76 0.293932
7.77 0.164211
7.78 0.0412605
7.79 -0.0717179
7.8 -0.173776
7.81 -0.260983
7.82 -0.333777
7.83 -0.389959
7.84 -0.428986
7.85 -0.451688
7.86 -0.456309
7.87 -0.446067
7.88 -0.420383
7.89 -0.382185
7.9 -0.333372
7.91 -0.276107
7.92 -0.213801
7.93 -0.148931
7.94 -0.0848556
7.95 -0.0245373
7.96 0.02897
7.97 0.0737152
7.98 0.106008
7.99 0.125856
8 0.130391
8.01 0.120053
8.02 0.0947162
8.03 0.0541882
8.04 0.00120123
8.05 -0.0643346
8.06 -0.13858
8.07 -0.21976
8.08 -0.304843
8.09 -0.391062
8.1 -0.475443
8.11 -0.555848
8.12 -0.629537
8.13 -0.695221
8.14 -0.751763
8.15 -0.797995
8.16 -0.835064
8.17 -0.862154
8.18 -0.881701
8.19 -0.894617
8.2 -0.902937
8.21 -0.908703
8.22 -0.913783
8.23 -0.919912
8.24 -0.928625
8.25 -0.940621
8.26 -0.956126
8.27 -0.9748
8.28 -0.995183
8.29 -1.01533
8.3 -1.0326
8.31 -1.0436
8.32 -1.04439
8.33 -1.03201
8.34 -1.00019
8.35 -0.947957
8.36 -0.869242
8.37 -0.763098
8.38 -0.627621
8.39 -0.460153
8.4 -0.264472
8.41 -0.0377331
8.42 0.213176
8.43 0.486175
8.44 0.775483
8.45 1.0746
8.46 1.37695
8.47 1.67505
8.48 1.96051
8.49 2.22634
8.5 2.46573
8.51 2.66983
8.52 2.83736
8.53 2.95734
8.54 3.03276
8.55 3.0585
8.56 3.03462
8.57 2.96516
8.58 2.84704
8.59 2.69058
8.6 2.49602
8.61 2.27218
8.62 2.02492
8.63 1.76052
8.64 1.48719
8.65 1.21113
8.66 0.939144
8.67 0.677174
8.68 0.430638
8.69 0.202353
8.7 -0.0016657
8.71 -0.182741
8.72 -0.336862
8.73 -0.465834
8.74 -0.570276
8.75 -0.650465
8.76 -0.711042
8.77 -0.751798
8.78 -0.778263
8.79 -0.792355
8.8 -0.797507
8.81 -0.796914
8.82 -0.792869
8.83 -0.788049
8.84 -0.784308
8.85 -0.783084
8.86 -0.785311
8.87 -0.791823
8.88 -0.802296
8.89 -0.817171
8.9 -0.835418
8.91 -0.856655
8.92 -0.880013
8.93 -0.904613
8.94 -0.929689
8.95 -0.95447
8.96 -0.978274
8.97 -1.00067
8.98 -1.02136
8.99 -1.04007
9 -1.057
9.01 -1.07199
9.02 -1.08551
9.03 -1.09769
9.04 -1.10883
9.05 -1.1192
9.06 -1.12888
9.07 -1.13801
9.08 -1.14642
9.09 -1.15392
9.1 -1.16012
9.11 -1.16433
9.12 -1.16615
9.13 -1.16432
9.14 -1.15843
9.15 -1.14735
9.16 -1.13019
9.17 -1.10665
9.18 -1.07518
9.19 -1.03647
9.2 -0.989425
9.21 -0.934734
9.22 -0.872745
9.23 -0.803808
9.24 -0.72962
9.25 -0.6508
9.26 -0.569521
9.27 -0.487321
9.28 -0.406288
9.29 -0.328142
9.3 -0.25553
9.31 -0.189483
9.32 -0.132571
9.33 -0.0856702
9.34 -0.049844
9.35 -0.0265889
9.36 -0.0147921
9.37 -0.0161411
9.38 -0.02836
9.39 -0.0512615
9.4 -0.0832786
9.41 -0.122302
9.42 -0.167052
9.43 -0.214749
9.44 -0.263573
9.45 -0.311286
9.46 -0.356109
9.47 -0.396013
9.48 -0.430335
9.49 -0.457128
9.5 -0.476848
9.51 -0.488919
9.52 -0.493775
9.53 -0.492551
9.54 -0.485683
9.55 -0.475249
9.56 -0.462382
9.57 -0.448932
9.58 -0.436374
9.59 -0.426405
9.6 -0.419887
9.61 -0.41848
9.62 -0.422197
9.63 -0.431708
9.64 -0.446941
9.65 -0.467204
9.66 -0.492424
9.67 -0.521073
9.68 -0.552523
9.69 -0.585438
9.7 -0.618825
9.71 -0.651628
9.72 -0.683178
9.73 -0.712617
9.74 -0.739861
9.75 -0.76465
9.76 -0.787099
9.77 -0.807586
9.78 -0.826227
9.79 -0.843578
9.8 -0.859675
9.81 -0.874558
9.82 -0.887876
9.83 -0.898628
9.84 -0.905926
9.85 -0.90718
9.86 -0.900787
9.87 -0.883445
9.88 -0.851667
9.89 -0.803201
9.9 -0.731591
9.91 -0.636621
9.92 -0.51198
9.93 -0.356717
9.94 -0.168849
9.95 0.0550213
9.96 0.310975
9.97 0.602887
9.98 0.923741
9.99 1.27192
10 1.64181
10.01 2.02633
10.02 2.41911
10.03 2.81122
10.04 3.19367
10.05 3.55776
10.06 3.89528
10.07 4.19514
10.08 4.4546
10.09 4.65989
10.1 4.8126
10.11 4.90549
10.12 4.93662
10.13 4.90979
10.14 4.81886
10.15 4.67589
10.16 4.47936
10.17 4.23933
10.18 3.96254
10.19 3.65564
10.2 3.32973
10.21 2.9914
10.22 2.65067
10.23 2.31499
10.24 1.99208
10.25 1.6866
10.26 1.40657
10.27 1.15187
10.28 0.927962
10.29 0.733754
10.3 0.568938
10.31 0.433799
10.32 0.322834
10.33 0.236393
10.34 0.167699
10.35 0.11415
10.36 0.0712984
10.37 0.0349008
10.38 0.00170342
10.39 -0.0317498
10.4 -0.0681271
10.41 -0.109262
10.42 -0.156326
10.43 -0.210383
10.44 -0.27064
10.45 -0.337463
10.46 -0.409013
10.47 -0.484304
10.48 -0.561608
10.49 -0.639261
10.5 -0.715357
10.51 -0.788563
10.52 -0.857029
10.53 -0.919767
10.54 -0.975872
10.55 -1.02411
10.56 -1.06498
10.57 -1.09708
10.58 -1.12157
10.59 -1.13813
10.6 -1.1472
10.61 -1.14969
10.62 -1.14532
10.63 -1.13558
10.64 -1.12039
10.65 -1.10067
10.66 -1.07692
10.67 -1.04942
10.68 -1.01901
10.69 -0.985741
10.7 -0.950433
10.71 -0.913404
10.72 -0.875212
10.73 -0.836431
10.74 -0.797668
10.75 -0.759543
10.76 -0.722845
10.77 -0.688243
10.78 -0.656419
10.79 -0.628376
10.8 -0.604324
10.81 -0.585604
10.82 -0.572106
10.83 -0.564606
10.84 -0.563428
10.85 -0.568286
10.86 -0.580013
10.87 -0.597476
10.88 -0.621031
10.89 -0.649758
10.9 -0.683047
10.91 -0.720341
10.92 -0.760395
10.93 -0.802596
10.94 -0.845686
10.95 -0.888761
10.96 -0.930759
10.97 -0.970921
10.98 -1.00803
10.99 -1.04182
11 -1.07129
11.01 -1.09627
11.02 -1.11654
11.03 -1.13171
11.04 -1.14247
11.05 -1.14846
11.06 -1.15076
11.07 -1.14972
11.08 -1.14616
11.09 -1.14102
11.1 -1.13508
11.11 -1.12928
11.12 -1.12446
11.13 -1.12126
11.14 -1.12014
11.15 -1.12152
11.16 -1.12509
11.17 -1.13078
11.18 -1.1376
11.19 -1.14456
11.2 -1.15008
11.21 -1.15263
11.22 -1.1494
11.23 -1.13896
11.24 -1.11792
11.25 -1.0843
11.26 -1.03589
11.27 -0.969176
11.28 -0.884486
11.29 -0.777359
11.3 -0.649654
11.31 -0.499783
11.32 -0.328288
11.33 -0.137804
11.34 0.0719507
11.35 0.295506
11.36 0.530855
11.37 0.772789
11.38 1.01686
11.39 1.25745
11.4 1.49009
11.41 1.70759
11.42 1.90662
11.43 2.08135
11.44 2.22717
11.45 2.34292
11.46 2.42132
11.47 2.46602
11.48 2.47225
11.49 2.44284
11.5 2.37923
11.51 2.28173
11.52 2.15709
11.53 2.00541
11.54 1.83447
11.55 1.64769
11.56 1.45047
11.57 1.24802
11.58 1.04507
11.59 0.845863
11.6 0.654791
11.61 0.474707
11.62 0.307862
11.63 0.157103
11.64 0.0214746
11.65 -0.0964064
11.66 -0.19917
11.67 -0.286837
11.68 -0.361025
11.69 -0.424333
11.7 -0.477562
11.71 -0.524158
11.72 -0.565405
11.73 -0.603596
11.74 -0.640217
11.75 -0.676541
11.76 -0.713355
11.77 -0.751164
11.78 -0.789787
11.79 -0.828813
11.8 -0.867315
11.81 -0.904275
11.82 -0.937843
11.83 -0.96697
11.84 -0.989405
11.85 -1.0038
11.86 -1.00873
11.87 -1.00191
11.88 -0.98358
11.89 -0.950912
11.9 -0.905039
11.91 -0.844881
11.92 -0.770548
11.93 -0.6835
11.94 -0.582936
11.95 -0.47197
11.96 -0.350961
11.97 -0.222512
11.98 -0.0886484
11.99 0.0483728
12 0.185907
12.01 0.321171
12.02 0.451802
12.03 0.575036
12.04 0.688178
12.05 0.789901
12.06 0.876254
12.07 0.94778
12.08 1.00134
12.09 1.03707
12.1 1.05466
12.11 1.05287
12.12 1.03435
12.13 0.99758
12.14 0.946192
12.15 0.881
12.16 0.804294
12.17 0.719038
12.18 0.626921
12.19 0.531412
12.2 0.434702
12.21 0.339388
12.22 0.247462
12.23 0.161213
12.24 0.0812992
12.25 0.00978772
12.26 -0.0538315
12.27 -0.109044
12.28 -0.156292
12.29 -0.196893
12.3 -0.231228
12.31 -0.261545
12.32 -0.288943
12.33 -0.315265
12.34 -0.341909
12.35 -0.370366
12.36 -0.401365
12.37 -0.436019
12.38 -0.474113
12.39 -0.51563
