# xPDFsuite Configuration #
[PDF]
wavelength = 0.1432
dataformat = twotheta
inputfile = 1_1Pd_CeO2_cycle-00386.chi
backgroundfile = background-00000.chi
mode = xray
bgscale = 1.007
composition = CeO2
outputtype = gr
qmaxinst = 28.8974762299
qmin = 0.5
qmax = 27.9
rmax = 50.0
rmin = 0.0
rstep = 0.01
rpoly = 1.8657

[Misc]
inputdir = G:/SankarDec16/1Pd/Chi
savedir = D:/DATA/APS_CeO2/1Pd
backgroundfilefull = G:/SankarDec16/Background/background-00000.chi

#### start data
#S 1
#L r($\AA$)  G($\AA^{-2}$)
0 0
0.01 -0.00493116
0.02 -0.00948999
0.03 -0.0132932
0.04 -0.0160522
0.05 -0.0176067
0.06 -0.017699
0.07 -0.0165016
0.08 -0.0139325
0.09 -0.0103206
0.1 -0.0058938
0.11 -0.00100064
0.12 0.00397988
0.13 0.00862165
0.14 0.0126245
0.15 0.01562
0.16 0.0173936
0.17 0.0178606
0.18 0.0168474
0.19 0.0146085
0.2 0.0111566
0.21 0.00687553
0.22 0.00204967
0.23 -0.00292962
0.24 -0.00770646
0.25 -0.011822
0.26 -0.015063
0.27 -0.0170943
0.28 -0.017786
0.29 -0.0171335
0.3 -0.0150559
0.31 -0.0118773
0.32 -0.00770459
0.33 -0.00295808
0.34 0.00203584
0.35 0.00686181
0.36 0.0112049
0.37 0.0145961
0.38 0.0169198
0.39 0.0178909
0.4 0.0174706
0.41 0.0157351
0.42 0.0127001
0.43 0.00874388
0.44 0.00406217
0.45 -0.000908803
0.46 -0.00581674
0.47 -0.0102426
0.48 -0.0139282
0.49 -0.016418
0.5 -0.0176995
0.51 -0.0175523
0.52 -0.0160308
0.53 -0.0132884
0.54 -0.00943752
0.55 -0.0048916
0.56 7.41353e-05
0.57 0.00502891
0.58 0.00961214
0.59 0.0134217
0.6 0.0162693
0.61 0.0177352
0.62 0.0179117
0.63 0.0166536
0.64 0.0141067
0.65 0.010494
0.66 0.00601949
0.67 0.00111143
0.68 -0.003889
0.69 -0.00857764
0.7 -0.0126037
0.71 -0.0156016
0.72 -0.0174627
0.73 -0.0178239
0.74 -0.0168771
0.75 -0.01456
0.76 -0.0111018
0.77 -0.00678347
0.78 -0.00188924
0.79 0.00315962
0.8 0.00797513
0.81 0.0122006
0.82 0.0155145
0.83 0.017608
0.84 0.0184576
0.85 0.0177784
0.86 0.0158508
0.87 0.0126991
0.88 0.00862323
0.89 0.00394524
0.9 -0.000987616
0.91 -0.00578815
0.92 -0.0100486
0.93 -0.0134859
0.94 -0.0158344
0.95 -0.0168717
0.96 -0.0166692
0.97 -0.0150593
0.98 -0.0124007
0.99 -0.00882604
1 -0.00470263
1.01 -0.000384759
1.02 0.0037108
1.03 0.00726292
1.04 0.00984453
1.05 0.0112783
1.06 0.0113739
1.07 0.0100219
1.08 0.00741828
1.09 0.00354683
1.1 -0.0011235
1.11 -0.00630955
1.12 -0.0115337
1.13 -0.0163731
1.14 -0.0202658
1.15 -0.022938
1.16 -0.023846
1.17 -0.0228906
1.18 -0.0198901
1.19 -0.0147689
1.2 -0.00785558
1.21 0.000856924
1.22 0.0107192
1.23 0.021373
1.24 0.0322051
1.25 0.0426747
1.26 0.0520785
1.27 0.0600379
1.28 0.0658404
1.29 0.0692871
1.3 0.0700582
1.31 0.067908
1.32 0.0631283
1.33 0.0554185
1.34 0.0454767
1.35 0.0334444
1.36 0.0198728
1.37 0.00529109
1.38 -0.00978931
1.39 -0.0247922
1.4 -0.0391518
1.41 -0.052436
1.42 -0.0642264
1.43 -0.0740973
1.44 -0.082015
1.45 -0.0874462
1.46 -0.090678
1.47 -0.0914798
1.48 -0.08998
1.49 -0.0863653
1.5 -0.0805777
1.51 -0.0730643
1.52 -0.063802
1.53 -0.0531781
1.54 -0.0413773
1.55 -0.0286338
1.56 -0.0152782
1.57 -0.00152907
1.58 0.0122575
1.59 0.0257692
1.6 0.0386483
1.61 0.0505954
1.62 0.0610983
1.63 0.0700056
1.64 0.0767354
1.65 0.0811708
1.66 0.0830123
1.67 0.0819676
1.68 0.0782468
1.69 0.0714041
1.7 0.062034
1.71 0.0501312
1.72 0.0361582
1.73 0.0206209
1.74 0.00397376
1.75 -0.013073
1.76 -0.0299054
1.77 -0.0459015
1.78 -0.0604962
1.79 -0.0730899
1.8 -0.0835425
1.81 -0.0912044
1.82 -0.0964084
1.83 -0.098994
1.84 -0.0992965
1.85 -0.0977622
1.86 -0.0947728
1.87 -0.0910756
1.88 -0.0872531
1.89 -0.0839765
1.9 -0.0818163
1.91 -0.0813627
1.92 -0.0827671
1.93 -0.0865735
1.94 -0.0924288
1.95 -0.100343
1.96 -0.109846
1.97 -0.120369
1.98 -0.131232
1.99 -0.141646
2 -0.150656
2.01 -0.157522
2.02 -0.161449
2.03 -0.161577
2.04 -0.157818
2.05 -0.1491
2.06 -0.136015
2.07 -0.118199
2.08 -0.0960556
2.09 -0.0701526
2.1 -0.0407187
2.11 -0.0088208
2.12 0.0251488
2.13 0.0603064
2.14 0.0961042
2.15 0.132002
2.16 0.167653
2.17 0.202761
2.18 0.237346
2.19 0.271438
2.2 0.305259
2.21 0.339065
2.22 0.373182
2.23 0.407808
2.24 0.443179
2.25 0.479237
2.26 0.515825
2.27 0.552508
2.28 0.588699
2.29 0.6233
2.3 0.655463
2.31 0.683719
2.32 0.706721
2.33 0.723438
2.34 0.731699
2.35 0.731524
2.36 0.720809
2.37 0.699903
2.38 0.668383
2.39 0.62611
2.4 0.574792
2.41 0.514166
2.42 0.447113
2.43 0.374842
2.44 0.299756
2.45 0.224019
2.46 0.150134
2.47 0.0798862
2.48 0.015819
2.49 -0.0409608
2.5 -0.0891602
2.51 -0.127661
2.52 -0.157273
2.53 -0.176836
2.54 -0.188626
2.55 -0.193107
2.56 -0.19215
2.57 -0.187609
2.58 -0.181229
2.59 -0.174982
2.6 -0.170674
2.61 -0.169601
2.62 -0.172841
2.63 -0.181274
2.64 -0.19454
2.65 -0.213159
2.66 -0.235657
2.67 -0.261369
2.68 -0.288792
2.69 -0.31651
2.7 -0.342839
2.71 -0.366624
2.72 -0.386236
2.73 -0.401106
2.74 -0.410624
2.75 -0.414462
2.76 -0.413496
2.77 -0.407763
2.78 -0.399065
2.79 -0.388489
2.8 -0.377763
2.81 -0.368362
2.82 -0.362171
2.83 -0.360014
2.84 -0.363496
2.85 -0.372736
2.86 -0.387991
2.87 -0.409105
2.88 -0.434743
2.89 -0.464244
2.9 -0.495467
2.91 -0.526791
2.92 -0.556158
2.93 -0.58196
2.94 -0.601901
2.95 -0.61549
2.96 -0.620916
2.97 -0.618504
2.98 -0.608247
2.99 -0.590657
3 -0.567616
3.01 -0.540151
3.02 -0.51093
3.03 -0.481971
3.04 -0.455691
3.05 -0.433899
3.06 -0.419168
3.07 -0.411872
3.08 -0.413893
3.09 -0.424634
3.1 -0.443881
3.11 -0.470812
3.12 -0.503204
3.13 -0.539646
3.14 -0.577233
3.15 -0.613666
3.16 -0.646403
3.17 -0.673664
3.18 -0.692892
3.19 -0.704069
3.2 -0.705625
3.21 -0.698679
3.22 -0.683988
3.23 -0.663088
3.24 -0.638619
3.25 -0.612998
3.26 -0.589232
3.27 -0.570301
3.28 -0.558936
3.29 -0.556816
3.3 -0.566798
3.31 -0.588069
3.32 -0.622097
3.33 -0.666791
3.34 -0.720663
3.35 -0.781222
3.36 -0.844915
3.37 -0.908167
3.38 -0.967334
3.39 -1.0185
3.4 -1.0584
3.41 -1.0852
3.42 -1.0955
3.43 -1.09084
3.44 -1.0697
3.45 -1.03514
3.46 -0.989368
3.47 -0.93584
3.48 -0.879098
3.49 -0.823771
3.5 -0.774136
3.51 -0.734774
3.52 -0.709098
3.53 -0.698592
3.54 -0.706027
3.55 -0.728397
3.56 -0.76515
3.57 -0.810718
3.58 -0.859806
3.59 -0.904508
3.6 -0.937791
3.61 -0.947382
3.62 -0.927532
3.63 -0.866829
3.64 -0.757628
3.65 -0.596189
3.66 -0.371297
3.67 -0.0891451
3.68 0.257556
3.69 0.659955
3.7 1.11348
3.71 1.61052
3.72 2.13648
3.73 2.68102
3.74 3.22664
3.75 3.75792
3.76 4.25782
3.77 4.71352
3.78 5.10339
3.79 5.42408
3.8 5.65541
3.81 5.79719
3.82 5.84354
3.83 5.7892
3.84 5.64668
3.85 5.40735
3.86 5.09353
3.87 4.70922
3.88 4.27003
3.89 3.79159
3.9 3.28659
3.91 2.77278
3.92 2.26423
3.93 1.77429
3.94 1.31422
3.95 0.895903
3.96 0.521448
3.97 0.203593
3.98 -0.0636718
3.99 -0.276052
4 -0.437416
4.01 -0.55406
4.02 -0.627365
4.03 -0.669386
4.04 -0.683576
4.05 -0.679905
4.06 -0.664633
4.07 -0.644316
4.08 -0.624331
4.09 -0.609562
4.1 -0.602179
4.11 -0.604441
4.12 -0.616573
4.13 -0.637473
4.14 -0.666308
4.15 -0.699842
4.16 -0.735793
4.17 -0.770893
4.18 -0.802395
4.19 -0.827192
4.2 -0.843982
4.21 -0.849505
4.22 -0.844328
4.23 -0.827095
4.24 -0.798278
4.25 -0.759093
4.26 -0.709653
4.27 -0.65269
4.28 -0.588908
4.29 -0.520597
4.3 -0.449155
4.31 -0.375995
4.32 -0.302334
4.33 -0.229079
4.34 -0.156745
4.35 -0.0857286
4.36 -0.0161284
4.37 0.0521384
4.38 0.118991
4.39 0.184645
4.4 0.248852
4.41 0.311456
4.42 0.371967
4.43 0.429471
4.44 0.483409
4.45 0.531834
4.46 0.574207
4.47 0.608617
4.48 0.633746
4.49 0.648901
4.5 0.651731
4.51 0.643174
4.52 0.621342
4.53 0.587412
4.54 0.541658
4.55 0.484612
4.56 0.418688
4.57 0.344351
4.58 0.26477
4.59 0.181587
4.6 0.0972612
4.61 0.0138097
4.62 -0.0663965
4.63 -0.142159
4.64 -0.211438
4.65 -0.273749
4.66 -0.328443
4.67 -0.375017
4.68 -0.414555
4.69 -0.446565
4.7 -0.472996
4.71 -0.494419
4.72 -0.512219
4.73 -0.527671
4.74 -0.541785
4.75 -0.555662
4.76 -0.570072
4.77 -0.585507
4.78 -0.602217
4.79 -0.62025
4.8 -0.639246
4.81 -0.658864
4.82 -0.678439
4.83 -0.697325
4.84 -0.714821
4.85 -0.730443
4.86 -0.743405
4.87 -0.753741
4.88 -0.760943
4.89 -0.765319
4.9 -0.767047
4.91 -0.766463
4.92 -0.764304
4.93 -0.76104
4.94 -0.757512
4.95 -0.75436
4.96 -0.752248
4.97 -0.751598
4.98 -0.753026
4.99 -0.756472
5 -0.762278
5.01 -0.770162
5.02 -0.779947
5.03 -0.791354
5.04 -0.803848
5.05 -0.817103
5.06 -0.830567
5.07 -0.843845
5.08 -0.856534
5.09 -0.868374
5.1 -0.878961
5.11 -0.888251
5.12 -0.895854
5.13 -0.901673
5.14 -0.905414
5.15 -0.906559
5.16 -0.904927
5.17 -0.899298
5.18 -0.889402
5.19 -0.873893
5.2 -0.851644
5.21 -0.821876
5.22 -0.782238
5.23 -0.732878
5.24 -0.671365
5.25 -0.597783
5.26 -0.511444
5.27 -0.411615
5.28 -0.30007
5.29 -0.175938
5.3 -0.0425317
5.31 0.0988365
5.32 0.245071
5.33 0.392992
5.34 0.538657
5.35 0.678675
5.36 0.808097
5.37 0.923658
5.38 1.02165
5.39 1.09754
5.4 1.15118
5.41 1.17654
5.42 1.17638
5.43 1.14823
5.44 1.09327
5.45 1.01431
5.46 0.911206
5.47 0.790203
5.48 0.652908
5.49 0.505035
5.5 0.350639
5.51 0.194465
5.52 0.040669
5.53 -0.105738
5.54 -0.242236
5.55 -0.365128
5.56 -0.472273
5.57 -0.563194
5.58 -0.635217
5.59 -0.690996
5.6 -0.729259
5.61 -0.752859
5.62 -0.763313
5.63 -0.762348
5.64 -0.753217
5.65 -0.737104
5.66 -0.717047
5.67 -0.694457
5.68 -0.670923
5.69 -0.647402
5.7 -0.624525
5.71 -0.602307
5.72 -0.580539
5.73 -0.558565
5.74 -0.535622
5.75 -0.510647
5.76 -0.483044
5.77 -0.451504
5.78 -0.416038
5.79 -0.376099
5.8 -0.331922
5.81 -0.284219
5.82 -0.233629
5.83 -0.181768
5.84 -0.130131
5.85 -0.0805708
5.86 -0.0348988
5.87 0.00458466
5.88 0.0369447
5.89 0.0592645
5.9 0.0717401
5.91 0.0727791
5.92 0.0622152
5.93 0.0407939
5.94 0.00789725
5.95 -0.0339409
5.96 -0.0844108
5.97 -0.141067
5.98 -0.202237
5.99 -0.265983
6 -0.330315
6.01 -0.393341
6.02 -0.453727
6.03 -0.510073
6.04 -0.561511
6.05 -0.607854
6.06 -0.648337
6.07 -0.683949
6.08 -0.714575
6.09 -0.741348
6.1 -0.765012
6.11 -0.786403
6.12 -0.806541
6.13 -0.826067
6.14 -0.845643
6.15 -0.865634
6.16 -0.886189
6.17 -0.907208
6.18 -0.928428
6.19 -0.949408
6.2 -0.969556
6.21 -0.988344
6.22 -1.00525
6.23 -1.01969
6.24 -1.03167
6.25 -1.04063
6.26 -1.04708
6.27 -1.05106
6.28 -1.05302
6.29 -1.0535
6.3 -1.05285
6.31 -1.05153
6.32 -1.0496
6.33 -1.04688
6.34 -1.0428
6.35 -1.03602
6.36 -1.02534
6.37 -1.00761
6.38 -0.981025
6.39 -0.941716
6.4 -0.886018
6.41 -0.811417
6.42 -0.711289
6.43 -0.585718
6.44 -0.428183
6.45 -0.238665
6.46 -0.0153994
6.47 0.243787
6.48 0.53425
6.49 0.858594
6.5 1.20849
6.51 1.58102
6.52 1.96887
6.53 2.36428
6.54 2.75839
6.55 3.1426
6.56 3.50564
6.57 3.83919
6.58 4.13436
6.59 4.3798
6.6 4.57429
6.61 4.70282
6.62 4.77027
6.63 4.76947
6.64 4.70114
6.65 4.57057
6.66 4.37428
6.67 4.12638
6.68 3.82757
6.69 3.49049
6.7 3.12344
6.71 2.73586
6.72 2.33904
6.73 1.94258
6.74 1.55567
6.75 1.1872
6.76 0.844686
6.77 0.531942
6.78 0.257573
6.79 0.01894
6.8 -0.178171
6.81 -0.337301
6.82 -0.459613
6.83 -0.546251
6.84 -0.604349
6.85 -0.634011
6.86 -0.643671
6.87 -0.636243
6.88 -0.61684
6.89 -0.589883
6.9 -0.558559
6.91 -0.52627
6.92 -0.495241
6.93 -0.466997
6.94 -0.442395
6.95 -0.421979
6.96 -0.405154
6.97 -0.391956
6.98 -0.381208
6.99 -0.372394
7 -0.364774
7.01 -0.357849
7.02 -0.351459
7.03 -0.345618
7.04 -0.340814
7.05 -0.337683
7.06 -0.337092
7.07 -0.340352
7.08 -0.348036
7.09 -0.362029
7.1 -0.382333
7.11 -0.410014
7.12 -0.445226
7.13 -0.487389
7.14 -0.53669
7.15 -0.591187
7.16 -0.65009
7.17 -0.711285
7.18 -0.772995
7.19 -0.833001
7.2 -0.889686
7.21 -0.940437
7.22 -0.984495
7.23 -1.02018
7.24 -1.04678
7.25 -1.06461
7.26 -1.07285
7.27 -1.07352
7.28 -1.06686
7.29 -1.05499
7.3 -1.0395
7.31 -1.02218
7.32 -1.00485
7.33 -0.989234
7.34 -0.976336
7.35 -0.967128
7.36 -0.961852
7.37 -0.960009
7.38 -0.961022
7.39 -0.963131
7.4 -0.964471
7.41 -0.962691
7.42 -0.955374
7.43 -0.939256
7.44 -0.912955
7.45 -0.872168
7.46 -0.816899
7.47 -0.744655
7.48 -0.654839
7.49 -0.54846
7.5 -0.424305
7.51 -0.286286
7.52 -0.135024
7.53 0.0254003
7.54 0.191784
7.55 0.360101
7.56 0.526397
7.57 0.685624
7.58 0.834652
7.59 0.969009
7.6 1.08524
7.61 1.18187
7.62 1.25399
7.63 1.30362
7.64 1.32724
7.65 1.3269
7.66 1.30322
7.67 1.25654
7.68 1.19119
7.69 1.10693
7.7 1.00908
7.71 0.899521
7.72 0.781756
7.73 0.65908
7.74 0.5343
7.75 0.410381
7.76 0.290095
7.77 0.175555
7.78 0.0686401
7.79 -0.0283852
7.8 -0.115401
7.81 -0.189645
7.82 -0.252113
7.83 -0.301486
7.84 -0.337751
7.85 -0.36178
7.86 -0.372417
7.87 -0.37207
7.88 -0.360212
7.89 -0.338816
7.9 -0.30903
7.91 -0.272077
7.92 -0.230287
7.93 -0.184987
7.94 -0.138653
7.95 -0.0932285
7.96 -0.0509852
7.97 -0.0135893
7.98 0.01614
7.99 0.0376272
8 0.0483564
8.01 0.0480095
8.02 0.0359141
8.03 0.0111942
8.04 -0.0245088
8.05 -0.0721206
8.06 -0.128849
8.07 -0.193833
8.08 -0.264903
8.09 -0.339759
8.1 -0.416316
8.11 -0.492209
8.12 -0.565177
8.13 -0.633492
8.14 -0.695714
8.15 -0.750276
8.16 -0.79745
8.17 -0.835893
8.18 -0.867106
8.19 -0.89129
8.2 -0.909721
8.21 -0.923957
8.22 -0.935109
8.23 -0.94493
8.24 -0.954497
8.25 -0.964732
8.26 -0.976021
8.27 -0.988257
8.28 -1.00064
8.29 -1.01161
8.3 -1.01928
8.31 -1.02088
8.32 -1.01313
8.33 -0.993554
8.34 -0.956633
8.35 -0.901502
8.36 -0.822646
8.37 -0.719072
8.38 -0.588901
8.39 -0.429492
8.4 -0.244095
8.41 -0.0298216
8.42 0.207178
8.43 0.465217
8.44 0.73913
8.45 1.02297
8.46 1.31082
8.47 1.59562
8.48 1.86963
8.49 2.12619
8.5 2.35881
8.51 2.55906
8.52 2.72552
8.53 2.84771
8.54 2.92815
8.55 2.96182
8.56 2.94852
8.57 2.89184
8.58 2.78859
8.59 2.64839
8.6 2.47118
8.61 2.26516
8.62 2.03574
8.63 1.78863
8.64 1.53163
8.65 1.27029
8.66 1.01121
8.67 0.759868
8.68 0.521418
8.69 0.298666
8.7 0.0971988
8.71 -0.0838831
8.72 -0.240775
8.73 -0.374866
8.74 -0.486514
8.75 -0.575709
8.76 -0.646512
8.77 -0.698393
8.78 -0.736286
8.79 -0.761677
8.8 -0.777519
8.81 -0.786688
8.82 -0.790986
8.83 -0.793057
8.84 -0.794425
8.85 -0.796607
8.86 -0.800585
8.87 -0.807261
8.88 -0.816696
8.89 -0.829467
8.9 -0.845026
8.91 -0.863292
8.92 -0.883789
8.93 -0.905923
8.94 -0.929295
8.95 -0.953223
8.96 -0.977252
8.97 -1.0009
8.98 -1.0238
8.99 -1.04555
9 -1.06605
9.01 -1.08487
9.02 -1.1021
9.03 -1.1175
9.04 -1.131
9.05 -1.14263
9.06 -1.15205
9.07 -1.15945
9.08 -1.1644
9.09 -1.16688
9.1 -1.16666
9.11 -1.16324
9.12 -1.1567
9.13 -1.14613
9.14 -1.13168
9.15 -1.11271
9.16 -1.08887
9.17 -1.0602
9.18 -1.0258
9.19 -0.986321
9.2 -0.941122
9.21 -0.890739
9.22 -0.835431
9.23 -0.775426
9.24 -0.711839
9.25 -0.645032
9.26 -0.576438
9.27 -0.507061
9.28 -0.438312
9.29 -0.371401
9.3 -0.308205
9.31 -0.249559
9.32 -0.197417
9.33 -0.152601
9.34 -0.116092
9.35 -0.0892858
9.36 -0.0715756
9.37 -0.0646436
9.38 -0.0669652
9.39 -0.0787472
9.4 -0.0990607
9.41 -0.126375
9.42 -0.160079
9.43 -0.197816
9.44 -0.238375
9.45 -0.279779
9.46 -0.320483
9.47 -0.358719
9.48 -0.393542
9.49 -0.423196
9.5 -0.447577
9.51 -0.465902
9.52 -0.478136
9.53 -0.484923
9.54 -0.486226
9.55 -0.483652
9.56 -0.477846
9.57 -0.470323
9.58 -0.462283
9.59 -0.455114
9.6 -0.44978
9.61 -0.447687
9.62 -0.449192
9.63 -0.455039
9.64 -0.465453
9.65 -0.480094
9.66 -0.499184
9.67 -0.521604
9.68 -0.547064
9.69 -0.574539
9.7 -0.603277
9.71 -0.632486
9.72 -0.661491
9.73 -0.689644
9.74 -0.716666
9.75 -0.742261
9.76 -0.766349
9.77 -0.789052
9.78 -0.810263
9.79 -0.830226
9.8 -0.848702
9.81 -0.86548
9.82 -0.880013
9.83 -0.891081
9.84 -0.897813
9.85 -0.897464
9.86 -0.888627
9.87 -0.868089
9.88 -0.832609
9.89 -0.780228
9.9 -0.704861
9.91 -0.606635
9.92 -0.479716
9.93 -0.323505
9.94 -0.136367
9.95 0.0846288
9.96 0.33557
9.97 0.619807
9.98 0.930606
9.99 1.26625
10 1.62131
10.01 1.98917
10.02 2.36368
10.03 2.73668
10.04 3.09971
10.05 3.44485
10.06 3.7646
10.07 4.04881
10.08 4.29517
10.09 4.49109
10.1 4.63832
10.11 4.73032
10.12 4.7655
10.13 4.74746
10.14 4.67068
10.15 4.54621
10.16 4.37265
10.17 4.15908
10.18 3.9115
10.19 3.63568
10.2 3.34158
10.21 3.03469
10.22 2.72395
10.23 2.41569
10.24 2.11658
10.25 1.83075
10.26 1.56489
10.27 1.31922
10.28 1.09832
10.29 0.901546
10.3 0.728828
10.31 0.580677
10.32 0.452811
10.33 0.345953
10.34 0.254793
10.35 0.177649
10.36 0.111297
10.37 0.0524733
10.38 -0.000780807
10.39 -0.0514266
10.4 -0.101081
10.41 -0.151346
10.42 -0.203179
10.43 -0.257371
10.44 -0.313867
10.45 -0.372928
10.46 -0.433864
10.47 -0.496259
10.48 -0.559351
10.49 -0.622401
10.5 -0.684494
10.51 -0.745025
10.52 -0.803055
10.53 -0.858055
10.54 -0.90948
10.55 -0.956511
10.56 -0.999225
10.57 -1.03649
10.58 -1.06861
10.59 -1.09494
10.6 -1.11517
10.61 -1.12948
10.62 -1.13683
10.63 -1.13805
10.64 -1.13234
10.65 -1.12018
10.66 -1.10174
10.67 -1.07697
10.68 -1.04698
10.69 -1.01165
10.7 -0.972442
10.71 -0.929988
10.72 -0.885452
10.73 -0.840017
10.74 -0.794955
10.75 -0.75139
10.76 -0.710733
10.77 -0.67396
10.78 -0.641979
10.79 -0.616021
10.8 -0.59597
10.81 -0.583201
10.82 -0.57697
10.83 -0.577654
10.84 -0.584938
10.85 -0.597951
10.86 -0.616767
10.87 -0.639852
10.88 -0.666884
10.89 -0.696706
10.9 -0.728518
10.91 -0.761551
10.92 -0.794995
10.93 -0.82821
10.94 -0.860691
10.95 -0.891989
10.96 -0.921771
10.97 -0.949948
10.98 -0.976152
10.99 -1.0006
11 -1.02306
11.01 -1.04368
11.02 -1.06249
11.03 -1.07941
11.04 -1.09469
11.05 -1.10811
11.06 -1.11995
11.07 -1.13014
11.08 -1.13876
11.09 -1.14601
11.1 -1.15182
11.11 -1.15653
11.12 -1.16014
11.13 -1.16286
11.14 -1.16481
11.15 -1.16598
11.16 -1.1664
11.17 -1.16573
11.18 -1.16375
11.19 -1.15978
11.2 -1.15296
11.21 -1.14251
11.22 -1.12644
11.23 -1.10407
11.24 -1.07285
11.25 -1.03142
11.26 -0.978062
11.27 -0.909884
11.28 -0.827021
11.29 -0.725567
11.3 -0.606755
11.31 -0.468893
11.32 -0.311998
11.33 -0.137979
11.34 0.0539873
11.35 0.259346
11.36 0.476832
11.37 0.702002
11.38 0.931046
11.39 1.15913
11.4 1.38195
11.41 1.5931
11.42 1.78902
11.43 1.96415
11.44 2.11375
11.45 2.23622
11.46 2.3243
11.47 2.38079
11.48 2.40068
11.49 2.38608
11.5 2.33794
11.51 2.25598
11.52 2.1465
11.53 2.00903
11.54 1.85111
11.55 1.67576
11.56 1.48819
11.57 1.29362
11.58 1.09647
11.59 0.901326
11.6 0.712479
11.61 0.533067
11.62 0.365541
11.63 0.212919
11.64 0.0746091
11.65 -0.0466119
11.66 -0.15304
11.67 -0.244486
11.68 -0.322336
11.69 -0.389025
11.7 -0.445137
11.71 -0.494074
11.72 -0.536973
11.73 -0.576125
11.74 -0.613017
11.75 -0.648914
11.76 -0.684747
11.77 -0.721048
11.78 -0.757836
11.79 -0.794835
11.8 -0.831309
11.81 -0.866416
11.82 -0.898554
11.83 -0.926801
11.84 -0.949159
11.85 -0.964401
11.86 -0.971209
11.87 -0.967489
11.88 -0.953379
11.89 -0.926219
11.9 -0.886931
11.91 -0.834389
11.92 -0.768524
11.93 -0.69054
11.94 -0.599423
11.95 -0.497952
11.96 -0.386175
11.97 -0.266375
11.98 -0.140295
11.99 -0.00980936
12 0.12252
12.01 0.254337
12.02 0.383202
12.03 0.50652
12.04 0.621595
12.05 0.726897
12.06 0.818535
12.07 0.896605
12.08 0.957846
12.09 1.00201
12.1 1.02847
12.11 1.03562
12.12 1.02582
12.13 0.997177
12.14 0.953116
12.15 0.894199
12.16 0.822543
12.17 0.741119
12.18 0.651414
12.19 0.557138
12.2 0.460442
12.21 0.364158
12.22 0.270459
12.23 0.181823
12.24 0.0991872
12.25 0.0248218
12.26 -0.0415493
12.27 -0.0992208
12.28 -0.148461
12.29 -0.190512
12.3 -0.225593
12.31 -0.25602
12.32 -0.28283
12.33 -0.307962
12.34 -0.332893
12.35 -0.359203
12.36 -0.387784
12.37 -0.419859
12.38 -0.45537
