# xPDFsuite Configuration #
[PDF]
wavelength = 0.1432
dataformat = twotheta
inputfile = 1_1Pd_CeO2_cycle-00322.chi
backgroundfile = background-00000.chi
mode = xray
bgscale = 1.007
composition = CeO2
outputtype = gr
qmaxinst = 28.8974762299
qmin = 0.5
qmax = 27.9
rmax = 50.0
rmin = 0.0
rstep = 0.01
rpoly = 1.8657

[Misc]
inputdir = G:/SankarDec16/1Pd/Chi
savedir = D:/DATA/APS_CeO2/1Pd
backgroundfilefull = G:/SankarDec16/Background/background-00000.chi

#### start data
#S 1
#L r($\AA$)  G($\AA^{-2}$)
0 0
0.01 -0.00646928
0.02 -0.0124511
0.03 -0.0174436
0.04 -0.0210688
0.05 -0.0231163
0.06 -0.023248
0.07 -0.0216892
0.08 -0.0183313
0.09 -0.0136041
0.1 -0.00780508
0.11 -0.00138968
0.12 0.00514561
0.13 0.0112437
0.14 0.0165099
0.15 0.020461
0.16 0.0228143
0.17 0.0234568
0.18 0.0221582
0.19 0.0192498
0.2 0.0147449
0.21 0.00914486
0.22 0.00282014
0.23 -0.00371789
0.24 -0.0100018
0.25 -0.0154314
0.26 -0.0197235
0.27 -0.022437
0.28 -0.0233975
0.29 -0.0225953
0.3 -0.0199191
0.31 -0.0157908
0.32 -0.0103451
0.33 -0.00413143
0.34 0.00242457
0.35 0.00877936
0.36 0.0145172
0.37 0.0190231
0.38 0.0221392
0.39 0.0234876
0.4 0.0230112
0.41 0.0208042
0.42 0.0168799
0.43 0.0117312
0.44 0.00560806
0.45 -0.000917909
0.46 -0.00738606
0.47 -0.0132463
0.48 -0.0181546
0.49 -0.0215111
0.5 -0.0232907
0.51 -0.0231973
0.52 -0.0212942
0.53 -0.0177756
0.54 -0.0127798
0.55 -0.00684716
0.56 -0.000331405
0.57 0.0062004
0.58 0.0122749
0.59 0.0173612
0.6 0.0212043
0.61 0.0232478
0.62 0.0236016
0.63 0.0220661
0.64 0.0188228
0.65 0.0141569
0.66 0.00832612
0.67 0.0018928
0.68 -0.00470171
0.69 -0.0109217
0.7 -0.0163037
0.71 -0.0203611
0.72 -0.0229403
0.73 -0.0235549
0.74 -0.0224446
0.75 -0.0195157
0.76 -0.0150592
0.77 -0.00943787
0.78 -0.00301549
0.79 0.00365042
0.8 0.0100536
0.81 0.0157152
0.82 0.0202049
0.83 0.023104
0.84 0.0243676
0.85 0.0236026
0.86 0.0211651
0.87 0.0170701
0.88 0.0117002
0.89 0.00547353
0.9 -0.00116446
0.91 -0.00769383
0.92 -0.0135802
0.93 -0.0184327
0.94 -0.021887
0.95 -0.0236279
0.96 -0.0237258
0.97 -0.0219269
0.98 -0.0186827
0.99 -0.0141342
1 -0.00874109
1.01 -0.00295474
1.02 0.00270953
1.03 0.00781716
1.04 0.0118322
1.05 0.0145006
1.06 0.0155664
1.07 0.0148704
1.08 0.0126339
1.09 0.00881693
1.1 0.00398571
1.11 -0.00152612
1.12 -0.0071412
1.13 -0.0123474
1.14 -0.016476
1.15 -0.0191956
1.16 -0.0198751
1.17 -0.0184111
1.18 -0.0146187
1.19 -0.00845756
1.2 -0.000349163
1.21 0.00961577
1.22 0.0206472
1.23 0.0322312
1.24 0.0435964
1.25 0.054083
1.26 0.0627898
1.27 0.0693413
1.28 0.0728723
1.29 0.0732631
1.3 0.0702236
1.31 0.0636047
1.32 0.0539104
1.33 0.0410063
1.34 0.0258779
1.35 0.00893441
1.36 -0.00898147
1.37 -0.0271162
1.38 -0.0445979
1.39 -0.0608101
1.4 -0.0748702
1.41 -0.0864081
1.42 -0.0949663
1.43 -0.100155
1.44 -0.102227
1.45 -0.10071
1.46 -0.0963423
1.47 -0.0891606
1.48 -0.0796969
1.49 -0.0684798
1.5 -0.0559043
1.51 -0.0426256
1.52 -0.0290633
1.53 -0.0156967
1.54 -0.00288665
1.55 0.00900737
1.56 0.0198687
1.57 0.0293296
1.58 0.037499
1.59 0.044198
1.6 0.0494526
1.61 0.0533273
1.62 0.0556965
1.63 0.0567748
1.64 0.0564062
1.65 0.0547414
1.66 0.051763
1.67 0.0474524
1.68 0.0419812
1.69 0.035226
1.7 0.0274796
1.71 0.0187859
1.72 0.00937594
1.73 -0.000508547
1.74 -0.0106097
1.75 -0.0206193
1.76 -0.0301964
1.77 -0.0390694
1.78 -0.046964
1.79 -0.0536019
1.8 -0.0589782
1.81 -0.0628086
1.82 -0.0653673
1.83 -0.066676
1.84 -0.0670379
1.85 -0.0667973
1.86 -0.0663464
1.87 -0.0661254
1.88 -0.0666376
1.89 -0.0682423
1.9 -0.0712924
1.91 -0.0761083
1.92 -0.0826112
1.93 -0.0910432
1.94 -0.100912
1.95 -0.111994
1.96 -0.123698
1.97 -0.135413
1.98 -0.14631
1.99 -0.155767
2 -0.162768
2.01 -0.166796
2.02 -0.167194
2.03 -0.163303
2.04 -0.155293
2.05 -0.142343
2.06 -0.125291
2.07 -0.104037
2.08 -0.0792114
2.09 -0.0515157
2.1 -0.0214296
2.11 0.0100555
2.12 0.0423905
2.13 0.074863
2.14 0.10702
2.15 0.1385
2.16 0.16926
2.17 0.199262
2.18 0.22888
2.19 0.258489
2.2 0.288651
2.21 0.319861
2.22 0.352842
2.23 0.387771
2.24 0.425184
2.25 0.464864
2.26 0.506597
2.27 0.549782
2.28 0.593426
2.29 0.63616
2.3 0.676596
2.31 0.712801
2.32 0.742902
2.33 0.765467
2.34 0.777695
2.35 0.779516
2.36 0.768291
2.37 0.744461
2.38 0.707552
2.39 0.6575
2.4 0.596519
2.41 0.524511
2.42 0.445142
2.43 0.360142
2.44 0.272645
2.45 0.185425
2.46 0.101828
2.47 0.0239596
2.48 -0.0448492
2.49 -0.1034
2.5 -0.150165
2.51 -0.183907
2.52 -0.205943
2.53 -0.215051
2.54 -0.214452
2.55 -0.205076
2.56 -0.189646
2.57 -0.170783
2.58 -0.151173
2.59 -0.133371
2.6 -0.120126
2.61 -0.113064
2.62 -0.113683
2.63 -0.123193
2.64 -0.140833
2.65 -0.167417
2.66 -0.200511
2.67 -0.239103
2.68 -0.28083
2.69 -0.323451
2.7 -0.36435
2.71 -0.401606
2.72 -0.4326
2.73 -0.456243
2.74 -0.471376
2.75 -0.477184
2.76 -0.47481
2.77 -0.463833
2.78 -0.446936
2.79 -0.425431
2.8 -0.401848
2.81 -0.378468
2.82 -0.358034
2.83 -0.342229
2.84 -0.333616
2.85 -0.332938
2.86 -0.341059
2.87 -0.358394
2.88 -0.383451
2.89 -0.416105
2.9 -0.453445
2.91 -0.493709
2.92 -0.534124
2.93 -0.572326
2.94 -0.605252
2.95 -0.631545
2.96 -0.648503
2.97 -0.655799
2.98 -0.652822
2.99 -0.639499
3 -0.617802
3.01 -0.588217
3.02 -0.554089
3.03 -0.517532
3.04 -0.481607
3.05 -0.448817
3.06 -0.42243
3.07 -0.403639
3.08 -0.395149
3.09 -0.396985
3.1 -0.409506
3.11 -0.43244
3.12 -0.463497
3.13 -0.501772
3.14 -0.543749
3.15 -0.587037
3.16 -0.62851
3.17 -0.665749
3.18 -0.695554
3.19 -0.717156
3.2 -0.728233
3.21 -0.729334
3.22 -0.720698
3.23 -0.703368
3.24 -0.680049
3.25 -0.652717
3.26 -0.624941
3.27 -0.599798
3.28 -0.580558
3.29 -0.569484
3.3 -0.570016
3.31 -0.582009
3.32 -0.607601
3.33 -0.645187
3.34 -0.693721
3.35 -0.75112
3.36 -0.813743
3.37 -0.878358
3.38 -0.940803
3.39 -0.997038
3.4 -1.0433
3.41 -1.07726
3.42 -1.09497
3.43 -1.09745
3.44 -1.08261
3.45 -1.05317
3.46 -1.01104
3.47 -0.959418
3.48 -0.903016
3.49 -0.846337
3.5 -0.794165
3.51 -0.751336
3.52 -0.721773
3.53 -0.707434
3.54 -0.711661
3.55 -0.731797
3.56 -0.767818
3.57 -0.814297
3.58 -0.86608
3.59 -0.915293
3.6 -0.954534
3.61 -0.971364
3.62 -0.959355
3.63 -0.906555
3.64 -0.804591
3.65 -0.649117
3.66 -0.428007
3.67 -0.147174
3.68 0.20151
3.69 0.609247
3.7 1.07166
3.71 1.58123
3.72 2.12272
3.73 2.68576
3.74 3.25177
3.75 3.8047
3.76 4.32648
3.77 4.80338
3.78 5.21258
3.79 5.55009
3.8 5.79449
3.81 5.94521
3.82 5.9958
3.83 5.94049
3.84 5.79226
3.85 5.54188
3.86 5.21282
3.87 4.80928
3.88 4.34777
3.89 3.84489
3.9 3.31416
3.91 2.77443
3.92 2.24077
3.93 1.72737
3.94 1.24627
3.95 0.810168
3.96 0.421263
3.97 0.09319
3.98 -0.18056
3.99 -0.395422
4 -0.555598
4.01 -0.667889
4.02 -0.733845
4.03 -0.766425
4.04 -0.769411
4.05 -0.75353
4.06 -0.725548
4.07 -0.692565
4.08 -0.660353
4.09 -0.63428
4.1 -0.616652
4.11 -0.61
4.12 -0.614629
4.13 -0.629393
4.14 -0.653581
4.15 -0.683687
4.16 -0.717479
4.17 -0.751458
4.18 -0.782777
4.19 -0.808237
4.2 -0.826352
4.21 -0.833864
4.22 -0.831166
4.23 -0.816873
4.24 -0.791373
4.25 -0.755796
4.26 -0.710196
4.27 -0.657182
4.28 -0.59735
4.29 -0.532852
4.3 -0.464938
4.31 -0.394827
4.32 -0.323634
4.33 -0.251978
4.34 -0.180353
4.35 -0.108957
4.36 -0.0378236
4.37 0.0331035
4.38 0.103849
4.39 0.174389
4.4 0.244457
4.41 0.313609
4.42 0.38114
4.43 0.445842
4.44 0.506864
4.45 0.56189
4.46 0.610152
4.47 0.649414
4.48 0.678136
4.49 0.695532
4.5 0.698979
4.51 0.689601
4.52 0.665364
4.53 0.627694
4.54 0.577005
4.55 0.514026
4.56 0.44151
4.57 0.360133
4.58 0.273412
4.59 0.183248
4.6 0.0923656
4.61 0.00295204
4.62 -0.0823652
4.63 -0.162396
4.64 -0.234927
4.65 -0.299551
4.66 -0.355639
4.67 -0.402729
4.68 -0.442088
4.69 -0.473243
4.7 -0.49836
4.71 -0.518086
4.72 -0.533931
4.73 -0.547263
4.74 -0.559156
4.75 -0.57077
4.76 -0.582906
4.77 -0.596076
4.78 -0.610542
4.79 -0.626366
4.8 -0.6432
4.81 -0.660742
4.82 -0.678357
4.83 -0.695464
4.84 -0.711433
4.85 -0.725841
4.86 -0.738031
4.87 -0.74805
4.88 -0.755518
4.89 -0.760728
4.9 -0.763874
4.91 -0.765276
4.92 -0.76554
4.93 -0.765066
4.94 -0.764476
4.95 -0.764225
4.96 -0.764737
4.97 -0.766236
4.98 -0.769025
4.99 -0.772968
5 -0.778132
5.01 -0.784236
5.02 -0.791074
5.03 -0.798391
5.04 -0.805913
5.05 -0.81344
5.06 -0.820842
5.07 -0.828061
5.08 -0.835138
5.09 -0.842175
5.1 -0.849325
5.11 -0.856699
5.12 -0.864401
5.13 -0.872352
5.14 -0.880341
5.15 -0.887859
5.16 -0.894305
5.17 -0.898341
5.18 -0.898997
5.19 -0.894443
5.2 -0.882852
5.21 -0.862848
5.22 -0.831222
5.23 -0.787785
5.24 -0.729298
5.25 -0.655693
5.26 -0.566038
5.27 -0.459413
5.28 -0.338111
5.29 -0.201175
5.3 -0.052883
5.31 0.104954
5.32 0.268338
5.33 0.433254
5.34 0.594715
5.35 0.748669
5.36 0.889109
5.37 1.01234
5.38 1.11416
5.39 1.18957
5.4 1.23884
5.41 1.25552
5.42 1.24339
5.43 1.2003
5.44 1.12834
5.45 1.03123
5.46 0.909796
5.47 0.771213
5.48 0.618141
5.49 0.456977
5.5 0.292414
5.51 0.129841
5.52 -0.0267831
5.53 -0.171865
5.54 -0.303705
5.55 -0.418766
5.56 -0.515648
5.57 -0.594696
5.58 -0.654017
5.59 -0.697206
5.6 -0.723888
5.61 -0.737623
5.62 -0.740531
5.63 -0.734945
5.64 -0.724026
5.65 -0.709452
5.66 -0.693604
5.67 -0.677732
5.68 -0.662769
5.69 -0.648948
5.7 -0.636152
5.71 -0.623592
5.72 -0.610205
5.73 -0.594732
5.74 -0.575874
5.75 -0.55203
5.76 -0.522758
5.77 -0.486313
5.78 -0.443392
5.79 -0.393649
5.8 -0.337989
5.81 -0.277851
5.82 -0.214644
5.83 -0.150754
5.84 -0.0885411
5.85 -0.0304342
5.86 0.0212316
5.87 0.0636227
5.88 0.0959755
5.89 0.114921
5.9 0.121346
5.91 0.113832
5.92 0.092856
5.93 0.0598651
5.94 0.0149335
5.95 -0.0386408
5.96 -0.0997773
5.97 -0.165477
5.98 -0.233591
5.99 -0.301713
6 -0.36799
6.01 -0.430171
6.02 -0.487524
6.03 -0.538833
6.04 -0.58381
6.05 -0.622883
6.06 -0.655918
6.07 -0.68453
6.08 -0.709266
6.09 -0.731677
6.1 -0.752857
6.11 -0.773959
6.12 -0.795791
6.13 -0.819161
6.14 -0.844128
6.15 -0.870752
6.16 -0.898573
6.17 -0.926907
6.18 -0.954788
6.19 -0.981308
6.2 -1.0052
6.21 -1.02568
6.22 -1.04198
6.23 -1.05334
6.24 -1.06012
6.25 -1.06177
6.26 -1.05954
6.27 -1.05393
6.28 -1.04614
6.29 -1.03737
6.3 -1.02884
6.31 -1.02145
6.32 -1.01605
6.33 -1.01269
6.34 -1.01099
6.35 -1.0098
6.36 -1.00737
6.37 -1.00052
6.38 -0.986496
6.39 -0.960819
6.4 -0.918873
6.41 -0.857299
6.42 -0.76833
6.43 -0.651475
6.44 -0.499109
6.45 -0.310867
6.46 -0.0845657
6.47 0.18238
6.48 0.484757
6.49 0.825501
6.5 1.19512
6.51 1.59026
6.52 2.00257
6.53 2.42325
6.54 2.84231
6.55 3.25015
6.56 3.63427
6.57 3.98557
6.58 4.2944
6.59 4.54853
6.6 4.74694
6.61 4.87367
6.62 4.93447
6.63 4.92205
6.64 4.83774
6.65 4.68769
6.66 4.46884
6.67 4.19655
6.68 3.8722
6.69 3.50944
6.7 3.11733
6.71 2.70621
6.72 2.28776
6.73 1.87246
6.74 1.46949
6.75 1.08817
6.76 0.73606
6.77 0.416764
6.78 0.139102
6.79 -0.100217
6.8 -0.295363
6.81 -0.450406
6.82 -0.566791
6.83 -0.645922
6.84 -0.695375
6.85 -0.715372
6.86 -0.714723
6.87 -0.696489
6.88 -0.665982
6.89 -0.627781
6.9 -0.585219
6.91 -0.54183
6.92 -0.500006
6.93 -0.461409
6.94 -0.427058
6.95 -0.39773
6.96 -0.372915
6.97 -0.353019
6.98 -0.33688
6.99 -0.324249
7 -0.314516
7.01 -0.30717
7.02 -0.302303
7.03 -0.299636
7.04 -0.299766
7.05 -0.303012
7.06 -0.310027
7.07 -0.321844
7.08 -0.338611
7.09 -0.361864
7.1 -0.391174
7.11 -0.427206
7.12 -0.469723
7.13 -0.517916
7.14 -0.571525
7.15 -0.628684
7.16 -0.688312
7.17 -0.748465
7.18 -0.807462
7.19 -0.863222
7.2 -0.914551
7.21 -0.959044
7.22 -0.996444
7.23 -1.02543
7.24 -1.04572
7.25 -1.05794
7.26 -1.06171
7.27 -1.05912
7.28 -1.05076
7.29 -1.0387
7.3 -1.02451
7.31 -1.00996
7.32 -0.996526
7.33 -0.985835
7.34 -0.978434
7.35 -0.975007
7.36 -0.975405
7.37 -0.978821
7.38 -0.98426
7.39 -0.989812
7.4 -0.993268
7.41 -0.992224
7.42 -0.984185
7.43 -0.965815
7.44 -0.935968
7.45 -0.890291
7.46 -0.829161
7.47 -0.750241
7.48 -0.653229
7.49 -0.539411
7.5 -0.407852
7.51 -0.262697
7.52 -0.104834
7.53 0.0614997
7.54 0.232962
7.55 0.405365
7.56 0.574815
7.57 0.736088
7.58 0.886223
7.59 1.02072
7.6 1.13621
7.61 1.23134
7.62 1.3012
7.63 1.34799
7.64 1.36821
7.65 1.36404
7.66 1.33611
7.67 1.28482
7.68 1.21459
7.69 1.12515
7.7 1.02191
7.71 0.906759
7.72 0.783271
7.73 0.654798
7.74 0.524221
7.75 0.394589
7.76 0.268793
7.77 0.149052
7.78 0.0373645
7.79 -0.063834
7.8 -0.154373
7.81 -0.231246
7.82 -0.295461
7.83 -0.345549
7.84 -0.381441
7.85 -0.404049
7.86 -0.412093
7.87 -0.408182
7.88 -0.391752
7.89 -0.364973
7.9 -0.329127
7.91 -0.285597
7.92 -0.236951
7.93 -0.184707
7.94 -0.131571
7.95 -0.0797074
7.96 -0.0316077
7.97 0.0109266
7.98 0.0447977
7.99 0.0694413
8 0.0821171
8.01 0.0825366
8.02 0.0700046
8.03 0.0436056
8.04 0.0051753
8.05 -0.0462668
8.06 -0.107647
8.07 -0.178006
8.08 -0.254966
8.09 -0.336015
8.1 -0.418867
8.11 -0.500947
8.12 -0.579771
8.13 -0.653447
8.14 -0.720382
8.15 -0.778825
8.16 -0.829056
8.17 -0.869532
8.18 -0.901875
8.19 -0.92624
8.2 -0.943981
8.21 -0.9568
8.22 -0.965858
8.23 -0.973146
8.24 -0.979856
8.25 -0.98711
8.26 -0.995443
8.27 -1.00491
8.28 -1.01481
8.29 -1.0237
8.3 -1.02969
8.31 -1.03004
8.32 -1.02139
8.33 -1.00117
8.34 -0.963722
8.35 -0.907988
8.36 -0.828238
8.37 -0.723277
8.38 -0.591025
8.39 -0.428592
8.4 -0.239189
8.41 -0.0196508
8.42 0.223745
8.43 0.489362
8.44 0.771902
8.45 1.06517
8.46 1.36306
8.47 1.65807
8.48 1.94209
8.49 2.20797
8.5 2.44883
8.51 2.65563
8.52 2.82674
8.53 2.95096
8.54 3.03085
8.55 3.06101
8.56 3.04118
8.57 2.97517
8.58 2.85961
8.59 2.70485
8.6 2.51098
8.61 2.2869
8.62 2.03861
8.63 1.77251
8.64 1.49706
8.65 1.21866
8.66 0.944369
8.67 0.680368
8.68 0.432277
8.69 0.203023
8.7 -0.00118733
8.71 -0.181747
8.72 -0.334583
8.73 -0.461638
8.74 -0.563658
8.75 -0.641089
8.76 -0.698801
8.77 -0.736819
8.78 -0.760885
8.79 -0.773152
8.8 -0.77725
8.81 -0.776463
8.82 -0.773314
8.83 -0.770375
8.84 -0.769618
8.85 -0.772336
8.86 -0.779361
8.87 -0.791399
8.88 -0.807867
8.89 -0.82903
8.9 -0.853579
8.91 -0.880892
8.92 -0.909842
8.93 -0.939376
8.94 -0.968409
8.95 -0.996144
8.96 -1.02164
8.97 -1.04446
8.98 -1.06427
8.99 -1.0807
9 -1.09417
9.01 -1.10443
9.02 -1.11223
9.03 -1.11782
9.04 -1.12172
9.05 -1.12444
9.06 -1.1263
9.07 -1.1277
9.08 -1.12876
9.09 -1.12952
9.1 -1.12983
9.11 -1.12929
9.12 -1.12753
9.13 -1.12363
9.14 -1.1171
9.15 -1.10693
9.16 -1.0922
9.17 -1.07245
9.18 -1.04613
9.19 -1.01356
9.2 -0.973524
9.21 -0.926339
9.22 -0.872063
9.23 -0.810691
9.24 -0.743634
9.25 -0.671097
9.26 -0.59508
9.27 -0.516825
9.28 -0.438242
9.29 -0.361056
9.3 -0.287692
9.31 -0.219473
9.32 -0.158937
9.33 -0.107281
9.34 -0.0658202
9.35 -0.0363561
9.36 -0.0181582
9.37 -0.013287
9.38 -0.0197956
9.39 -0.0378435
9.4 -0.0661533
9.41 -0.10273
9.42 -0.146609
9.43 -0.194832
9.44 -0.245703
9.45 -0.29674
9.46 -0.34597
9.47 -0.391118
9.48 -0.431131
9.49 -0.463739
9.5 -0.489016
9.51 -0.506033
9.52 -0.514888
9.53 -0.516547
9.54 -0.511081
9.55 -0.500677
9.56 -0.486284
9.57 -0.469936
9.58 -0.453251
9.59 -0.43811
9.6 -0.425753
9.61 -0.418098
9.62 -0.415561
9.63 -0.419143
9.64 -0.429125
9.65 -0.44502
9.66 -0.467133
9.67 -0.493906
9.68 -0.524938
9.69 -0.558789
9.7 -0.594391
9.71 -0.630597
9.72 -0.666419
9.73 -0.700853
9.74 -0.733447
9.75 -0.76369
9.76 -0.791397
9.77 -0.816735
9.78 -0.83952
9.79 -0.860254
9.8 -0.87877
9.81 -0.895121
9.82 -0.908962
9.83 -0.919296
9.84 -0.92543
9.85 -0.924796
9.86 -0.916031
9.87 -0.89595
9.88 -0.861228
9.89 -0.809749
9.9 -0.735182
9.91 -0.637386
9.92 -0.510129
9.93 -0.352485
9.94 -0.162485
9.95 0.0632576
9.96 0.320862
9.97 0.61418
9.98 0.936236
9.99 1.2854
10 1.65602
10.01 2.04102
10.02 2.43392
10.03 2.8258
10.04 3.20755
10.05 3.57043
10.06 3.90619
10.07 4.20368
10.08 4.46024
10.09 4.66205
10.1 4.81088
10.11 4.89958
10.12 4.92639
10.13 4.89532
10.14 4.80052
10.15 4.65422
10.16 4.45523
10.17 4.21379
10.18 3.9368
10.19 3.63114
10.2 3.30782
10.21 2.97362
10.22 2.63826
10.23 2.30911
10.24 1.99359
10.25 1.69603
10.26 1.42408
10.27 1.17722
10.28 0.960435
10.29 0.772282
10.3 0.612124
10.31 0.47984
10.32 0.369951
10.33 0.282417
10.34 0.210753
10.35 0.152352
10.36 0.103026
10.37 0.0589386
10.38 0.0171313
10.39 -0.0252859
10.4 -0.0705325
10.41 -0.119952
10.42 -0.17431
10.43 -0.234189
10.44 -0.298701
10.45 -0.367764
10.46 -0.439729
10.47 -0.513546
10.48 -0.587682
10.49 -0.660836
10.5 -0.731336
10.51 -0.798406
10.52 -0.860594
10.53 -0.917394
10.54 -0.968288
10.55 -1.01249
10.56 -1.0506
10.57 -1.08163
10.58 -1.10655
10.59 -1.12511
10.6 -1.1375
10.61 -1.14434
10.62 -1.14504
10.63 -1.14061
10.64 -1.13056
10.65 -1.11539
10.66 -1.09524
10.67 -1.06998
10.68 -1.04044
10.69 -1.00632
10.7 -0.96868
10.71 -0.927878
10.72 -0.884746
10.73 -0.840248
10.74 -0.795357
10.75 -0.751184
10.76 -0.708997
10.77 -0.669881
10.78 -0.63486
10.79 -0.60534
10.8 -0.581492
10.81 -0.564974
10.82 -0.555337
10.83 -0.553259
10.84 -0.558701
10.85 -0.570912
10.86 -0.590261
10.87 -0.615076
10.88 -0.645145
10.89 -0.6791
10.9 -0.715958
10.91 -0.754717
10.92 -0.794212
10.93 -0.833482
10.94 -0.871682
10.95 -0.908034
10.96 -0.941898
10.97 -0.973055
10.98 -1.00081
10.99 -1.02551
11 -1.04679
11.01 -1.065
11.02 -1.08032
11.03 -1.0929
11.04 -1.10332
11.05 -1.11166
11.06 -1.11854
11.07 -1.12422
11.08 -1.12908
11.09 -1.13349
11.1 -1.1377
11.11 -1.14197
11.12 -1.1465
11.13 -1.15135
11.14 -1.15654
11.15 -1.16192
11.16 -1.16723
11.17 -1.17194
11.18 -1.17546
11.19 -1.1769
11.2 -1.17505
11.21 -1.16896
11.22 -1.15628
11.23 -1.1363
11.24 -1.10622
11.25 -1.06466
11.26 -1.00986
11.27 -0.938852
11.28 -0.851967
11.29 -0.745193
11.3 -0.620024
11.31 -0.474824
11.32 -0.309764
11.33 -0.126956
11.34 0.0743213
11.35 0.289264
11.36 0.516447
11.37 0.75121
11.38 0.989549
11.39 1.22637
11.4 1.45721
11.41 1.67532
11.42 1.87703
11.43 2.05649
11.44 2.20873
11.45 2.33211
11.46 2.41896
11.47 2.47229
11.48 2.4868
11.49 2.46479
11.5 2.4073
11.51 2.31411
11.52 2.19199
11.53 2.04059
11.54 1.868
11.55 1.67764
11.56 1.47521
11.57 1.26635
11.58 1.05612
11.59 0.849362
11.6 0.650916
11.61 0.464115
11.62 0.291591
11.63 0.136633
11.64 -0.00167047
11.65 -0.120327
11.66 -0.222196
11.67 -0.307296
11.68 -0.377475
11.69 -0.435699
11.7 -0.48303
11.71 -0.523412
11.72 -0.558506
11.73 -0.59101
11.74 -0.62273
11.75 -0.655312
11.76 -0.689595
11.77 -0.726401
11.78 -0.765382
11.79 -0.806149
11.8 -0.84761
11.81 -0.888471
11.82 -0.926713
11.83 -0.960896
11.84 -0.988516
11.85 -1.00792
11.86 -1.01744
11.87 -1.01456
11.88 -0.999446
11.89 -0.969066
11.9 -0.92465
11.91 -0.865097
11.92 -0.790613
11.93 -0.702817
11.94 -0.60099
11.95 -0.488462
11.96 -0.365701
11.97 -0.235446
11.98 -0.0998081
11.99 0.0388948
12 0.178016
12.01 0.314782
12.02 0.446897
12.03 0.571666
12.04 0.686489
12.05 0.790102
12.06 0.878656
12.07 0.952685
12.08 1.00908
12.09 1.04792
12.1 1.0688
12.11 1.07033
12.12 1.055
12.13 1.02106
12.14 0.971946
12.15 0.908248
12.16 0.832045
12.17 0.746234
12.18 0.652238
12.19 0.553684
12.2 0.452669
12.21 0.351996
12.22 0.253846
12.23 0.16075
12.24 0.0737281
12.25 -0.00479376
12.26 -0.0749593
12.27 -0.135872
12.28 -0.187605
12.29 -0.231311
12.3 -0.266937
12.31 -0.29688
12.32 -0.32203
12.33 -0.344443
12.34 -0.365713
12.35 -0.387557
12.36 -0.411185
12.37 -0.438067
12.38 -0.468497
12.39 -0.502909
12.4 -0.541025
12.41 -0.581899
12.42 -0.624521
