# xPDFsuite Configuration #
[PDF]
wavelength = 0.1432
dataformat = twotheta
inputfile = 1_1Pd_CeO2_cycle-00492.chi
backgroundfile = background-00000.chi
mode = xray
bgscale = 1.007
composition = CeO2
outputtype = gr
qmaxinst = 28.8974762299
qmin = 0.5
qmax = 27.9
rmax = 50.0
rmin = 0.0
rstep = 0.01
rpoly = 1.8657

[Misc]
inputdir = G:/SankarDec16/1Pd/Chi
savedir = D:/DATA/APS_CeO2/1Pd
backgroundfilefull = G:/SankarDec16/Background/background-00000.chi

#### start data
#S 1
#L r($\AA$)  G($\AA^{-2}$)
0 0
0.01 -0.00539034
0.02 -0.0103745
0.03 -0.0145343
0.04 -0.0175548
0.05 -0.0192607
0.06 -0.0193702
0.07 -0.018071
0.08 -0.0152727
0.09 -0.0113334
0.1 -0.0065009
0.11 -0.00115468
0.12 0.00429157
0.13 0.00937367
0.14 0.0137628
0.15 0.0170565
0.16 0.0190189
0.17 0.019556
0.18 0.0184758
0.19 0.0160544
0.2 0.0123027
0.21 0.00763828
0.22 0.0023698
0.23 -0.00307689
0.24 -0.0083124
0.25 -0.0128368
0.26 -0.0164142
0.27 -0.0186771
0.28 -0.0194803
0.29 -0.0188155
0.3 -0.0165898
0.31 -0.0131546
0.32 -0.00862162
0.33 -0.0034484
0.34 0.00201075
0.35 0.00730345
0.36 0.0120835
0.37 0.0158391
0.38 0.0184386
0.39 0.0195673
0.4 0.0191775
0.41 0.0173474
0.42 0.0140877
0.43 0.00980845
0.44 0.00471716
0.45 -0.000710616
0.46 -0.00609187
0.47 -0.0109691
0.48 -0.0150561
0.49 -0.017854
0.5 -0.0193416
0.51 -0.0192724
0.52 -0.0176988
0.53 -0.0147817
0.54 -0.0106358
0.55 -0.00570982
0.56 -0.000297364
0.57 0.00513047
0.58 0.0101805
0.59 0.0144119
0.6 0.0176125
0.61 0.0193201
0.62 0.0196255
0.63 0.0183625
0.64 0.0156812
0.65 0.011818
0.66 0.00698594
0.67 0.00165157
0.68 -0.00381967
0.69 -0.00898339
0.7 -0.0134553
0.71 -0.0168318
0.72 -0.0189852
0.73 -0.0195119
0.74 -0.01861
0.75 -0.0162011
0.76 -0.0125253
0.77 -0.00788229
0.78 -0.00257212
0.79 0.00294406
0.8 0.00824875
0.81 0.0129461
0.82 0.0166809
0.83 0.0191079
0.84 0.0201897
0.85 0.0196031
0.86 0.0176417
0.87 0.0143185
0.88 0.0099492
0.89 0.0048787
0.9 -0.000525703
0.91 -0.0058368
0.92 -0.0106153
0.93 -0.0145417
0.94 -0.0173192
0.95 -0.0186929
0.96 -0.0187249
0.97 -0.0172157
0.98 -0.0145411
0.99 -0.0108275
1 -0.00646097
1.01 -0.00181886
1.02 0.00266132
1.03 0.00662405
1.04 0.0096155
1.05 0.0114314
1.06 0.0118605
1.07 0.010775
1.08 0.00837129
1.09 0.0046232
1.1 2.10157e-05
1.11 -0.00514053
1.12 -0.0103577
1.13 -0.0151826
1.14 -0.0190213
1.15 -0.0215812
1.16 -0.0222889
1.17 -0.0210404
1.18 -0.0176488
1.19 -0.0120447
1.2 -0.00458439
1.21 0.00471276
1.22 0.0151487
1.23 0.0263132
1.24 0.0375333
1.25 0.0482193
1.26 0.0575857
1.27 0.0652401
1.28 0.0703924
1.29 0.0728516
1.3 0.0722841
1.31 0.0684488
1.32 0.0617052
1.33 0.0517712
1.34 0.0394615
1.35 0.0249968
1.36 0.00904678
1.37 -0.00775561
1.38 -0.0247477
1.39 -0.041286
1.4 -0.0566423
1.41 -0.0703443
1.42 -0.0818959
1.43 -0.0908053
1.44 -0.0971029
1.45 -0.100167
1.46 -0.100452
1.47 -0.0977528
1.48 -0.0923371
1.49 -0.084533
1.5 -0.07443
1.51 -0.0626473
1.52 -0.049349
1.53 -0.0350733
1.54 -0.0201619
1.55 -0.00502023
1.56 0.00999201
1.57 0.0244333
1.58 0.0380446
1.59 0.0504173
1.6 0.0612511
1.61 0.0703409
1.62 0.0771996
1.63 0.0818982
1.64 0.0839415
1.65 0.0834358
1.66 0.0802506
1.67 0.074302
1.68 0.0659554
1.69 0.0550167
1.7 0.0421577
1.71 0.027564
1.72 0.0117858
1.73 -0.00464354
1.74 -0.0211363
1.75 -0.0371245
1.76 -0.0519194
1.77 -0.0650754
1.78 -0.0761178
1.79 -0.0845851
1.8 -0.0905482
1.81 -0.0935118
1.82 -0.0940353
1.83 -0.092155
1.84 -0.0884055
1.85 -0.0833769
1.86 -0.0776838
1.87 -0.0720855
1.88 -0.0673647
1.89 -0.0641466
1.9 -0.0630264
1.91 -0.0645805
1.92 -0.0687832
1.93 -0.0761657
1.94 -0.0860944
1.95 -0.0984346
1.96 -0.112473
1.97 -0.127426
1.98 -0.14234
1.99 -0.156268
2 -0.167966
2.01 -0.176593
2.02 -0.181208
2.03 -0.180818
2.04 -0.175426
2.05 -0.163799
2.06 -0.146797
2.07 -0.124091
2.08 -0.096315
2.09 -0.0642723
2.1 -0.0284336
2.11 0.0098352
2.12 0.0498298
2.13 0.0904033
2.14 0.130741
2.15 0.17001
2.16 0.20781
2.17 0.243474
2.18 0.277179
2.19 0.308804
2.2 0.338671
2.21 0.367203
2.22 0.39478
2.23 0.421978
2.24 0.449191
2.25 0.476732
2.26 0.504725
2.27 0.533076
2.28 0.561436
2.29 0.589101
2.3 0.615319
2.31 0.638895
2.32 0.658584
2.33 0.673361
2.34 0.681218
2.35 0.681929
2.36 0.673463
2.37 0.655901
2.38 0.628675
2.39 0.59146
2.4 0.545691
2.41 0.490941
2.42 0.429836
2.43 0.363406
2.44 0.29388
2.45 0.223311
2.46 0.154046
2.47 0.0878838
2.48 0.0272619
2.49 -0.0266549
2.5 -0.0725632
2.51 -0.109317
2.52 -0.137621
2.53 -0.156318
2.54 -0.16756
2.55 -0.171788
2.56 -0.170821
2.57 -0.166475
2.58 -0.1605
2.59 -0.154842
2.6 -0.15134
2.61 -0.15129
2.62 -0.155793
2.63 -0.165758
2.64 -0.180807
2.65 -0.201499
2.66 -0.226299
2.67 -0.254527
2.68 -0.284617
2.69 -0.315078
2.7 -0.344136
2.71 -0.370546
2.72 -0.392558
2.73 -0.409517
2.74 -0.420722
2.75 -0.425746
2.76 -0.425466
2.77 -0.419806
2.78 -0.410662
2.79 -0.399105
2.8 -0.386949
2.81 -0.375771
2.82 -0.367549
2.83 -0.363261
2.84 -0.36464
2.85 -0.371937
2.86 -0.385524
2.87 -0.405363
2.88 -0.430137
2.89 -0.459294
2.9 -0.490608
2.91 -0.522454
2.92 -0.552672
2.93 -0.579534
2.94 -0.600612
2.95 -0.615256
2.96 -0.621483
2.97 -0.619487
2.98 -0.609139
2.99 -0.590828
3 -0.566459
3.01 -0.53696
3.02 -0.505158
3.03 -0.473132
3.04 -0.443486
3.05 -0.418229
3.06 -0.400192
3.07 -0.389968
3.08 -0.389757
3.09 -0.399148
3.1 -0.418137
3.11 -0.446115
3.12 -0.4808
3.13 -0.52101
3.14 -0.56355
3.15 -0.606076
3.16 -0.645761
3.17 -0.680505
3.18 -0.707392
3.19 -0.726002
3.2 -0.734289
3.21 -0.73301
3.22 -0.722546
3.23 -0.704024
3.24 -0.680065
3.25 -0.652622
3.26 -0.625026
3.27 -0.600182
3.28 -0.581123
3.29 -0.569928
3.3 -0.569815
3.31 -0.580604
3.32 -0.604331
3.33 -0.639514
3.34 -0.685239
3.35 -0.739668
3.36 -0.799451
3.37 -0.861773
3.38 -0.922749
3.39 -0.978741
3.4 -1.02625
3.41 -1.06304
3.42 -1.0854
3.43 -1.09401
3.44 -1.08672
3.45 -1.06568
3.46 -1.03226
3.47 -0.988923
3.48 -0.939701
3.49 -0.887976
3.5 -0.838055
3.51 -0.793818
3.52 -0.758652
3.53 -0.734351
3.54 -0.723612
3.55 -0.724573
3.56 -0.737121
3.57 -0.756991
3.58 -0.779955
3.59 -0.799499
3.6 -0.80966
3.61 -0.799968
3.62 -0.765294
3.63 -0.695638
3.64 -0.584094
3.65 -0.427119
3.66 -0.214567
3.67 0.0484679
3.68 0.368781
3.69 0.738884
3.7 1.15503
3.71 1.61082
3.72 2.09335
3.73 2.59376
3.74 3.09633
3.75 3.58736
3.76 4.05146
3.77 4.4769
3.78 4.84409
3.79 5.14955
3.8 5.37474
3.81 5.51898
3.82 5.57646
3.83 5.54178
3.84 5.42587
3.85 5.22006
3.86 4.94436
3.87 4.60172
3.88 4.20593
3.89 3.77107
3.9 3.30801
3.91 2.83331
3.92 2.3593
3.93 1.8986
3.94 1.46162
3.95 1.05942
3.96 0.694675
3.97 0.379174
3.98 0.108372
3.99 -0.113312
4 -0.288665
4.01 -0.422821
4.02 -0.516272
4.03 -0.579624
4.04 -0.615289
4.05 -0.632131
4.06 -0.635528
4.07 -0.63112
4.08 -0.624081
4.09 -0.618422
4.1 -0.616757
4.11 -0.621148
4.12 -0.632225
4.13 -0.649456
4.14 -0.672371
4.15 -0.698658
4.16 -0.726594
4.17 -0.753688
4.18 -0.77779
4.19 -0.796433
4.2 -0.808575
4.21 -0.811551
4.22 -0.805782
4.23 -0.790094
4.24 -0.764776
4.25 -0.730726
4.26 -0.687863
4.27 -0.638344
4.28 -0.582528
4.29 -0.522203
4.3 -0.45838
4.31 -0.392055
4.32 -0.324271
4.33 -0.255551
4.34 -0.186507
4.35 -0.117426
4.36 -0.0485347
4.37 0.0200363
4.38 0.0880636
4.39 0.155396
4.4 0.221559
4.41 0.286092
4.42 0.348281
4.43 0.406991
4.44 0.4616
4.45 0.51001
4.46 0.551803
4.47 0.585113
4.48 0.608801
4.49 0.622378
4.5 0.623748
4.51 0.614066
4.52 0.591737
4.53 0.558101
4.54 0.513594
4.55 0.458902
4.56 0.396345
4.57 0.326503
4.58 0.252259
4.59 0.17514
4.6 0.0973225
4.61 0.0205367
4.62 -0.0531829
4.63 -0.12291
4.64 -0.186973
4.65 -0.245083
4.66 -0.296798
4.67 -0.341816
4.68 -0.381123
4.69 -0.414425
4.7 -0.443356
4.71 -0.468424
4.72 -0.490746
4.73 -0.511307
4.74 -0.530851
4.75 -0.550152
4.76 -0.569678
4.77 -0.589682
4.78 -0.610209
4.79 -0.631102
4.8 -0.652022
4.81 -0.672447
4.82 -0.691913
4.83 -0.709793
4.84 -0.725562
4.85 -0.738938
4.86 -0.749302
4.87 -0.756928
4.88 -0.761497
4.89 -0.76348
4.9 -0.763183
4.91 -0.761058
4.92 -0.757827
4.93 -0.754035
4.94 -0.750396
4.95 -0.747505
4.96 -0.745902
4.97 -0.745883
4.98 -0.747934
4.99 -0.751889
5 -0.757971
5.01 -0.765845
5.02 -0.775297
5.03 -0.786029
5.04 -0.797568
5.05 -0.809613
5.06 -0.821726
5.07 -0.833594
5.08 -0.844919
5.09 -0.855519
5.1 -0.86509
5.11 -0.873604
5.12 -0.880725
5.13 -0.886319
5.14 -0.890063
5.15 -0.891376
5.16 -0.889991
5.17 -0.884606
5.18 -0.874871
5.19 -0.859375
5.2 -0.836958
5.21 -0.806854
5.22 -0.766748
5.23 -0.716897
5.24 -0.655013
5.25 -0.581356
5.26 -0.495437
5.27 -0.396788
5.28 -0.287297
5.29 -0.166452
5.3 -0.037537
5.31 0.0979523
5.32 0.236943
5.33 0.376406
5.34 0.512464
5.35 0.642145
5.36 0.760794
5.37 0.865648
5.38 0.953475
5.39 1.02035
5.4 1.06649
5.41 1.0867
5.42 1.08383
5.43 1.05595
5.44 1.00444
5.45 0.932006
5.46 0.8388
5.47 0.730382
5.48 0.608308
5.49 0.477531
5.5 0.341527
5.51 0.204295
5.52 0.0692343
5.53 -0.0595632
5.54 -0.180158
5.55 -0.289644
5.56 -0.386425
5.57 -0.470227
5.58 -0.539027
5.59 -0.594996
5.6 -0.637157
5.61 -0.667732
5.62 -0.68783
5.63 -0.698634
5.64 -0.702543
5.65 -0.700107
5.66 -0.693531
5.67 -0.683525
5.68 -0.671021
5.69 -0.656607
5.7 -0.640283
5.71 -0.622238
5.72 -0.601951
5.73 -0.579158
5.74 -0.553374
5.75 -0.523944
5.76 -0.490946
5.77 -0.453607
5.78 -0.412616
5.79 -0.368027
5.8 -0.320619
5.81 -0.271404
5.82 -0.221537
5.83 -0.172439
5.84 -0.125813
5.85 -0.0831052
5.86 -0.0458045
5.87 -0.0157382
5.88 0.00679702
5.89 0.0195382
5.9 0.0232909
5.91 0.0171306
5.92 0.00144492
5.93 -0.0227448
5.94 -0.055446
5.95 -0.094407
5.96 -0.139018
5.97 -0.187294
5.98 -0.237874
5.99 -0.289269
6 -0.340217
6.01 -0.389408
6.02 -0.436255
6.03 -0.48003
6.04 -0.520509
6.05 -0.557885
6.06 -0.592084
6.07 -0.62397
6.08 -0.653858
6.09 -0.682583
6.1 -0.710728
6.11 -0.738889
6.12 -0.767446
6.13 -0.796743
6.14 -0.826709
6.15 -0.857222
6.16 -0.887864
6.17 -0.91813
6.18 -0.947205
6.19 -0.974553
6.2 -0.999181
6.21 -1.02061
6.22 -1.0383
6.23 -1.05165
6.24 -1.06099
6.25 -1.06575
6.26 -1.06683
6.27 -1.06439
6.28 -1.05912
6.29 -1.05177
6.3 -1.04274
6.31 -1.03271
6.32 -1.02174
6.33 -1.00976
6.34 -0.996254
6.35 -0.979967
6.36 -0.959806
6.37 -0.932801
6.38 -0.897358
6.39 -0.84993
6.4 -0.787238
6.41 -0.7071
6.42 -0.60362
6.43 -0.477065
6.44 -0.321743
6.45 -0.137862
6.46 0.0759464
6.47 0.321365
6.48 0.59411
6.49 0.89621
6.5 1.22022
6.51 1.56342
6.52 1.91929
6.53 2.28102
6.54 2.64075
6.55 2.99112
6.56 3.32226
6.57 3.62704
6.58 3.89777
6.59 4.12459
6.6 4.30652
6.61 4.43042
6.62 4.50051
6.63 4.51039
6.64 4.46044
6.65 4.3551
6.66 4.19079
6.67 3.97968
6.68 3.72171
6.69 3.42767
6.7 3.10439
6.71 2.7596
6.72 2.40329
6.73 2.0431
6.74 1.68762
6.75 1.34442
6.76 1.02041
6.77 0.719504
6.78 0.449468
6.79 0.20899
6.8 0.00369143
6.81 -0.168599
6.82 -0.308128
6.83 -0.414972
6.84 -0.494859
6.85 -0.546819
6.86 -0.578127
6.87 -0.590719
6.88 -0.588902
6.89 -0.576736
6.9 -0.5567
6.91 -0.532602
6.92 -0.506421
6.93 -0.48029
6.94 -0.455504
6.95 -0.433152
6.96 -0.41342
6.97 -0.396923
6.98 -0.383143
6.99 -0.372079
7 -0.3634
7.01 -0.356751
7.02 -0.352224
7.03 -0.349529
7.04 -0.349076
7.05 -0.351035
7.06 -0.355864
7.07 -0.36434
7.08 -0.376608
7.09 -0.393928
7.1 -0.416087
7.11 -0.443764
7.12 -0.476978
7.13 -0.515258
7.14 -0.558716
7.15 -0.605945
7.16 -0.656384
7.17 -0.708515
7.18 -0.761063
7.19 -0.812418
7.2 -0.861386
7.21 -0.90603
7.22 -0.945735
7.23 -0.979188
7.24 -1.00577
7.25 -1.02561
7.26 -1.03792
7.27 -1.04412
7.28 -1.0442
7.29 -1.03965
7.3 -1.03152
7.31 -1.02103
7.32 -1.00954
7.33 -0.998153
7.34 -0.987742
7.35 -0.978945
7.36 -0.971966
7.37 -0.966508
7.38 -0.962019
7.39 -0.957341
7.4 -0.950932
7.41 -0.941079
7.42 -0.925903
7.43 -0.902802
7.44 -0.87079
7.45 -0.826302
7.46 -0.769441
7.47 -0.698115
7.48 -0.611812
7.49 -0.511356
7.5 -0.395637
7.51 -0.267932
7.52 -0.128673
7.53 0.0187003
7.54 0.171487
7.55 0.326259
7.56 0.479556
7.57 0.62699
7.58 0.765711
7.59 0.891706
7.6 1.00177
7.61 1.09444
7.62 1.16514
7.63 1.21549
7.64 1.2421
7.65 1.24665
7.66 1.22953
7.67 1.19085
7.68 1.13455
7.69 1.0602
7.7 0.972762
7.71 0.873915
7.72 0.766942
7.73 0.654972
7.74 0.54063
7.75 0.426795
7.76 0.31607
7.77 0.210487
7.78 0.111802
7.79 0.0220883
7.8 -0.0585754
7.81 -0.127774
7.82 -0.186509
7.83 -0.233744
7.84 -0.269634
7.85 -0.295078
7.86 -0.30927
7.87 -0.314364
7.88 -0.310044
7.89 -0.298002
7.9 -0.279202
7.91 -0.254616
7.92 -0.226068
7.93 -0.194493
7.94 -0.161771
7.95 -0.129287
7.96 -0.0986995
7.97 -0.0712557
7.98 -0.0489974
7.99 -0.032461
8 -0.0235516
8.01 -0.0226685
8.02 -0.0304742
8.03 -0.0478589
8.04 -0.0738058
8.05 -0.109366
8.06 -0.152634
8.07 -0.203285
8.08 -0.259936
8.09 -0.320944
8.1 -0.385083
8.11 -0.450372
8.12 -0.515285
8.13 -0.578267
8.14 -0.638056
8.15 -0.693236
8.16 -0.743573
8.17 -0.787723
8.18 -0.826333
8.19 -0.859113
8.2 -0.88655
8.21 -0.909502
8.22 -0.928206
8.23 -0.943943
8.24 -0.95701
8.25 -0.968088
8.26 -0.977342
8.27 -0.984481
8.28 -0.989211
8.29 -0.989992
8.3 -0.985864
8.31 -0.974627
8.32 -0.953941
8.33 -0.922156
8.34 -0.874895
8.35 -0.811876
8.36 -0.728699
8.37 -0.62478
8.38 -0.498677
8.39 -0.348267
8.4 -0.176259
8.41 0.0198026
8.42 0.23488
8.43 0.467679
8.44 0.714015
8.45 0.968995
8.46 1.22781
8.47 1.4845
8.48 1.7326
8.49 1.96638
8.5 2.18023
8.51 2.36681
8.52 2.52463
8.53 2.64439
8.54 2.7279
8.55 2.77042
8.56 2.77132
8.57 2.73336
8.58 2.65309
8.59 2.53875
8.6 2.38967
8.61 2.21285
8.62 2.0128
8.63 1.79417
8.64 1.56412
8.65 1.32709
8.66 1.08942
8.67 0.855951
8.68 0.631526
8.69 0.419069
8.7 0.223693
8.71 0.0452252
8.72 -0.11269
8.73 -0.2508
8.74 -0.369067
8.75 -0.467099
8.76 -0.548253
8.77 -0.611684
8.78 -0.66169
8.79 -0.699371
8.8 -0.727256
8.81 -0.747936
8.82 -0.762837
8.83 -0.774536
8.84 -0.784295
8.85 -0.793636
8.86 -0.803514
8.87 -0.814777
8.88 -0.827683
8.89 -0.842725
8.9 -0.859616
8.91 -0.878317
8.92 -0.89849
8.93 -0.919699
8.94 -0.941593
8.95 -0.963665
8.96 -0.98551
8.97 -1.00675
8.98 -1.02707
8.99 -1.04612
9 -1.06385
9.01 -1.07985
9.02 -1.09422
9.03 -1.10676
9.04 -1.11739
9.05 -1.12619
9.06 -1.13282
9.07 -1.13751
9.08 -1.1399
9.09 -1.14002
9.1 -1.13769
9.11 -1.13256
9.12 -1.12473
9.13 -1.1135
9.14 -1.09904
9.15 -1.08087
9.16 -1.05873
9.17 -1.03268
9.18 -1.00197
9.19 -0.96713
9.2 -0.927595
9.21 -0.883744
9.22 -0.835717
9.23 -0.783585
9.24 -0.72819
9.25 -0.669648
9.26 -0.609087
9.27 -0.547186
9.28 -0.485021
9.29 -0.423581
9.3 -0.364287
9.31 -0.307979
9.32 -0.25625
9.33 -0.209969
9.34 -0.170112
9.35 -0.138062
9.36 -0.113584
9.37 -0.0984087
9.38 -0.0915391
9.39 -0.0934942
9.4 -0.103817
9.41 -0.121391
9.42 -0.146141
9.43 -0.175986
9.44 -0.210205
9.45 -0.246998
9.46 -0.284986
9.47 -0.322601
9.48 -0.358632
9.49 -0.391457
9.5 -0.420478
9.51 -0.444701
9.52 -0.463666
9.53 -0.477577
9.54 -0.485954
9.55 -0.490008
9.56 -0.489945
9.57 -0.48702
9.58 -0.48223
9.59 -0.476745
9.6 -0.471695
9.61 -0.468368
9.62 -0.467508
9.63 -0.470042
9.64 -0.476559
9.65 -0.487084
9.66 -0.502224
9.67 -0.521157
9.68 -0.543934
9.69 -0.569679
9.7 -0.597727
9.71 -0.627331
9.72 -0.657571
9.73 -0.687663
9.74 -0.716892
9.75 -0.744584
9.76 -0.770165
9.77 -0.793379
9.78 -0.813494
9.79 -0.830631
9.8 -0.844071
9.81 -0.853629
9.82 -0.858785
9.83 -0.858414
9.84 -0.852218
9.85 -0.837817
9.86 -0.814637
9.87 -0.780215
9.88 -0.732252
9.89 -0.669506
9.9 -0.587168
9.91 -0.485644
9.92 -0.360227
9.93 -0.210493
9.94 -0.0350561
9.95 0.168657
9.96 0.397567
9.97 0.654805
9.98 0.934998
9.99 1.23708
10 1.55685
10.01 1.88892
10.02 2.22856
10.03 2.56871
10.04 2.90247
10.05 3.22285
10.06 3.52323
10.07 3.79462
10.08 4.03443
10.09 4.23131
10.1 4.38597
10.11 4.49201
10.12 4.54715
10.13 4.5539
10.14 4.50628
10.15 4.41367
10.16 4.27382
10.17 4.09445
10.18 3.88053
10.19 3.63663
10.2 3.37211
10.21 3.09123
10.22 2.80288
10.23 2.5128
10.24 2.2275
10.25 1.95146
10.26 1.69104
10.27 1.4474
10.28 1.22514
10.29 1.02439
10.3 0.845589
10.31 0.689721
10.32 0.553159
10.33 0.436982
10.34 0.336357
10.35 0.249895
10.36 0.174628
10.37 0.107408
10.38 0.0464525
10.39 -0.0112618
10.4 -0.0672781
10.41 -0.123274
10.42 -0.180239
10.43 -0.238959
10.44 -0.299463
10.45 -0.361923
10.46 -0.425701
10.47 -0.4903
10.48 -0.554901
10.49 -0.61876
10.5 -0.680815
10.51 -0.740552
10.52 -0.796949
10.53 -0.849581
10.54 -0.897989
10.55 -0.941472
10.56 -0.980333
10.57 -1.01364
10.58 -1.04196
10.59 -1.06491
10.6 -1.08245
10.61 -1.09493
10.62 -1.10163
10.63 -1.10336
10.64 -1.0995
10.65 -1.09046
10.66 -1.07631
10.67 -1.05687
10.68 -1.03295
10.69 -1.00419
10.7 -0.971658
10.71 -0.935674
10.72 -0.897029
10.73 -0.856665
10.74 -0.815444
10.75 -0.774485
10.76 -0.734937
10.77 -0.697861
10.78 -0.664241
10.79 -0.635409
10.8 -0.611611
10.81 -0.594424
10.82 -0.583537
10.83 -0.579661
10.84 -0.582861
10.85 -0.592523
10.86 -0.609116
10.87 -0.631122
10.88 -0.658451
10.89 -0.689844
10.9 -0.724401
10.91 -0.761202
10.92 -0.799068
10.93 -0.837082
10.94 -0.874313
10.95 -0.909933
10.96 -0.943203
10.97 -0.973798
10.98 -1.0009
10.99 -1.02476
11 -1.04491
11.01 -1.06163
11.02 -1.07508
11.03 -1.08535
11.04 -1.09312
11.05 -1.09846
11.06 -1.10213
11.07 -1.10447
11.08 -1.106
11.09 -1.10719
11.1 -1.10844
11.11 -1.11007
11.12 -1.11237
11.13 -1.11542
11.14 -1.11923
11.15 -1.12364
11.16 -1.12829
11.17 -1.13259
11.18 -1.13586
11.19 -1.13708
11.2 -1.13499
11.21 -1.1286
11.22 -1.11556
11.23 -1.09522
11.24 -1.06491
11.25 -1.02344
11.26 -0.969257
11.27 -0.899778
11.28 -0.81552
11.29 -0.713027
11.3 -0.593926
11.31 -0.456983
11.32 -0.302626
11.33 -0.132926
11.34 0.0524645
11.35 0.249235
11.36 0.455939
11.37 0.668487
11.38 0.883389
11.39 1.09624
11.4 1.30335
11.41 1.49901
11.42 1.68029
11.43 1.84238
11.44 1.98127
11.45 2.09576
11.46 2.17952
11.47 2.23522
11.48 2.25848
11.49 2.25122
11.5 2.21425
11.51 2.14724
11.52 2.05565
11.53 1.93882
11.54 1.80325
11.55 1.65134
11.56 1.4874
11.57 1.3159
11.58 1.14028
11.59 0.964661
11.6 0.792461
11.61 0.626491
11.62 0.468902
11.63 0.322269
11.64 0.186437
11.65 0.0637894
11.66 -0.0471962
11.67 -0.146127
11.68 -0.233812
11.69 -0.311977
11.7 -0.380682
11.71 -0.442529
11.72 -0.498018
11.73 -0.548818
11.74 -0.59592
11.75 -0.63999
11.76 -0.681887
11.77 -0.721585
11.78 -0.759353
11.79 -0.794813
11.8 -0.827428
11.81 -0.856785
11.82 -0.881471
11.83 -0.901265
11.84 -0.914596
11.85 -0.920869
11.86 -0.919302
11.87 -0.908465
11.88 -0.888821
11.89 -0.858452
11.9 -0.818353
11.91 -0.767795
11.92 -0.706863
11.93 -0.636559
11.94 -0.556129
11.95 -0.467693
11.96 -0.371213
11.97 -0.268341
11.98 -0.160299
11.99 -0.0483463
12 0.0656179
12.01 0.180009
12.02 0.292941
12.03 0.40251
12.04 0.506625
12.05 0.603971
12.06 0.69148
12.07 0.768909
12.08 0.833481
12.09 0.884619
12.1 0.921465
12.11 0.942239
12.12 0.948487
12.13 0.938018
12.14 0.913328
12.15 0.874353
12.16 0.822403
12.17 0.759808
12.18 0.687148
12.19 0.607811
12.2 0.523192
12.21 0.435913
12.22 0.347961
12.23 0.261506
12.24 0.17797
12.25 0.099402
12.26 0.0262938
12.27 -0.0403455
12.28 -0.100171
12.29 -0.15375
12.3 -0.200688
12.31 -0.242643
12.32 -0.280004
12.33 -0.314215
12.34 -0.34637
12.35 -0.377567
12.36 -0.408802
12.37 -0.440907
12.38 -0.474233
12.39 -0.508966
