# xPDFsuite Configuration #
[PDF]
wavelength = 0.1432
dataformat = twotheta
inputfile = 1_1Pd_CeO2_cycle-00022.chi
backgroundfile = background-00000.chi
mode = xray
bgscale = 1.007
composition = CeO2
outputtype = gr
qmaxinst = 28.8974762299
qmin = 0.5
qmax = 27.9
rmax = 50.0
rmin = 0.0
rstep = 0.01
rpoly = 1.8657

[Misc]
inputdir = G:/SankarDec16/1Pd/Chi
savedir = D:/DATA/APS_CeO2/1Pd
backgroundfilefull = G:/SankarDec16/Background/background-00000.chi

#### start data
#S 1
#L r($\AA$)  G($\AA^{-2}$)
0 0
0.01 -0.00809679
0.02 -0.0155847
0.03 -0.0218367
0.04 -0.0263803
0.05 -0.0289524
0.06 -0.0291297
0.07 -0.0271928
0.08 -0.0230048
0.09 -0.0171017
0.1 -0.00985412
0.11 -0.00182972
0.12 0.00635092
0.13 0.0139929
0.14 0.0206014
0.15 0.0255723
0.16 0.0285499
0.17 0.0293909
0.18 0.0278045
0.19 0.0242021
0.2 0.0185965
0.21 0.0116123
0.22 0.00371009
0.23 -0.004473
0.24 -0.0123518
0.25 -0.0191776
0.26 -0.0245925
0.27 -0.0280433
0.28 -0.0293078
0.29 -0.0283693
0.3 -0.0250833
0.31 -0.0199731
0.32 -0.013201
0.33 -0.00545147
0.34 0.00274626
0.35 0.0107146
0.36 0.0179312
0.37 0.0236283
0.38 0.0276013
0.39 0.0293743
0.4 0.0288688
0.41 0.0261963
0.42 0.0213652
0.43 0.0149872
0.44 0.0073668
0.45 -0.000783013
0.46 -0.008889
0.47 -0.0162641
0.48 -0.0224735
0.49 -0.0267659
0.5 -0.0291003
0.51 -0.0291002
0.52 -0.0268352
0.53 -0.02254
0.54 -0.0163769
0.55 -0.00901741
0.56 -0.000894549
0.57 0.00728273
0.58 0.0149241
0.59 0.0213645
0.6 0.0262774
0.61 0.0289634
0.62 0.0295471
0.63 0.02777
0.64 0.023847
0.65 0.0181257
0.66 0.0109154
0.67 0.00291656
0.68 -0.00532902
0.69 -0.0131491
0.7 -0.0199641
0.71 -0.0251616
0.72 -0.0285391
0.73 -0.0294818
0.74 -0.0282745
0.75 -0.0247886
0.76 -0.0193746
0.77 -0.0124765
0.78 -0.00453551
0.79 0.00375221
0.8 0.0117633
0.81 0.0188946
0.82 0.024606
0.83 0.0283689
0.84 0.0301152
0.85 0.0293467
0.86 0.0264946
0.87 0.0215677
0.88 0.0150347
0.89 0.0074128
0.9 -0.000747454
0.91 -0.00879312
0.92 -0.0160556
0.93 -0.0220374
0.94 -0.0262747
0.95 -0.0283617
0.96 -0.0283772
0.97 -0.0259891
0.98 -0.0217597
0.99 -0.0158587
1 -0.00886484
1.01 -0.00135202
1.02 0.00601986
1.03 0.0126839
1.04 0.0179362
1.05 0.021426
1.06 0.0227933
1.07 0.021789
1.08 0.0186704
1.09 0.0133125
1.1 0.00643444
1.11 -0.00159062
1.12 -0.0100375
1.13 -0.0182457
1.14 -0.0253769
1.15 -0.0309399
1.16 -0.0341049
1.17 -0.034646
1.18 -0.0322443
1.19 -0.0267313
1.2 -0.0185483
1.21 -0.00763509
1.22 0.00506885
1.23 0.0190674
1.24 0.0334707
1.25 0.0474886
1.26 0.0601159
1.27 0.0707864
1.28 0.0784976
1.29 0.0829667
1.3 0.0837658
1.31 0.0805948
1.32 0.0738986
1.33 0.0633631
1.34 0.0500036
1.35 0.0341273
1.36 0.0165754
1.37 -0.00187282
1.38 -0.0203993
1.39 -0.0382647
1.4 -0.0546228
1.41 -0.0689858
1.42 -0.0808464
1.43 -0.0897443
1.44 -0.0958096
1.45 -0.0985023
1.46 -0.0984159
1.47 -0.0954692
1.48 -0.0900493
1.49 -0.0825597
1.5 -0.0731914
1.51 -0.0625263
1.52 -0.0507509
1.53 -0.0382884
1.54 -0.0253772
1.55 -0.0122612
1.56 0.000858519
1.57 0.0137741
1.58 0.0263444
1.59 0.0383567
1.6 0.04961
1.61 0.0599225
1.62 0.0688903
1.63 0.0764062
1.64 0.0819296
1.65 0.0853057
1.66 0.086185
1.67 0.0841833
1.68 0.0794175
1.69 0.0713014
1.7 0.0603662
1.71 0.0465049
1.72 0.0301506
1.73 0.0118332
1.74 -0.00796796
1.75 -0.0283883
1.76 -0.0486719
1.77 -0.0679808
1.78 -0.0855296
1.79 -0.10044
1.8 -0.11243
1.81 -0.120481
1.82 -0.124945
1.83 -0.125462
1.84 -0.122392
1.85 -0.116299
1.86 -0.107614
1.87 -0.097453
1.88 -0.0866202
1.89 -0.0762064
1.9 -0.0671459
1.91 -0.060474
1.92 -0.0566056
1.93 -0.0566195
1.94 -0.0601888
1.95 -0.0676235
1.96 -0.0784563
1.97 -0.0919864
1.98 -0.107517
1.99 -0.123783
2 -0.139604
2.01 -0.153712
2.02 -0.164887
2.03 -0.171754
2.04 -0.173883
2.05 -0.169624
2.06 -0.159496
2.07 -0.142809
2.08 -0.119959
2.09 -0.0916495
2.1 -0.0581419
2.11 -0.0210023
2.12 0.0191238
2.13 0.0608049
2.14 0.103051
2.15 0.144798
2.16 0.185377
2.17 0.223928
2.18 0.260444
2.19 0.294685
2.2 0.326931
2.21 0.357634
2.22 0.387256
2.23 0.416522
2.24 0.446023
2.25 0.476256
2.26 0.507532
2.27 0.539951
2.28 0.573175
2.29 0.606661
2.3 0.639446
2.31 0.670243
2.32 0.697503
2.33 0.719868
2.34 0.73485
2.35 0.741849
2.36 0.738212
2.37 0.723675
2.38 0.69725
2.39 0.658181
2.4 0.608002
2.41 0.545794
2.42 0.474745
2.43 0.395921
2.44 0.312085
2.45 0.225898
2.46 0.140344
2.47 0.0580267
2.48 -0.0177578
2.49 -0.0851277
2.5 -0.142065
2.51 -0.186658
2.52 -0.219526
2.53 -0.238638
2.54 -0.24669
2.55 -0.243923
2.56 -0.232636
2.57 -0.215287
2.58 -0.194129
2.59 -0.172167
2.6 -0.152033
2.61 -0.135993
2.62 -0.125984
2.63 -0.123835
2.64 -0.129497
2.65 -0.144523
2.66 -0.167077
2.67 -0.19683
2.68 -0.231906
2.69 -0.270298
2.7 -0.309895
2.71 -0.348431
2.72 -0.383507
2.73 -0.413498
2.74 -0.436911
2.75 -0.452429
2.76 -0.460522
2.77 -0.460183
2.78 -0.453458
2.79 -0.441054
2.8 -0.424995
2.81 -0.407275
2.82 -0.390135
2.83 -0.375452
2.84 -0.365523
2.85 -0.361475
2.86 -0.364393
2.87 -0.375052
2.88 -0.392524
2.89 -0.41711
2.9 -0.446475
2.91 -0.479349
2.92 -0.513415
2.93 -0.546589
2.94 -0.57625
2.95 -0.60095
2.96 -0.618243
2.97 -0.627545
2.98 -0.628104
2.99 -0.619598
3 -0.603559
3.01 -0.580172
3.02 -0.552299
3.03 -0.521676
3.04 -0.490981
3.05 -0.46247
3.06 -0.439043
3.07 -0.421926
3.08 -0.413591
3.09 -0.414232
3.1 -0.42429
3.11 -0.443654
3.12 -0.470371
3.13 -0.503739
3.14 -0.54063
3.15 -0.578943
3.16 -0.615864
3.17 -0.649192
3.18 -0.676036
3.19 -0.695645
3.2 -0.705919
3.21 -0.707323
3.22 -0.700078
3.23 -0.685157
3.24 -0.665028
3.25 -0.641583
3.26 -0.618077
3.27 -0.5974
3.28 -0.582577
3.29 -0.575675
3.3 -0.579889
3.31 -0.594981
3.32 -0.622874
3.33 -0.66194
3.34 -0.711062
3.35 -0.768102
3.36 -0.829533
3.37 -0.892037
3.38 -0.951659
3.39 -1.00439
3.4 -1.04661
3.41 -1.07612
3.42 -1.08909
3.43 -1.0867
3.44 -1.06701
3.45 -1.03289
3.46 -0.986368
3.47 -0.930821
3.48 -0.871021
3.49 -0.811701
3.5 -0.757637
3.51 -0.713825
3.52 -0.684238
3.53 -0.670828
3.54 -0.677063
3.55 -0.700126
3.56 -0.740062
3.57 -0.791267
3.58 -0.848489
3.59 -0.903711
3.6 -0.949306
3.61 -0.972657
3.62 -0.967091
3.63 -0.920428
3.64 -0.824062
3.65 -0.673486
3.66 -0.456289
3.67 -0.178383
3.68 0.168593
3.69 0.575778
3.7 1.03881
3.71 1.55012
3.72 2.09427
3.73 2.6608
3.74 3.23083
3.75 3.78809
3.76 4.31422
3.77 4.79525
3.78 5.20805
3.79 5.54847
3.8 5.79484
3.81 5.94651
3.82 5.99697
3.83 5.94039
3.84 5.78992
3.85 5.53632
3.86 5.2034
3.87 4.79551
3.88 4.32948
3.89 3.82216
3.9 3.28743
3.91 2.74432
3.92 2.20825
3.93 1.69354
3.94 1.21237
3.95 0.777585
3.96 0.391244
3.97 0.0671221
3.98 -0.201619
3.99 -0.410508
4 -0.564026
4.01 -0.669262
4.02 -0.728061
4.03 -0.753687
4.04 -0.750264
4.05 -0.728755
4.06 -0.696165
4.07 -0.659849
4.08 -0.625565
4.09 -0.598974
4.1 -0.582168
4.11 -0.577744
4.12 -0.585853
4.13 -0.605143
4.14 -0.634787
4.15 -0.670935
4.16 -0.711167
4.17 -0.751676
4.18 -0.789373
4.19 -0.820782
4.2 -0.844259
4.21 -0.856232
4.22 -0.857066
4.23 -0.845183
4.24 -0.820918
4.25 -0.785429
4.26 -0.738655
4.27 -0.683419
4.28 -0.620274
4.29 -0.551591
4.3 -0.478746
4.31 -0.403119
4.32 -0.326059
4.33 -0.248363
4.34 -0.170762
4.35 -0.0936683
4.36 -0.0173373
4.37 0.0581311
4.38 0.132479
4.39 0.205658
4.4 0.277142
4.41 0.346498
4.42 0.412955
4.43 0.475249
4.44 0.532714
4.45 0.582956
4.46 0.625533
4.47 0.658326
4.48 0.680073
4.49 0.690267
4.5 0.686599
4.51 0.670479
4.52 0.640246
4.53 0.597568
4.54 0.543122
4.55 0.477931
4.56 0.404722
4.57 0.324521
4.58 0.24058
4.59 0.154862
4.6 0.0698798
4.61 -0.0124724
4.62 -0.0897871
4.63 -0.161346
4.64 -0.225302
4.65 -0.281694
4.66 -0.330295
4.67 -0.371112
4.68 -0.405595
4.69 -0.433815
4.7 -0.457851
4.71 -0.478592
4.72 -0.497484
4.73 -0.515675
4.74 -0.53418
4.75 -0.553614
4.76 -0.574506
4.77 -0.596806
4.78 -0.620316
4.79 -0.644531
4.8 -0.668743
4.81 -0.691993
4.82 -0.713535
4.83 -0.732391
4.84 -0.747831
4.85 -0.759535
4.86 -0.766728
4.87 -0.769991
4.88 -0.76908
4.89 -0.764889
4.9 -0.758072
4.91 -0.749541
4.92 -0.740401
4.93 -0.731748
4.94 -0.724504
4.95 -0.71964
4.96 -0.717843
4.97 -0.719364
4.98 -0.724803
4.99 -0.733558
5 -0.745714
5.01 -0.760422
5.02 -0.777056
5.03 -0.794808
5.04 -0.812808
5.05 -0.830192
5.06 -0.846355
5.07 -0.860657
5.08 -0.872728
5.09 -0.882509
5.1 -0.889706
5.11 -0.894776
5.12 -0.897652
5.13 -0.898746
5.14 -0.898185
5.15 -0.895933
5.16 -0.892027
5.17 -0.885721
5.18 -0.876649
5.19 -0.863594
5.2 -0.845254
5.21 -0.820538
5.22 -0.786808
5.23 -0.743667
5.24 -0.688191
5.25 -0.619935
5.26 -0.537732
5.27 -0.440302
5.28 -0.329294
5.29 -0.203275
5.3 -0.0658217
5.31 0.0818598
5.32 0.236381
5.33 0.394122
5.34 0.550759
5.35 0.70219
5.36 0.842855
5.37 0.968823
5.38 1.07579
5.39 1.15852
5.4 1.21669
5.41 1.24355
5.42 1.24209
5.43 1.20963
5.44 1.14761
5.45 1.05927
5.46 0.944729
5.47 0.811052
5.48 0.66036
5.49 0.499126
5.5 0.332025
5.51 0.164515
5.52 0.00107426
5.53 -0.152547
5.54 -0.293905
5.55 -0.418999
5.56 -0.52578
5.57 -0.614074
5.58 -0.681289
5.59 -0.730764
5.6 -0.761533
5.61 -0.777081
5.62 -0.779397
5.63 -0.770735
5.64 -0.754672
5.65 -0.73288
5.66 -0.708434
5.67 -0.682947
5.68 -0.657957
5.69 -0.634236
5.7 -0.61232
5.71 -0.591803
5.72 -0.572236
5.73 -0.552577
5.74 -0.531771
5.75 -0.508441
5.76 -0.481856
5.77 -0.450454
5.78 -0.41433
5.79 -0.372914
5.8 -0.326593
5.81 -0.276294
5.82 -0.222879
5.83 -0.168248
5.84 -0.114189
5.85 -0.0627824
5.86 -0.0160331
5.87 0.0235701
5.88 0.055143
5.89 0.0756501
5.9 0.085541
5.91 0.0833421
5.92 0.069166
5.93 0.0440399
5.94 0.00768309
5.95 -0.0371236
5.96 -0.0897345
5.97 -0.147561
5.98 -0.208801
5.99 -0.271427
6 -0.333633
6.01 -0.393546
6.02 -0.450215
6.03 -0.502503
6.04 -0.549944
6.05 -0.592702
6.06 -0.630492
6.07 -0.664504
6.08 -0.695046
6.09 -0.723312
6.1 -0.750125
6.11 -0.77634
6.12 -0.802633
6.13 -0.829525
6.14 -0.857112
6.15 -0.885345
6.16 -0.913804
6.17 -0.941923
6.18 -0.968763
6.19 -0.993662
6.2 -1.01545
6.21 -1.03356
6.22 -1.04737
6.23 -1.05629
6.24 -1.06078
6.25 -1.06046
6.26 -1.05658
6.27 -1.04972
6.28 -1.0411
6.29 -1.03188
6.3 -1.02329
6.31 -1.01614
6.32 -1.01128
6.33 -1.00866
6.34 -1.00788
6.35 -1.00774
6.36 -1.00646
6.37 -1.00084
6.38 -0.988115
6.39 -0.963798
6.4 -0.923267
6.41 -0.863158
6.42 -0.775693
6.43 -0.66036
6.44 -0.509498
6.45 -0.322698
6.46 -0.0977206
6.47 0.168103
6.48 0.469608
6.49 0.809859
6.5 1.17939
6.51 1.57493
6.52 1.98817
6.53 2.41032
6.54 2.83142
6.55 3.24176
6.56 3.62881
6.57 3.98333
6.58 4.29553
6.59 4.55301
6.6 4.75459
6.61 4.88408
6.62 4.94708
6.63 4.93613
6.64 4.85242
6.65 4.70205
6.66 4.48182
6.67 4.20724
6.68 3.87963
6.69 3.51285
6.7 3.11612
6.71 2.69996
6.72 2.27634
6.73 1.85599
6.74 1.44834
6.75 1.06298
6.76 0.7077
6.77 0.386209
6.78 0.107589
6.79 -0.131564
6.8 -0.325282
6.81 -0.477813
6.82 -0.590722
6.83 -0.665577
6.84 -0.710255
6.85 -0.725199
6.86 -0.719535
6.87 -0.696593
6.88 -0.661955
6.89 -0.620362
6.9 -0.575426
6.91 -0.53064
6.92 -0.488555
6.93 -0.450708
6.94 -0.418033
6.95 -0.391176
6.96 -0.36935
6.97 -0.352771
6.98 -0.33997
6.99 -0.330448
7 -0.323331
7.01 -0.317947
7.02 -0.314121
7.03 -0.311602
7.04 -0.310832
7.05 -0.312245
7.06 -0.316573
7.07 -0.32498
7.08 -0.337875
7.09 -0.356986
7.1 -0.382179
7.11 -0.414367
7.12 -0.453572
7.13 -0.49914
7.14 -0.551084
7.15 -0.607502
7.16 -0.667474
7.17 -0.728941
7.18 -0.790145
7.19 -0.848885
7.2 -0.903706
7.21 -0.952023
7.22 -0.993288
7.23 -1.02594
7.24 -1.04945
7.25 -1.06427
7.26 -1.06979
7.27 -1.06811
7.28 -1.05968
7.29 -1.04667
7.3 -1.03072
7.31 -1.01373
7.32 -0.997421
7.33 -0.983601
7.34 -0.973091
7.35 -0.966811
7.36 -0.964852
7.37 -0.966554
7.38 -0.971173
7.39 -0.976765
7.4 -0.981264
7.41 -0.982155
7.42 -0.976863
7.43 -0.961929
7.44 -0.935956
7.45 -0.894402
7.46 -0.837365
7.47 -0.762263
7.48 -0.668542
7.49 -0.557329
7.5 -0.427414
7.51 -0.282967
7.52 -0.124701
7.53 0.0430536
7.54 0.216896
7.55 0.392549
7.56 0.565862
7.57 0.731474
7.58 0.886118
7.59 1.02507
7.6 1.14468
7.61 1.24344
7.62 1.31613
7.63 1.36493
7.64 1.38613
7.65 1.38193
7.66 1.35299
7.67 1.29971
7.68 1.22673
7.69 1.13384
7.7 1.02674
7.71 0.907492
7.72 0.779906
7.73 0.647533
7.74 0.51351
7.75 0.38099
7.76 0.253079
7.77 0.132044
7.78 0.0199389
7.79 -0.0807414
7.8 -0.16996
7.81 -0.244669
7.82 -0.3061
7.83 -0.352876
7.84 -0.385113
7.85 -0.403902
7.86 -0.408152
7.87 -0.400638
7.88 -0.380996
7.89 -0.351519
7.9 -0.313613
7.91 -0.268802
7.92 -0.219629
7.93 -0.167768
7.94 -0.115802
7.95 -0.0659193
7.96 -0.0205248
7.97 0.0187129
7.98 0.0487657
7.99 0.0692834
8 0.0776598
8.01 0.0738065
8.02 0.0572011
8.03 0.0271449
8.04 -0.014412
8.05 -0.0681826
8.06 -0.131059
8.07 -0.201912
8.08 -0.27829
8.09 -0.357713
8.1 -0.437769
8.11 -0.516093
8.12 -0.590187
8.13 -0.658381
8.14 -0.719253
8.15 -0.77127
8.16 -0.814979
8.17 -0.849124
8.18 -0.875577
8.19 -0.894791
8.2 -0.908383
8.21 -0.918194
8.22 -0.925732
8.23 -0.932898
8.24 -0.941117
8.25 -0.951382
8.26 -0.964158
8.27 -0.979416
8.28 -0.996102
8.29 -1.01264
8.3 -1.02673
8.31 -1.03529
8.32 -1.03461
8.33 -1.02181
8.34 -0.990778
8.35 -0.940335
8.36 -0.864369
8.37 -0.761629
8.38 -0.629952
8.39 -0.466349
8.4 -0.274301
8.41 -0.0505823
8.42 0.198098
8.43 0.469907
8.44 0.759184
8.45 1.05939
8.46 1.36401
8.47 1.66529
8.48 1.95471
8.49 2.22494
8.5 2.46889
8.51 2.67734
8.52 2.84878
8.53 2.97182
8.54 3.04934
8.55 3.07603
8.56 3.05186
8.57 2.98096
8.58 2.8602
8.59 2.70025
8.6 2.50147
8.61 2.27302
8.62 2.02104
8.63 1.75217
8.64 1.47482
8.65 1.19556
8.66 0.921286
8.67 0.658127
8.68 0.411551
8.69 0.184287
8.7 -0.0176138
8.71 -0.195775
8.72 -0.346297
8.73 -0.471283
8.74 -0.57159
8.75 -0.64777
8.76 -0.704664
8.77 -0.742342
8.78 -0.76641
8.79 -0.778936
8.8 -0.783394
8.81 -0.782912
8.82 -0.779817
8.83 -0.776563
8.84 -0.774934
8.85 -0.776159
8.86 -0.781013
8.87 -0.790155
8.88 -0.803129
8.89 -0.820217
8.9 -0.840341
8.91 -0.863041
8.92 -0.88744
8.93 -0.912698
8.94 -0.938052
8.95 -0.962842
8.96 -0.986434
8.97 -1.00849
8.98 -1.02878
8.99 -1.04706
9 -1.0636
9.01 -1.07823
9.02 -1.0914
9.03 -1.10322
9.04 -1.11393
9.05 -1.12375
9.06 -1.13268
9.07 -1.14082
9.08 -1.14796
9.09 -1.15388
9.1 -1.15822
9.11 -1.16031
9.12 -1.15984
9.13 -1.15561
9.14 -1.14737
9.15 -1.13409
9.16 -1.11502
9.17 -1.08996
9.18 -1.05752
9.19 -1.01841
9.2 -0.971642
9.21 -0.917865
9.22 -0.857399
9.23 -0.790551
9.24 -0.718853
9.25 -0.642835
9.26 -0.564465
9.27 -0.485125
9.28 -0.406718
9.29 -0.330839
9.3 -0.259937
9.31 -0.195026
9.32 -0.138552
9.33 -0.0914283
9.34 -0.0547513
9.35 -0.0300697
9.36 -0.0164423
9.37 -0.0156578
9.38 -0.0256471
9.39 -0.0463847
9.4 -0.0764867
9.41 -0.113966
9.42 -0.157733
9.43 -0.205016
9.44 -0.254112
9.45 -0.302738
9.46 -0.349079
9.47 -0.39105
9.48 -0.427825
9.49 -0.457364
9.5 -0.479931
9.51 -0.494807
9.52 -0.502262
9.53 -0.503326
9.54 -0.498267
9.55 -0.489156
9.56 -0.477018
9.57 -0.463732
9.58 -0.450789
9.59 -0.439906
9.6 -0.432063
9.61 -0.428943
9.62 -0.430695
9.63 -0.438053
9.64 -0.45103
9.65 -0.468999
9.66 -0.491941
9.67 -0.518361
9.68 -0.547658
9.69 -0.578509
9.7 -0.609928
9.71 -0.640875
9.72 -0.670686
9.73 -0.698551
9.74 -0.724411
9.75 -0.748073
9.76 -0.769735
9.77 -0.789831
9.78 -0.808635
9.79 -0.826712
9.8 -0.844248
9.81 -0.861294
9.82 -0.877519
9.83 -0.891952
9.84 -0.903558
9.85 -0.909717
9.86 -0.908577
9.87 -0.896656
9.88 -0.870188
9.89 -0.826675
9.9 -0.759283
9.91 -0.667629
9.92 -0.545034
9.93 -0.390423
9.94 -0.201687
9.95 0.024724
9.96 0.284667
9.97 0.582091
9.98 0.909549
9.99 1.26519
10 1.64295
10.01 2.03532
10.02 2.43539
10.03 2.83385
10.04 3.22114
10.05 3.58826
10.06 3.92675
10.07 4.22519
10.08 4.48108
10.09 4.68042
10.1 4.82536
10.11 4.90889
10.12 4.92961
10.13 4.89193
10.14 4.79035
10.15 4.63753
10.16 4.43269
10.17 4.18637
10.18 3.90572
10.19 3.5979
10.2 3.27385
10.21 2.94056
10.22 2.60745
10.23 2.28181
10.24 1.97079
10.25 1.67836
10.26 1.41186
10.27 1.1704
10.28 0.958611
10.29 0.774755
10.3 0.617966
10.31 0.487864
10.32 0.379014
10.33 0.291184
10.34 0.218133
10.35 0.157328
10.36 0.104827
10.37 0.0570881
10.38 0.011437
10.39 -0.0346887
10.4 -0.0831812
10.41 -0.135131
10.42 -0.1911
10.43 -0.251437
10.44 -0.31531
10.45 -0.382464
10.46 -0.451491
10.47 -0.521417
10.48 -0.590949
10.49 -0.659072
10.5 -0.724393
10.51 -0.78645
10.52 -0.844113
10.53 -0.897124
10.54 -0.945169
10.55 -0.987704
10.56 -1.02528
10.57 -1.0571
10.58 -1.08391
10.59 -1.1054
10.6 -1.12157
10.61 -1.13275
10.62 -1.13812
10.63 -1.13838
10.64 -1.13273
10.65 -1.12142
10.66 -1.10437
10.67 -1.08124
10.68 -1.05282
10.69 -1.01862
10.7 -0.979855
10.71 -0.9369
10.72 -0.890735
10.73 -0.84255
10.74 -0.793481
10.75 -0.744941
10.76 -0.698432
10.77 -0.655291
10.78 -0.616746
10.79 -0.584448
10.8 -0.558618
10.81 -0.541147
10.82 -0.531506
10.83 -0.530431
10.84 -0.537818
10.85 -0.552765
10.86 -0.575593
10.87 -0.604368
10.88 -0.638747
10.89 -0.677139
10.9 -0.718381
10.91 -0.761262
10.92 -0.804496
10.93 -0.846899
10.94 -0.887587
10.95 -0.925653
10.96 -0.960401
10.97 -0.991644
10.98 -1.01859
10.99 -1.04174
11 -1.06071
11.01 -1.07599
11.02 -1.08787
11.03 -1.09657
11.04 -1.10289
11.05 -1.10701
11.06 -1.10972
11.07 -1.11143
11.08 -1.11271
11.09 -1.11399
11.1 -1.11577
11.11 -1.11832
11.12 -1.122
11.13 -1.12689
11.14 -1.13301
11.15 -1.14029
11.16 -1.14828
11.17 -1.15651
11.18 -1.16414
11.19 -1.17015
11.2 -1.17314
11.21 -1.17193
11.22 -1.16392
11.23 -1.1482
11.24 -1.12171
11.25 -1.0829
11.26 -1.02987
11.27 -0.959455
11.28 -0.872065
11.29 -0.763525
11.3 -0.635554
11.31 -0.486579
11.32 -0.316983
11.33 -0.129149
11.34 0.0773846
11.35 0.297489
11.36 0.529406
11.37 0.768186
11.38 1.00958
11.39 1.24818
11.4 1.47951
11.41 1.69655
11.42 1.89581
11.43 2.07143
11.44 2.21864
11.45 2.33609
11.46 2.41632
11.47 2.46278
11.48 2.47053
11.49 2.44226
11.5 2.37931
11.51 2.2819
11.52 2.15686
11.53 2.00424
11.54 1.83202
11.55 1.64368
11.56 1.44482
11.57 1.24079
11.58 1.0365
11.59 0.836313
11.6 0.644769
11.61 0.46477
11.62 0.298596
11.63 0.14912
11.64 0.015268
11.65 -0.100366
11.66 -0.200589
11.67 -0.285536
11.68 -0.356979
11.69 -0.417643
11.7 -0.468483
11.71 -0.513001
11.72 -0.552585
11.73 -0.589532
11.74 -0.625324
11.75 -0.661223
11.76 -0.697917
11.77 -0.735873
11.78 -0.774797
11.79 -0.814213
11.8 -0.853126
11.81 -0.890482
11.82 -0.924414
11.83 -0.953896
11.84 -0.976732
11.85 -0.991652
11.86 -0.997313
11.87 -0.991581
11.88 -0.974744
11.89 -0.944136
11.9 -0.900887
11.91 -0.843971
11.92 -0.773475
11.93 -0.690745
11.94 -0.594897
11.95 -0.48881
11.96 -0.372628
11.97 -0.248679
11.98 -0.118734
11.99 0.0153036
12 0.150918
12.01 0.28573
12.02 0.417359
12.03 0.543213
12.04 0.660599
12.05 0.767993
12.06 0.861434
12.07 0.941005
12.08 1.00333
12.09 1.04808
12.1 1.07454
12.11 1.08093
12.12 1.06962
12.13 1.03847
12.14 0.99099
12.15 0.927654
12.16 0.850601
12.17 0.762933
12.18 0.666154
12.19 0.564257
12.2 0.459544
12.21 0.355134
12.22 0.253455
12.23 0.157311
12.24 0.0678393
12.25 -0.012302
12.26 -0.0832965
12.27 -0.144206
12.28 -0.19518
12.29 -0.237538
12.3 -0.271338
12.31 -0.299234
12.32 -0.322301
12.33 -0.342807
12.34 -0.362508
12.35 -0.383297
12.36 -0.406406
12.37 -0.433421
12.38 -0.464534
12.39 -0.500131
