# xPDFsuite Configuration #
[PDF]
wavelength = 0.1432
dataformat = twotheta
inputfile = 1_1Pd_CeO2_cycle-00093.chi
backgroundfile = background-00000.chi
mode = xray
bgscale = 1.007
composition = CeO2
outputtype = gr
qmaxinst = 28.8974762299
qmin = 0.5
qmax = 27.9
rmax = 50.0
rmin = 0.0
rstep = 0.01
rpoly = 1.8657

[Misc]
inputdir = G:/SankarDec16/1Pd/Chi
savedir = D:/DATA/APS_CeO2/1Pd
backgroundfilefull = G:/SankarDec16/Background/background-00000.chi

#### start data
#S 1
#L r($\AA$)  G($\AA^{-2}$)
0 0
0.01 -0.00613402
0.02 -0.0118059
0.03 -0.0165399
0.04 -0.0199775
0.05 -0.0219193
0.06 -0.0220447
0.07 -0.0205671
0.08 -0.0173835
0.09 -0.0129013
0.1 -0.00740248
0.11 -0.00131861
0.12 0.00487952
0.13 0.0106638
0.14 0.0156601
0.15 0.01941
0.16 0.0216453
0.17 0.0222587
0.18 0.0210315
0.19 0.0182775
0.2 0.0140089
0.21 0.00870081
0.22 0.00270414
0.23 -0.00349652
0.24 -0.00945796
0.25 -0.0146113
0.26 -0.0186876
0.27 -0.0212686
0.28 -0.0221883
0.29 -0.0214371
0.3 -0.0189087
0.31 -0.0150026
0.32 -0.0098455
0.33 -0.00395799
0.34 0.00225689
0.35 0.00828429
0.36 0.0137298
0.37 0.0180109
0.38 0.020977
0.39 0.0222694
0.4 0.0218331
0.41 0.0197565
0.42 0.0160512
0.43 0.0111833
0.44 0.0053886
0.45 -0.000791719
0.46 -0.0069217
0.47 -0.0124804
0.48 -0.0171415
0.49 -0.0203366
0.5 -0.0220405
0.51 -0.0219722
0.52 -0.02019
0.53 -0.0168768
0.54 -0.0121617
0.55 -0.00655587
0.56 -0.000392593
0.57 0.00579141
0.58 0.0115484
0.59 0.016376
0.6 0.0200316
0.61 0.0219885
0.62 0.0223485
0.63 0.0209216
0.64 0.0178776
0.65 0.013485
0.66 0.00798521
0.67 0.00190966
0.68 -0.00432616
0.69 -0.0102155
0.7 -0.0153204
0.71 -0.0191805
0.72 -0.0216492
0.73 -0.0222659
0.74 -0.0212548
0.75 -0.0185255
0.76 -0.0143506
0.77 -0.00907082
0.78 -0.00302708
0.79 0.00325493
0.8 0.00929994
0.81 0.0146562
0.82 0.0189183
0.83 0.0216923
0.84 0.0229344
0.85 0.0222758
0.86 0.0200502
0.87 0.0162722
0.88 0.0113017
0.89 0.00553218
0.9 -0.00061653
0.91 -0.0066563
0.92 -0.0120841
0.93 -0.016534
0.94 -0.0196651
0.95 -0.0211846
0.96 -0.0211625
0.97 -0.019368
0.98 -0.0162316
0.99 -0.0118968
1 -0.00680644
1.01 -0.00139449
1.02 0.00383518
1.03 0.00847064
1.04 0.0119852
1.05 0.0141377
1.06 0.0146767
1.07 0.0134437
1.08 0.0106576
1.09 0.00626803
1.1 0.000835951
1.11 -0.00531645
1.12 -0.0116172
1.13 -0.0175535
1.14 -0.0224549
1.15 -0.0259706
1.16 -0.0274458
1.17 -0.0267401
1.18 -0.0236242
1.19 -0.0179944
1.2 -0.0102322
1.21 -0.000322962
1.22 0.0109611
1.23 0.0231923
1.24 0.0356355
1.25 0.0476415
1.26 0.0583662
1.27 0.0673572
1.28 0.0737651
1.29 0.0773607
1.3 0.0777759
1.31 0.0747411
1.32 0.0686266
1.33 0.0591247
1.34 0.047093
1.35 0.0327575
1.36 0.0168193
1.37 -5.9804e-05
1.38 -0.0171992
1.39 -0.0339282
1.4 -0.0495121
1.41 -0.0634716
1.42 -0.0753163
1.43 -0.0845708
1.44 -0.0912781
1.45 -0.0948559
1.46 -0.095767
1.47 -0.0938416
1.48 -0.089361
1.49 -0.082655
1.5 -0.0738276
1.51 -0.0634604
1.52 -0.0517056
1.53 -0.0390457
1.54 -0.0257734
1.55 -0.0122256
1.56 0.00129393
1.57 0.0144398
1.58 0.0269869
1.59 0.0386038
1.6 0.0490263
1.61 0.0580588
1.62 0.0652588
1.63 0.0706322
1.64 0.073692
1.65 0.074457
1.66 0.0727367
1.67 0.0683624
1.68 0.0616088
1.69 0.0521804
1.7 0.0406765
1.71 0.0271938
1.72 0.0122257
1.73 -0.00371873
1.74 -0.0201057
1.75 -0.0363113
1.76 -0.0516582
1.77 -0.0656147
1.78 -0.0776445
1.79 -0.087197
1.8 -0.0942483
1.81 -0.0981911
1.82 -0.0995085
1.83 -0.0981362
1.84 -0.0945434
1.85 -0.0892895
1.86 -0.0829179
1.87 -0.0762447
1.88 -0.0700222
1.89 -0.0649619
1.9 -0.0617129
1.91 -0.0609335
1.92 -0.0627041
1.93 -0.0676571
1.94 -0.0752623
1.95 -0.0854959
1.96 -0.09774
1.97 -0.111275
1.98 -0.125269
1.99 -0.13876
2 -0.150613
2.01 -0.159955
2.02 -0.165864
2.03 -0.167359
2.04 -0.164362
2.05 -0.155686
2.06 -0.142062
2.07 -0.123143
2.08 -0.0994754
2.09 -0.0717758
2.1 -0.040434
2.11 -0.00669711
2.12 0.0288504
2.13 0.0651878
2.14 0.101639
2.15 0.137547
2.16 0.172599
2.17 0.206411
2.18 0.239176
2.19 0.270995
2.2 0.302284
2.21 0.333494
2.22 0.365196
2.23 0.397779
2.24 0.431755
2.25 0.467199
2.26 0.504101
2.27 0.54215
2.28 0.580661
2.29 0.618625
2.3 0.654902
2.31 0.687888
2.32 0.71593
2.33 0.7377
2.34 0.750641
2.35 0.754503
2.36 0.746753
2.37 0.72755
2.38 0.696239
2.39 0.652478
2.4 0.598115
2.41 0.532696
2.42 0.459531
2.43 0.379966
2.44 0.29682
2.45 0.212673
2.46 0.130517
2.47 0.0525699
2.48 -0.018057
2.49 -0.0799249
2.5 -0.131378
2.51 -0.170949
2.52 -0.199546
2.53 -0.21564
2.54 -0.221988
2.55 -0.219109
2.56 -0.209316
2.57 -0.194942
2.58 -0.178218
2.59 -0.161713
2.6 -0.147841
2.61 -0.138391
2.62 -0.134909
2.63 -0.13876
2.64 -0.149601
2.65 -0.168464
2.66 -0.193467
2.67 -0.224001
2.68 -0.25819
2.69 -0.294164
2.7 -0.329839
2.71 -0.363401
2.72 -0.39267
2.73 -0.416504
2.74 -0.433796
2.75 -0.443688
2.76 -0.446937
2.77 -0.443035
2.78 -0.434074
2.79 -0.42102
2.8 -0.40589
2.81 -0.390542
2.82 -0.377178
2.83 -0.367244
2.84 -0.362819
2.85 -0.364574
2.86 -0.37323
2.87 -0.389134
2.88 -0.411093
2.89 -0.438945
2.9 -0.470327
2.91 -0.503731
2.92 -0.536854
2.93 -0.567744
2.94 -0.593815
2.95 -0.614015
2.96 -0.626087
2.97 -0.629856
2.98 -0.624881
2.99 -0.611209
3 -0.590597
3.01 -0.563604
3.02 -0.533115
3.03 -0.501045
3.04 -0.470049
3.05 -0.442264
3.06 -0.420539
3.07 -0.405785
3.08 -0.400309
3.09 -0.403995
3.1 -0.417046
3.11 -0.439092
3.12 -0.468037
3.13 -0.502941
3.14 -0.540704
3.15 -0.579154
3.16 -0.615557
3.17 -0.647843
3.18 -0.673247
3.19 -0.69125
3.2 -0.699942
3.21 -0.69999
3.22 -0.691784
3.23 -0.67646
3.24 -0.656501
3.25 -0.63392
3.26 -0.611832
3.27 -0.593078
3.28 -0.580503
3.29 -0.575989
3.3 -0.582499
3.31 -0.599605
3.32 -0.628979
3.33 -0.668865
3.34 -0.718026
3.35 -0.77423
3.36 -0.834057
3.37 -0.894162
3.38 -0.950869
3.39 -1.00034
3.4 -1.03924
3.41 -1.06564
3.42 -1.07609
3.43 -1.07194
3.44 -1.0516
3.45 -1.01803
3.46 -0.973363
3.47 -0.921038
3.48 -0.865601
3.49 -0.811764
3.5 -0.763869
3.51 -0.726635
3.52 -0.703598
3.53 -0.696326
3.54 -0.707764
3.55 -0.734853
3.56 -0.777129
3.57 -0.828879
3.58 -0.884679
3.59 -0.936394
3.6 -0.976696
3.61 -0.992904
3.62 -0.978934
3.63 -0.922896
3.64 -0.816729
3.65 -0.656424
3.66 -0.43019
3.67 -0.144331
3.68 0.208886
3.69 0.620358
3.7 1.08542
3.71 1.59627
3.72 2.13769
3.73 2.69898
3.74 3.26187
3.75 3.81026
3.76 4.32633
3.77 4.79663
3.78 5.19857
3.79 5.52855
3.8 5.76549
3.81 5.90916
3.82 5.95341
3.83 5.8928
3.84 5.7404
3.85 5.48738
3.86 5.1571
3.87 4.75391
3.88 4.29427
3.89 3.79462
3.9 3.26852
3.91 2.73445
3.92 2.20742
3.93 1.70131
3.94 1.22796
3.95 0.799828
3.96 0.418898
3.97 0.0985686
3.98 -0.167821
3.99 -0.375904
4 -0.530023
4.01 -0.637053
4.02 -0.698748
4.03 -0.72801
4.04 -0.728809
4.05 -0.711817
4.06 -0.683844
4.07 -0.652043
4.08 -0.62205
4.09 -0.599368
4.1 -0.586077
4.11 -0.58471
4.12 -0.595428
4.13 -0.616922
4.14 -0.648357
4.15 -0.685976
4.16 -0.727352
4.17 -0.768732
4.18 -0.807032
4.19 -0.83876
4.2 -0.862283
4.21 -0.873948
4.22 -0.874135
4.23 -0.861202
4.24 -0.835463
4.25 -0.798091
4.26 -0.748991
4.27 -0.691084
4.28 -0.62495
4.29 -0.553089
4.3 -0.47699
4.31 -0.398189
4.32 -0.318164
4.33 -0.237922
4.34 -0.158274
4.35 -0.0797965
4.36 -0.00282397
4.37 0.072537
4.38 0.145941
4.39 0.217498
4.4 0.286694
4.41 0.3533
4.42 0.4167
4.43 0.475842
4.44 0.53026
4.45 0.57781
4.46 0.618189
4.47 0.649469
4.48 0.670492
4.49 0.680759
4.5 0.678049
4.51 0.663589
4.52 0.635682
4.53 0.595759
4.54 0.544303
4.55 0.482088
4.56 0.411626
4.57 0.333647
4.58 0.251279
4.59 0.166281
4.6 0.0810817
4.61 -0.00240242
4.62 -0.0818207
4.63 -0.156218
4.64 -0.223656
4.65 -0.283883
4.66 -0.336427
4.67 -0.380985
4.68 -0.418772
4.69 -0.449494
4.7 -0.475129
4.71 -0.496338
4.72 -0.514499
4.73 -0.53082
4.74 -0.546278
4.75 -0.561799
4.76 -0.578044
4.77 -0.595325
4.78 -0.613745
4.79 -0.633178
4.8 -0.653179
4.81 -0.673228
4.82 -0.692677
4.83 -0.71081
4.84 -0.726955
4.85 -0.74071
4.86 -0.751329
4.87 -0.759019
4.88 -0.763372
4.89 -0.764855
4.9 -0.76377
4.91 -0.76059
4.92 -0.756118
4.93 -0.75095
4.94 -0.745902
4.95 -0.741654
4.96 -0.73883
4.97 -0.737788
4.98 -0.7391
4.99 -0.742599
5 -0.748566
5.01 -0.756641
5.02 -0.766608
5.03 -0.778162
5.04 -0.790781
5.05 -0.804181
5.06 -0.817877
5.07 -0.831572
5.08 -0.844974
5.09 -0.857909
5.1 -0.870133
5.11 -0.881605
5.12 -0.892054
5.13 -0.901328
5.14 -0.909096
5.15 -0.914742
5.16 -0.91789
5.17 -0.917121
5.18 -0.911897
5.19 -0.900573
5.2 -0.881714
5.21 -0.854315
5.22 -0.815606
5.23 -0.765729
5.24 -0.701909
5.25 -0.624313
5.26 -0.532256
5.27 -0.42507
5.28 -0.304906
5.29 -0.171043
5.3 -0.0273419
5.31 0.124492
5.32 0.280834
5.33 0.438079
5.34 0.591654
5.35 0.737959
5.36 0.871474
5.37 0.98886
5.38 1.08626
5.39 1.159
5.4 1.20733
5.41 1.22512
5.42 1.21581
5.43 1.1772
5.44 1.11107
5.45 1.02071
5.46 0.906605
5.47 0.775395
5.48 0.629266
5.49 0.47419
5.5 0.314475
5.51 0.155103
5.52 7.42759e-06
5.53 -0.145618
5.54 -0.279771
5.55 -0.398935
5.56 -0.501414
5.57 -0.587166
5.58 -0.653953
5.59 -0.704825
5.6 -0.738925
5.61 -0.759338
5.62 -0.767762
5.63 -0.766065
5.64 -0.757329
5.65 -0.74276
5.66 -0.724998
5.67 -0.70521
5.68 -0.68458
5.69 -0.663713
5.7 -0.64278
5.71 -0.621575
5.72 -0.599491
5.73 -0.575796
5.74 -0.549645
5.75 -0.519954
5.76 -0.486435
5.77 -0.447882
5.78 -0.404819
5.79 -0.357066
5.8 -0.305363
5.81 -0.250837
5.82 -0.194719
5.83 -0.138815
5.84 -0.0851257
5.85 -0.0355428
5.86 0.00803814
5.87 0.0432876
5.88 0.0696772
5.89 0.0843613
5.9 0.0881824
5.91 0.0799418
5.92 0.0600595
5.93 0.0297731
5.94 -0.0108958
5.95 -0.059135
5.96 -0.114084
5.97 -0.173201
5.98 -0.234683
5.99 -0.296521
6 -0.35711
6.01 -0.414585
6.02 -0.468257
6.03 -0.517094
6.04 -0.560803
6.05 -0.599693
6.06 -0.633609
6.07 -0.663844
6.08 -0.69081
6.09 -0.715752
6.1 -0.739543
6.11 -0.763089
6.12 -0.787051
6.13 -0.812028
6.14 -0.838076
6.15 -0.865194
6.16 -0.892981
6.17 -0.920868
6.18 -0.948001
6.19 -0.973671
6.2 -0.996791
6.21 -1.01675
6.22 -1.03294
6.23 -1.04473
6.24 -1.05251
6.25 -1.05583
6.26 -1.05581
6.27 -1.05288
6.28 -1.04809
6.29 -1.04245
6.3 -1.03694
6.31 -1.03227
6.32 -1.02903
6.33 -1.0271
6.34 -1.02597
6.35 -1.02435
6.36 -1.02059
6.37 -1.0114
6.38 -0.994274
6.39 -0.964865
6.4 -0.918814
6.41 -0.853031
6.42 -0.760068
6.43 -0.639682
6.44 -0.484589
6.45 -0.2946
6.46 -0.0677042
6.47 0.198513
6.48 0.498962
6.49 0.836449
6.5 1.20181
6.51 1.59182
6.52 1.99842
6.53 2.41316
6.54 2.82638
6.55 3.2288
6.56 3.60827
6.57 3.95594
6.58 4.26232
6.59 4.51541
6.6 4.71406
6.61 4.84247
6.62 4.90604
6.63 4.89738
6.64 4.8175
6.65 4.67222
6.66 4.45814
6.67 4.1903
6.68 3.86972
6.69 3.50984
6.7 3.11954
6.71 2.70896
6.72 2.28992
6.73 1.87279
6.74 1.46706
6.75 1.08222
6.76 0.726159
6.77 0.402798
6.78 0.121343
6.79 -0.121217
6.8 -0.318665
6.81 -0.474891
6.82 -0.591173
6.83 -0.668758
6.84 -0.715394
6.85 -0.731225
6.86 -0.72545
6.87 -0.701333
6.88 -0.66457
6.89 -0.62011
6.9 -0.571736
6.91 -0.523284
6.92 -0.477594
6.93 -0.436522
6.94 -0.401276
6.95 -0.372817
6.96 -0.350429
6.97 -0.33463
6.98 -0.323805
6.99 -0.317493
7 -0.314655
7.01 -0.314355
7.02 -0.316196
7.03 -0.31953
7.04 -0.324452
7.05 -0.331028
7.06 -0.339672
7.07 -0.351171
7.08 -0.36586
7.09 -0.385087
7.1 -0.40889
7.11 -0.438107
7.12 -0.472931
7.13 -0.512995
7.14 -0.558519
7.15 -0.60807
7.16 -0.661082
7.17 -0.715927
7.18 -0.771214
7.19 -0.82517
7.2 -0.876476
7.21 -0.922989
7.22 -0.964038
7.23 -0.998192
7.24 -1.02481
7.25 -1.04407
7.26 -1.05522
7.27 -1.05988
7.28 -1.05816
7.29 -1.0518
7.3 -1.04207
7.31 -1.03041
7.32 -1.01834
7.33 -1.00724
7.34 -0.99796
7.35 -0.991251
7.36 -0.987268
7.37 -0.985567
7.38 -0.985485
7.39 -0.98554
7.4 -0.98392
7.41 -0.978554
7.42 -0.967228
7.43 -0.946903
7.44 -0.916408
7.45 -0.871645
7.46 -0.812722
7.47 -0.737255
7.48 -0.644678
7.49 -0.535954
7.5 -0.409849
7.51 -0.27012
7.52 -0.117283
7.53 0.0447353
7.54 0.21286
7.55 0.383199
7.56 0.551842
7.57 0.71383
7.58 0.865959
7.59 1.00371
7.6 1.12347
7.61 1.22361
7.62 1.29894
7.63 1.35129
7.64 1.37681
7.65 1.37735
7.66 1.35328
7.67 1.30469
7.68 1.23597
7.69 1.14655
7.7 1.04204
7.71 0.924291
7.72 0.79706
7.73 0.663956
7.74 0.528055
7.75 0.392789
7.76 0.261346
7.77 0.136282
7.78 0.0198828
7.79 -0.0850842
7.8 -0.178353
7.81 -0.256574
7.82 -0.320853
7.83 -0.36961
7.84 -0.402858
7.85 -0.421704
7.86 -0.424942
7.87 -0.415553
7.88 -0.393177
7.89 -0.36033
7.9 -0.318582
7.91 -0.269655
7.92 -0.216311
7.93 -0.160448
7.94 -0.104817
7.95 -0.0517965
7.96 -0.00393977
7.97 0.0370298
7.98 0.0679129
7.99 0.0884559
8 0.0959609
8.01 0.0904528
8.02 0.0714767
8.03 0.0384097
8.04 -0.00661427
8.05 -0.0642237
8.06 -0.131111
8.07 -0.206009
8.08 -0.2863
8.09 -0.369378
8.1 -0.452643
8.11 -0.533674
8.12 -0.609801
8.13 -0.679317
8.14 -0.74074
8.15 -0.792452
8.16 -0.835085
8.17 -0.86728
8.18 -0.89107
8.19 -0.906924
8.2 -0.916577
8.21 -0.922014
8.22 -0.924854
8.23 -0.927198
8.24 -0.930635
8.25 -0.936341
8.26 -0.944949
8.27 -0.956641
8.28 -0.970434
8.29 -0.98501
8.3 -0.998031
8.31 -1.00656
8.32 -1.00689
8.33 -0.996053
8.34 -0.96799
8.35 -0.921279
8.36 -0.849753
8.37 -0.751923
8.38 -0.625442
8.39 -0.467102
8.4 -0.280178
8.41 -0.0611917
8.42 0.183283
8.43 0.451607
8.44 0.73824
8.45 1.03666
8.46 1.34051
8.47 1.64186
8.48 1.93224
8.49 2.20415
8.5 2.45036
8.51 2.66152
8.52 2.83589
8.53 2.96194
8.54 3.04235
8.55 3.07167
8.56 3.04974
8.57 2.98063
8.58 2.8611
8.59 2.7019
8.6 2.50337
8.61 2.27475
8.62 2.02231
8.63 1.75276
8.64 1.47468
8.65 1.19476
8.66 0.919986
8.67 0.656601
8.68 0.410139
8.69 0.183338
8.7 -0.0177086
8.71 -0.194713
8.72 -0.343808
8.73 -0.467214
8.74 -0.565889
8.75 -0.640516
8.76 -0.696034
8.77 -0.732659
8.78 -0.756042
8.79 -0.768335
8.8 -0.773035
8.81 -0.773236
8.82 -0.771271
8.83 -0.769465
8.84 -0.76954
8.85 -0.772582
8.86 -0.779254
8.87 -0.790079
8.88 -0.804514
8.89 -0.822706
8.9 -0.843562
8.91 -0.866571
8.92 -0.890864
8.93 -0.915666
8.94 -0.940251
8.95 -0.964099
8.96 -0.986669
8.97 -1.00776
8.98 -1.02723
8.99 -1.045
9 -1.06133
9.01 -1.07618
9.02 -1.08995
9.03 -1.10274
9.04 -1.11471
9.05 -1.12597
9.06 -1.13641
9.07 -1.14598
9.08 -1.1543
9.09 -1.16105
9.1 -1.16576
9.11 -1.16763
9.12 -1.1664
9.13 -1.1608
9.14 -1.1507
9.15 -1.13518
9.16 -1.11364
9.17 -1.08606
9.18 -1.05129
9.19 -1.01019
9.2 -0.962039
9.21 -0.907598
9.22 -0.8473
9.23 -0.781568
9.24 -0.711823
9.25 -0.638644
9.26 -0.56374
9.27 -0.488337
9.28 -0.41406
9.29 -0.342232
9.3 -0.274946
9.31 -0.213
9.32 -0.158486
9.33 -0.112169
9.34 -0.0750137
9.35 -0.0484267
9.36 -0.0316584
9.37 -0.0264453
9.38 -0.0311069
9.39 -0.0458434
9.4 -0.0696675
9.41 -0.100969
9.42 -0.139145
9.43 -0.181716
9.44 -0.227449
9.45 -0.274258
9.46 -0.3205
9.47 -0.364279
9.48 -0.404511
9.49 -0.439232
9.5 -0.468196
9.51 -0.490399
9.52 -0.505605
9.53 -0.514356
9.54 -0.516311
9.55 -0.513155
9.56 -0.505319
9.57 -0.494423
9.58 -0.481731
9.59 -0.468704
9.6 -0.45663
9.61 -0.44707
9.62 -0.440792
9.63 -0.438857
9.64 -0.441891
9.65 -0.449859
9.66 -0.46347
9.67 -0.481724
9.68 -0.504742
9.69 -0.531549
9.7 -0.561467
9.71 -0.593805
9.72 -0.627576
9.73 -0.662182
9.74 -0.696864
9.75 -0.731101
9.76 -0.764418
9.77 -0.796556
9.78 -0.827008
9.79 -0.855708
9.8 -0.882036
9.81 -0.905582
9.82 -0.925621
9.83 -0.940729
9.84 -0.950156
9.85 -0.950964
9.86 -0.942018
9.87 -0.920122
9.88 -0.882187
9.89 -0.826453
9.9 -0.746862
9.91 -0.643761
9.92 -0.511306
9.93 -0.34897
9.94 -0.15511
9.95 0.0732973
9.96 0.332327
9.97 0.625528
9.98 0.946123
9.99 1.29249
10 1.65919
10.01 2.03946
10.02 2.42709
10.03 2.81356
10.04 3.1901
10.05 3.54832
10.06 3.88025
10.07 4.17503
10.08 4.43
10.09 4.63163
10.1 4.78145
10.11 4.87232
10.12 4.90226
10.13 4.87501
10.14 4.78445
10.15 4.64248
10.16 4.44762
10.17 4.20979
10.18 3.93571
10.19 3.632
10.2 3.30966
10.21 2.9753
10.22 2.63884
10.23 2.30767
10.24 1.98944
10.25 1.6887
10.26 1.41333
10.27 1.1631
10.28 0.943254
10.29 0.752579
10.3 0.590601
10.31 0.457388
10.32 0.34742
10.33 0.260795
10.34 0.190836
10.35 0.134877
10.36 0.088548
10.37 0.047795
10.38 0.00946316
10.39 -0.0295615
10.4 -0.0717096
10.41 -0.118478
10.42 -0.170746
10.43 -0.229212
10.44 -0.29293
10.45 -0.361878
10.46 -0.434236
10.47 -0.508872
10.48 -0.584085
10.49 -0.658412
10.5 -0.730001
10.51 -0.797945
10.52 -0.86064
10.53 -0.917513
10.54 -0.968008
10.55 -1.01132
10.56 -1.04814
10.57 -1.07752
10.58 -1.10061
10.59 -1.11728
10.6 -1.12791
10.61 -1.13321
10.62 -1.13281
10.63 -1.12774
10.64 -1.11762
10.65 -1.10293
10.66 -1.08378
10.67 -1.05997
10.68 -1.03215
10.69 -0.999911
10.7 -0.964096
10.71 -0.924882
10.72 -0.882911
10.73 -0.839039
10.74 -0.794037
10.75 -0.74906
10.76 -0.705291
10.77 -0.663925
10.78 -0.626098
10.79 -0.593373
10.8 -0.566164
10.81 -0.546379
10.82 -0.533817
10.83 -0.529427
10.84 -0.533417
10.85 -0.545148
10.86 -0.565275
10.87 -0.592006
10.88 -0.625251
10.89 -0.663461
10.9 -0.705489
10.91 -0.750124
10.92 -0.795855
10.93 -0.841407
10.94 -0.885577
10.95 -0.927235
10.96 -0.965394
10.97 -0.999659
10.98 -1.02893
10.99 -1.05367
11 -1.07329
11.01 -1.0883
11.02 -1.09904
11.03 -1.1058
11.04 -1.1096
11.05 -1.11077
11.06 -1.11038
11.07 -1.10908
11.08 -1.10764
11.09 -1.1067
11.1 -1.10696
11.11 -1.1087
11.12 -1.11239
11.13 -1.11804
11.14 -1.12558
11.15 -1.13482
11.16 -1.14511
11.17 -1.15578
11.18 -1.1658
11.19 -1.17393
11.2 -1.1786
11.21 -1.17855
11.22 -1.17101
11.23 -1.15517
11.24 -1.1279
11.25 -1.08781
11.26 -1.0331
11.27 -0.960777
11.28 -0.871422
11.29 -0.761046
11.3 -0.631512
11.31 -0.481382
11.32 -0.311127
11.33 -0.123126
11.34 0.0830411
11.35 0.302391
11.36 0.533242
11.37 0.770827
11.38 1.01105
11.39 1.24872
11.4 1.47947
11.41 1.69649
11.42 1.8963
11.43 2.07311
11.44 2.22212
11.45 2.34184
11.46 2.42471
11.47 2.47394
11.48 2.48433
11.49 2.45832
11.5 2.39704
11.51 2.30038
11.52 2.17514
11.53 2.02107
11.54 1.84627
11.55 1.6542
11.56 1.45061
11.57 1.24111
11.58 1.03085
11.59 0.824606
11.6 0.627278
11.61 0.442158
11.62 0.271856
11.63 0.119662
11.64 -0.0154467
11.65 -0.13049
11.66 -0.228473
11.67 -0.309506
11.68 -0.375581
11.69 -0.429797
11.7 -0.473403
11.71 -0.51045
11.72 -0.542792
11.73 -0.573224
11.74 -0.603641
11.75 -0.635818
11.76 -0.670515
11.77 -0.708662
11.78 -0.749734
11.79 -0.793285
11.8 -0.838061
11.81 -0.882569
11.82 -0.924598
11.83 -0.962483
11.84 -0.993488
11.85 -1.01577
11.86 -1.02751
11.87 -1.02598
11.88 -1.01138
11.89 -0.980518
11.9 -0.934775
11.91 -0.873084
11.92 -0.795805
11.93 -0.704773
11.94 -0.599458
11.95 -0.483458
11.96 -0.35749
11.97 -0.224521
11.98 -0.0868465
11.99 0.0529891
12 0.192345
12.01 0.328259
12.02 0.458588
12.03 0.580664
12.04 0.692045
12.05 0.791699
12.06 0.875975
12.07 0.945704
12.08 0.998049
12.09 1.03334
12.1 1.05137
12.11 1.05101
12.12 1.03477
12.13 1.00109
12.14 0.953286
12.15 0.891917
12.16 0.818914
12.17 0.736936
12.18 0.647226
12.19 0.553092
12.2 0.456369
12.21 0.359594
12.22 0.264735
12.23 0.174061
12.24 0.0885711
12.25 0.0104721
12.26 -0.0602477
12.27 -0.122689
12.28 -0.176788
12.29 -0.223474
12.3 -0.262525
12.31 -0.296038
12.32 -0.32466
12.33 -0.350195
12.34 -0.374038
12.35 -0.39767
12.36 -0.422276
12.37 -0.449135
12.38 -0.478664
12.39 -0.511309
12.4 -0.546925
12.41 -0.584776
12.42 -0.624014
