# xPDFsuite Configuration #
[PDF]
wavelength = 0.1432
dataformat = twotheta
inputfile = 1_1Pd_CeO2_cycle-00203.chi
backgroundfile = background-00000.chi
mode = xray
bgscale = 1.007
composition = CeO2
outputtype = gr
qmaxinst = 28.8974762299
qmin = 0.5
qmax = 27.9
rmax = 50.0
rmin = 0.0
rstep = 0.01
rpoly = 1.8657

[Misc]
inputdir = G:/SankarDec16/1Pd/Chi
savedir = D:/DATA/APS_CeO2/1Pd
backgroundfilefull = G:/SankarDec16/Background/background-00000.chi

#### start data
#S 1
#L r($\AA$)  G($\AA^{-2}$)
0 0
0.01 -0.00629265
0.02 -0.0121106
0.03 -0.0169651
0.04 -0.0204882
0.05 -0.0224753
0.06 -0.0225975
0.07 -0.0210745
0.08 -0.0178012
0.09 -0.0131967
0.1 -0.00755107
0.11 -0.00130832
0.12 0.0050482
0.13 0.0109755
0.14 0.0160902
0.15 0.0199222
0.16 0.022197
0.17 0.0228059
0.18 0.0215261
0.19 0.0186813
0.2 0.0142861
0.21 0.00882963
0.22 0.00267339
0.23 -0.00368402
0.24 -0.00978822
0.25 -0.0150544
0.26 -0.019209
0.27 -0.0218236
0.28 -0.0227308
0.29 -0.021923
0.3 -0.0192945
0.31 -0.0152576
0.32 -0.00994618
0.33 -0.00389558
0.34 0.0024788
0.35 0.00864764
0.36 0.0142079
0.37 0.0185614
0.38 0.0215577
0.39 0.0228313
0.4 0.02233
0.41 0.0201482
0.42 0.0163029
0.43 0.011275
0.44 0.00531103
0.45 -0.00103268
0.46 -0.00730746
0.47 -0.0129786
0.48 -0.0177144
0.49 -0.0209327
0.5 -0.0226137
0.51 -0.0224729
0.52 -0.0205763
0.53 -0.0171161
0.54 -0.0122316
0.55 -0.006449
0.56 -0.000116057
0.57 0.00621705
0.58 0.0120904
0.59 0.0169896
0.6 0.0206711
0.61 0.0225972
0.62 0.02288
0.63 0.0213307
0.64 0.0181304
0.65 0.0135601
0.66 0.0078752
0.67 0.0016218
0.68 -0.00476824
0.69 -0.0107774
0.7 -0.0159572
0.71 -0.0198387
0.72 -0.0222787
0.73 -0.0228102
0.74 -0.0216722
0.75 -0.0187802
0.76 -0.0144218
0.77 -0.00895249
0.78 -0.00273026
0.79 0.00370638
0.8 0.00986465
0.81 0.015286
0.82 0.0195577
0.83 0.0222815
0.84 0.0234223
0.85 0.0226108
0.86 0.0202
0.87 0.0162161
0.88 0.0110384
0.89 0.00507698
0.9 -0.00122626
0.91 -0.00737281
0.92 -0.012839
0.93 -0.0172559
0.94 -0.0202767
0.95 -0.0216068
0.96 -0.0213297
0.97 -0.019216
0.98 -0.0157211
0.99 -0.0110031
1 -0.00552811
1.01 0.000249998
1.02 0.00580108
1.03 0.0107005
1.04 0.0143954
1.05 0.0166384
1.06 0.0171666
1.07 0.0158119
1.08 0.0128033
1.09 0.00807552
1.1 0.00221261
1.11 -0.00446463
1.12 -0.0113708
1.13 -0.0179801
1.14 -0.0236164
1.15 -0.0279102
1.16 -0.0302007
1.17 -0.0303324
1.18 -0.028065
1.19 -0.0232806
1.2 -0.0163479
1.21 -0.00722869
1.22 0.00331975
1.23 0.0148998
1.24 0.0268051
1.25 0.0384119
1.26 0.0489318
1.27 0.0579227
1.28 0.0646039
1.29 0.0687576
1.3 0.0700527
1.31 0.0682567
1.32 0.0637152
1.33 0.0561781
1.34 0.046428
1.35 0.0346897
1.36 0.0215993
1.37 0.00774513
1.38 -0.00627185
1.39 -0.0198887
1.4 -0.0324921
1.41 -0.0437147
1.42 -0.0531883
1.43 -0.0605819
1.44 -0.0659846
1.45 -0.0690181
1.46 -0.070102
1.47 -0.0691818
1.48 -0.0665299
1.49 -0.0624269
1.5 -0.0569994
1.51 -0.050646
1.52 -0.0434783
1.53 -0.0357763
1.54 -0.0276846
1.55 -0.0193456
1.56 -0.0108897
1.57 -0.00241834
1.58 0.00596388
1.59 0.0141364
1.6 0.0219622
1.61 0.0293093
1.62 0.0359117
1.63 0.0416623
1.64 0.0461938
1.65 0.0493676
1.66 0.0509284
1.67 0.0505935
1.68 0.0484174
1.69 0.0439854
1.7 0.0376377
1.71 0.029285
1.72 0.0192034
1.73 0.00773713
1.74 -0.00481935
1.75 -0.0178949
1.76 -0.0310278
1.77 -0.0436815
1.78 -0.055378
1.79 -0.0655983
1.8 -0.0741795
1.81 -0.0805723
1.82 -0.0850117
1.83 -0.0873623
1.84 -0.0879034
1.85 -0.0870185
1.86 -0.0850704
1.87 -0.0826991
1.88 -0.0804582
1.89 -0.0789262
1.9 -0.0786122
1.91 -0.0800302
1.92 -0.0832627
1.93 -0.088759
1.94 -0.0961104
1.95 -0.105234
1.96 -0.11559
1.97 -0.126564
1.98 -0.137372
1.99 -0.147254
2 -0.155169
2.01 -0.160435
2.02 -0.162276
2.03 -0.159887
2.04 -0.153306
2.05 -0.141556
2.06 -0.125409
2.07 -0.104664
2.08 -0.0799209
2.09 -0.0519007
2.1 -0.0210836
2.11 0.0114146
2.12 0.0449683
2.13 0.0787088
2.14 0.112044
2.15 0.144437
2.16 0.175738
2.17 0.205694
2.18 0.234661
2.19 0.262889
2.2 0.290932
2.21 0.319335
2.22 0.348826
2.23 0.379782
2.24 0.412843
2.25 0.448031
2.26 0.485337
2.27 0.524425
2.28 0.564482
2.29 0.604481
2.3 0.643103
2.31 0.678658
2.32 0.709352
2.33 0.733744
2.34 0.749147
2.35 0.755235
2.36 0.74936
2.37 0.731651
2.38 0.701408
2.39 0.658263
2.4 0.60412
2.41 0.5385
2.42 0.464827
2.43 0.384488
2.44 0.300396
2.45 0.215215
2.46 0.132025
2.47 0.0531214
2.48 -0.0183
2.49 -0.0807545
2.5 -0.132542
2.51 -0.172156
2.52 -0.200529
2.53 -0.216099
2.54 -0.221692
2.55 -0.217847
2.56 -0.206934
2.57 -0.19135
2.58 -0.173384
2.59 -0.15567
2.6 -0.140689
2.61 -0.130277
2.62 -0.12603
2.63 -0.129362
2.64 -0.139929
2.65 -0.15883
2.66 -0.184144
2.67 -0.215288
2.68 -0.25037
2.69 -0.28749
2.7 -0.324571
2.71 -0.359736
2.72 -0.390798
2.73 -0.41656
2.74 -0.435877
2.75 -0.447843
2.76 -0.453163
2.77 -0.451267
2.78 -0.444195
2.79 -0.432842
2.8 -0.419159
2.81 -0.404956
2.82 -0.39233
2.83 -0.382727
2.84 -0.37812
2.85 -0.379187
2.86 -0.386622
2.87 -0.400748
2.88 -0.420453
2.89 -0.445547
2.9 -0.473813
2.91 -0.503807
2.92 -0.533363
2.93 -0.560664
2.94 -0.583296
2.95 -0.600338
2.96 -0.60974
2.97 -0.611438
2.98 -0.60513
2.99 -0.591008
3 -0.570802
3.01 -0.545252
3.02 -0.517078
3.03 -0.488215
3.04 -0.461179
3.05 -0.437937
3.06 -0.421189
3.07 -0.411584
3.08 -0.411203
3.09 -0.419686
3.1 -0.437006
3.11 -0.462529
3.12 -0.494076
3.13 -0.530393
3.14 -0.568461
3.15 -0.605973
3.16 -0.640253
3.17 -0.669363
3.18 -0.69058
3.19 -0.703699
3.2 -0.706958
3.21 -0.701339
3.22 -0.687479
3.23 -0.666812
3.24 -0.642016
3.25 -0.615442
3.26 -0.590257
3.27 -0.569508
3.28 -0.556088
3.29 -0.55183
3.3 -0.559762
3.31 -0.5792
3.32 -0.611772
3.33 -0.655444
3.34 -0.70878
3.35 -0.769308
3.36 -0.833383
3.37 -0.897398
3.38 -0.957535
3.39 -1.00976
3.4 -1.05065
3.41 -1.07824
3.42 -1.08897
3.43 -1.08436
3.44 -1.06279
3.45 -1.02739
3.46 -0.980431
3.47 -0.925478
3.48 -0.867257
3.49 -0.810623
3.5 -0.760054
3.51 -0.720387
3.52 -0.695248
3.53 -0.68624
3.54 -0.696382
3.55 -0.722557
3.56 -0.764331
3.57 -0.815916
3.58 -0.871848
3.59 -0.923949
3.6 -0.964818
3.61 -0.981762
3.62 -0.968642
3.63 -0.913563
3.64 -0.80846
3.65 -0.649327
3.66 -0.424405
3.67 -0.139995
3.68 0.211603
3.69 0.621296
3.7 1.08443
3.71 1.59324
3.72 2.13256
3.73 2.69179
3.74 3.25274
3.75 3.79947
3.76 4.31427
3.77 4.7838
3.78 5.18568
3.79 5.51631
3.8 5.75478
3.81 5.9008
3.82 5.94824
3.83 5.89159
3.84 5.74374
3.85 5.49572
3.86 5.17061
3.87 4.7725
3.88 4.31754
3.89 3.82191
3.9 3.29875
3.91 2.76647
3.92 2.23969
3.93 1.73228
3.94 1.25599
3.95 0.823259
3.96 0.436345
3.97 0.108668
3.98 -0.165937
3.99 -0.382813
4 -0.545827
4.01 -0.661436
4.02 -0.730829
4.03 -0.76661
4.04 -0.77218
4.05 -0.758031
4.06 -0.730726
4.07 -0.697197
4.08 -0.663334
4.09 -0.634423
4.1 -0.613126
4.11 -0.60216
4.12 -0.602197
4.13 -0.612434
4.14 -0.632589
4.15 -0.659418
4.16 -0.69111
4.17 -0.7243
4.18 -0.756294
4.19 -0.783998
4.2 -0.805692
4.21 -0.818142
4.22 -0.82127
4.23 -0.813429
4.24 -0.794555
4.25 -0.765378
4.26 -0.725444
4.27 -0.677093
4.28 -0.620447
4.29 -0.557542
4.3 -0.489479
4.31 -0.417389
4.32 -0.342677
4.33 -0.265962
4.34 -0.188282
4.35 -0.110146
4.36 -0.0320994
4.37 0.0454692
4.38 0.122017
4.39 0.197228
4.4 0.270317
4.41 0.340721
4.42 0.407575
4.43 0.46958
4.44 0.526211
4.45 0.575146
4.46 0.616215
4.47 0.647519
4.48 0.66807
4.49 0.677569
4.5 0.674004
4.51 0.65882
4.52 0.630548
4.53 0.590759
4.54 0.540053
4.55 0.479283
4.56 0.410872
4.57 0.335549
4.58 0.256204
4.59 0.174426
4.6 0.0923789
4.61 0.0117486
4.62 -0.065438
4.63 -0.138356
4.64 -0.205356
4.65 -0.266216
4.66 -0.320519
4.67 -0.367961
4.68 -0.409522
4.69 -0.444819
4.7 -0.47544
4.71 -0.501765
4.72 -0.524789
4.73 -0.545408
4.74 -0.564156
4.75 -0.581826
4.76 -0.598706
4.77 -0.615109
4.78 -0.631094
4.79 -0.646559
4.8 -0.661393
4.81 -0.675201
4.82 -0.687851
4.83 -0.69899
4.84 -0.708441
4.85 -0.716196
4.86 -0.722073
4.87 -0.726453
4.88 -0.729406
4.89 -0.731417
4.9 -0.732867
4.91 -0.73424
4.92 -0.735946
4.93 -0.7385
4.94 -0.742099
4.95 -0.747035
4.96 -0.753366
4.97 -0.760973
4.98 -0.769802
4.99 -0.779421
5 -0.789556
5.01 -0.799756
5.02 -0.809658
5.03 -0.818873
5.04 -0.827246
5.05 -0.834482
5.06 -0.840734
5.07 -0.846038
5.08 -0.850666
5.09 -0.854937
5.1 -0.859198
5.11 -0.86375
5.12 -0.868859
5.13 -0.874535
5.14 -0.880628
5.15 -0.886657
5.16 -0.891949
5.17 -0.895149
5.18 -0.895156
5.19 -0.890057
5.2 -0.877924
5.21 -0.857309
5.22 -0.824934
5.23 -0.780614
5.24 -0.721114
5.25 -0.646437
5.26 -0.555738
5.27 -0.448231
5.28 -0.326309
5.29 -0.189211
5.3 -0.041268
5.31 0.115577
5.32 0.277283
5.33 0.439872
5.34 0.598345
5.35 0.748846
5.36 0.885485
5.37 1.00481
5.38 1.10287
5.39 1.17494
5.4 1.22149
5.41 1.23644
5.42 1.22361
5.43 1.18107
5.44 1.11096
5.45 1.0169
5.46 0.899722
5.47 0.766251
5.48 0.618969
5.49 0.463869
5.5 0.30529
5.51 0.148181
5.52 -0.00379266
5.53 -0.145567
5.54 -0.275537
5.55 -0.390485
5.56 -0.489085
5.57 -0.571577
5.58 -0.636127
5.59 -0.685866
5.6 -0.720235
5.61 -0.742267
5.62 -0.753644
5.63 -0.756153
5.64 -0.752547
5.65 -0.743857
5.66 -0.732277
5.67 -0.718638
5.68 -0.703715
5.69 -0.687812
5.7 -0.670656
5.71 -0.651968
5.72 -0.630804
5.73 -0.606487
5.74 -0.578176
5.75 -0.544846
5.76 -0.506551
5.77 -0.462214
5.78 -0.412827
5.79 -0.358516
5.8 -0.300423
5.81 -0.23998
5.82 -0.178831
5.83 -0.118895
5.84 -0.0624855
5.85 -0.0114799
5.86 0.0322077
5.87 0.0662754
5.88 0.0904752
5.89 0.102045
5.9 0.102222
5.91 0.0900432
5.92 0.0662512
5.93 0.0323303
5.94 -0.011396
5.95 -0.0620223
5.96 -0.118482
5.97 -0.178261
5.98 -0.239576
5.99 -0.30049
6 -0.359625
6.01 -0.41526
6.02 -0.466997
6.03 -0.51403
6.04 -0.556319
6.05 -0.594333
6.06 -0.628166
6.07 -0.659095
6.08 -0.687661
6.09 -0.714995
6.1 -0.741874
6.11 -0.769045
6.12 -0.796909
6.13 -0.825816
6.14 -0.855544
6.15 -0.885806
6.16 -0.915938
6.17 -0.945225
6.18 -0.972524
6.19 -0.997213
6.2 -1.01805
6.21 -1.0346
6.22 -1.04637
6.23 -1.05293
6.24 -1.05498
6.25 -1.05235
6.26 -1.04649
6.27 -1.03817
6.28 -1.02874
6.29 -1.01939
6.3 -1.01146
6.31 -1.00561
6.32 -1.00262
6.33 -1.00224
6.34 -1.00388
6.35 -1.0061
6.36 -1.00691
6.37 -1.00284
6.38 -0.991008
6.39 -0.966755
6.4 -0.925403
6.41 -0.863641
6.42 -0.773678
6.43 -0.655256
6.44 -0.500854
6.45 -0.310363
6.46 -0.0818082
6.47 0.187148
6.48 0.491137
6.49 0.832833
6.5 1.20272
6.51 1.59732
6.52 2.00827
6.53 2.42689
6.54 2.84321
6.55 3.24787
6.56 3.62848
6.57 3.97618
6.58 4.28151
6.59 4.53245
6.6 4.72807
6.61 4.85263
6.62 4.91183
6.63 4.89848
6.64 4.81384
6.65 4.66396
6.66 4.44573
6.67 4.17429
6.68 3.85092
6.69 3.4891
6.7 3.09779
6.71 2.68718
6.72 2.26895
6.73 1.85352
6.74 1.45013
6.75 1.06816
6.76 0.715312
6.77 0.395312
6.78 0.117169
6.79 -0.122286
6.8 -0.317027
6.81 -0.471047
6.82 -0.585714
6.83 -0.662367
6.84 -0.708691
6.85 -0.724903
6.86 -0.720043
6.87 -0.697321
6.88 -0.662293
6.89 -0.619757
6.9 -0.573344
6.91 -0.526738
6.92 -0.482607
6.93 -0.442693
6.94 -0.408098
6.95 -0.379669
6.96 -0.356717
6.97 -0.33966
6.98 -0.327009
6.99 -0.318332
7 -0.312712
7.01 -0.309366
7.02 -0.308045
7.03 -0.308287
7.04 -0.310384
7.05 -0.314571
7.06 -0.321416
7.07 -0.331895
7.08 -0.346357
7.09 -0.366352
7.1 -0.391805
7.11 -0.423595
7.12 -0.461816
7.13 -0.505942
7.14 -0.556078
7.15 -0.610521
7.16 -0.6685
7.17 -0.728121
7.18 -0.787763
7.19 -0.845363
7.2 -0.899491
7.21 -0.947674
7.22 -0.989275
7.23 -1.02271
7.24 -1.04737
7.25 -1.06355
7.26 -1.07051
7.27 -1.07022
7.28 -1.06295
7.29 -1.05077
7.3 -1.03524
7.31 -1.01818
7.32 -1.00133
7.33 -0.986481
7.34 -0.974594
7.35 -0.966671
7.36 -0.962963
7.37 -0.962957
7.38 -0.966099
7.39 -0.97056
7.4 -0.974445
7.41 -0.975297
7.42 -0.97059
7.43 -0.956891
7.44 -0.932681
7.45 -0.893383
7.46 -0.838878
7.47 -0.766422
7.48 -0.675235
7.49 -0.566261
7.5 -0.438022
7.51 -0.294601
7.52 -0.13649
7.53 0.0319938
7.54 0.20747
7.55 0.385655
7.56 0.562193
7.57 0.731636
7.58 0.890409
7.59 1.03355
7.6 1.15713
7.61 1.25936
7.62 1.3347
7.63 1.38522
7.64 1.40694
7.65 1.40204
7.66 1.37118
7.67 1.31476
7.68 1.2377
7.69 1.13988
7.7 1.0274
7.71 0.902614
7.72 0.769698
7.73 0.632506
7.74 0.494604
7.75 0.359274
7.76 0.229969
7.77 0.108975
7.78 -0.00161529
7.79 -0.0993008
7.8 -0.184351
7.81 -0.253802
7.82 -0.309348
7.83 -0.349917
7.84 -0.376057
7.85 -0.389211
7.86 -0.38877
7.87 -0.377689
7.88 -0.356006
7.89 -0.326074
7.9 -0.289368
7.91 -0.247461
7.92 -0.202579
7.93 -0.156355
7.94 -0.110871
7.95 -0.0680101
7.96 -0.0297192
7.97 0.00272656
7.98 0.0268097
7.99 0.0424176
8 0.0473901
8.01 0.0417514
8.02 0.025096
8.03 -0.00316907
8.04 -0.0413863
8.05 -0.0902448
8.06 -0.147137
8.07 -0.211202
8.08 -0.28044
8.09 -0.352777
8.1 -0.42629
8.11 -0.498909
8.12 -0.56858
8.13 -0.633799
8.14 -0.693298
8.15 -0.745691
8.16 -0.791283
8.17 -0.828886
8.18 -0.859917
8.19 -0.884596
8.2 -0.904126
8.21 -0.919951
8.22 -0.933126
8.23 -0.94524
8.24 -0.957286
8.25 -0.970065
8.26 -0.983873
8.27 -0.998507
8.28 -1.01312
8.29 -1.02604
8.3 -1.03539
8.31 -1.0383
8.32 -1.03147
8.33 -1.01237
8.34 -0.975374
8.35 -0.919619
8.36 -0.839446
8.37 -0.733834
8.38 -0.600826
8.39 -0.437666
8.4 -0.24766
8.41 -0.0277581
8.42 0.215739
8.43 0.481151
8.44 0.763187
8.45 1.0557
8.46 1.35262
8.47 1.64656
8.48 1.92948
8.49 2.19436
8.5 2.4344
8.51 2.6407
8.52 2.81168
8.53 2.93626
8.54 3.01698
8.55 3.0485
8.56 3.03052
8.57 2.96677
8.58 2.85386
8.59 2.70196
8.6 2.51104
8.61 2.28985
8.62 2.04419
8.63 1.78028
8.64 1.50647
8.65 1.22891
8.66 0.954651
8.67 0.689728
8.68 0.439733
8.69 0.207668
8.7 -0.000299087
8.71 -0.185311
8.72 -0.343197
8.73 -0.475625
8.74 -0.583094
8.75 -0.665734
8.76 -0.728169
8.77 -0.770016
8.78 -0.796855
8.79 -0.810531
8.8 -0.814484
8.81 -0.811985
8.82 -0.805302
8.83 -0.7973
8.84 -0.789891
8.85 -0.784703
8.86 -0.782835
8.87 -0.785332
8.88 -0.79205
8.89 -0.803708
8.9 -0.819409
8.91 -0.838994
8.92 -0.861747
8.93 -0.886816
8.94 -0.913626
8.95 -0.941211
8.96 -0.968932
8.97 -0.996114
8.98 -1.02225
8.99 -1.04678
9 -1.06959
9.01 -1.09013
9.02 -1.10855
9.03 -1.12461
9.04 -1.13829
9.05 -1.14974
9.06 -1.15865
9.07 -1.16537
9.08 -1.16955
9.09 -1.17129
9.1 -1.17044
9.11 -1.1666
9.12 -1.15987
9.13 -1.1494
9.14 -1.13533
9.15 -1.11699
9.16 -1.09399
9.17 -1.06626
9.18 -1.03279
9.19 -0.994133
9.2 -0.949486
9.21 -0.89926
9.22 -0.843592
9.23 -0.782551
9.24 -0.717245
9.25 -0.647868
9.26 -0.575953
9.27 -0.502483
9.28 -0.428972
9.29 -0.356798
9.3 -0.287989
9.31 -0.223651
9.32 -0.166003
9.33 -0.116156
9.34 -0.0753634
9.35 -0.0453856
9.36 -0.0257215
9.37 -0.0184817
9.38 -0.022075
9.39 -0.0368888
9.4 -0.0619648
9.41 -0.0955649
9.42 -0.137052
9.43 -0.183585
9.44 -0.233703
9.45 -0.28493
9.46 -0.335286
9.47 -0.382458
9.48 -0.42515
9.49 -0.460956
9.5 -0.489625
9.51 -0.509975
9.52 -0.521802
9.53 -0.525865
9.54 -0.521916
9.55 -0.512119
9.56 -0.497224
9.57 -0.47934
9.58 -0.460154
9.59 -0.441657
9.6 -0.42538
9.61 -0.413449
9.62 -0.406619
9.63 -0.406188
9.64 -0.412747
9.65 -0.426002
9.66 -0.446592
9.67 -0.472925
9.68 -0.504783
9.69 -0.5406
9.7 -0.579195
9.71 -0.619266
9.72 -0.659489
9.73 -0.69861
9.74 -0.735814
9.75 -0.770267
9.76 -0.801463
9.77 -0.829385
9.78 -0.853512
9.79 -0.874417
9.8 -0.891768
9.81 -0.90579
9.82 -0.916283
9.83 -0.922455
9.84 -0.923971
9.85 -0.918572
9.86 -0.905266
9.87 -0.881219
9.88 -0.843442
9.89 -0.789991
9.9 -0.714885
9.91 -0.617871
9.92 -0.492874
9.93 -0.338756
9.94 -0.153367
9.95 0.0669169
9.96 0.318614
9.97 0.605922
9.98 0.922262
9.99 1.26638
10 1.63298
10.01 2.01517
10.02 2.40683
10.03 2.79891
10.04 3.18244
10.05 3.54848
10.06 3.88855
10.07 4.19124
10.08 4.45347
10.09 4.66104
10.1 4.8153
10.11 4.90869
10.12 4.93908
10.13 4.91028
10.14 4.81604
10.15 4.66872
10.16 4.46697
10.17 4.22123
10.18 3.93864
10.19 3.62631
10.2 3.2957
10.21 2.95396
10.22 2.61127
10.23 2.2754
10.24 1.9542
10.25 1.65221
10.26 1.37752
10.27 1.12951
10.28 0.913404
10.29 0.72758
10.3 0.571253
10.31 0.44413
10.32 0.340307
10.33 0.259502
10.34 0.194776
10.35 0.143188
10.36 0.100188
10.37 0.0617138
10.38 0.0244596
10.39 -0.0144501
10.4 -0.0574199
10.41 -0.105683
10.42 -0.159906
10.43 -0.220547
10.44 -0.286418
10.45 -0.357256
10.46 -0.4311
10.47 -0.506669
10.48 -0.582197
10.49 -0.656258
10.5 -0.726988
10.51 -0.79367
10.52 -0.854808
10.53 -0.91004
10.54 -0.958989
10.55 -1.00107
10.56 -1.03709
10.57 -1.06632
10.58 -1.08993
10.59 -1.10784
10.6 -1.12042
10.61 -1.12827
10.62 -1.13093
10.63 -1.12922
10.64 -1.12257
10.65 -1.11123
10.66 -1.09512
10.67 -1.07379
10.68 -1.04782
10.69 -1.01655
10.7 -0.980868
10.71 -0.940887
10.72 -0.897303
10.73 -0.851119
10.74 -0.803181
10.75 -0.754915
10.76 -0.707676
10.77 -0.662904
10.78 -0.621938
10.79 -0.586578
10.8 -0.557331
10.81 -0.536331
10.82 -0.523346
10.83 -0.519387
10.84 -0.524617
10.85 -0.538259
10.86 -0.5609
10.87 -0.5905
10.88 -0.626812
10.89 -0.668059
10.9 -0.712912
10.91 -0.75994
10.92 -0.807542
10.93 -0.854231
10.94 -0.898828
10.95 -0.94013
10.96 -0.97718
10.97 -1.00969
10.98 -1.03661
10.99 -1.05859
11 -1.07517
11.01 -1.08706
11.02 -1.09474
11.03 -1.09867
11.04 -1.09997
11.05 -1.09913
11.06 -1.09724
11.07 -1.09499
11.08 -1.0932
11.09 -1.0924
11.1 -1.09334
11.11 -1.09613
11.12 -1.1012
11.13 -1.10845
11.14 -1.11772
11.15 -1.12874
11.16 -1.14078
11.17 -1.15313
11.18 -1.16472
11.19 -1.1743
11.2 -1.1803
11.21 -1.18147
11.22 -1.17507
11.23 -1.16031
11.24 -1.1341
11.25 -1.09506
11.26 -1.04142
11.27 -0.970163
11.28 -0.881868
11.29 -0.772508
11.3 -0.643909
11.31 -0.494572
11.32 -0.324906
11.33 -0.137247
11.34 0.0689268
11.35 0.288629
11.36 0.520255
11.37 0.759027
11.38 1.00085
11.39 1.2405
11.4 1.47356
11.41 1.69315
11.42 1.89568
11.43 2.07526
11.44 2.22695
11.45 2.34918
11.46 2.43421
11.47 2.4852
11.48 2.49681
11.49 2.47143
11.5 2.41016
11.51 2.31282
11.52 2.1863
11.53 2.0303
11.54 1.85308
11.55 1.65815
11.56 1.45138
11.57 1.23855
11.58 1.02492
11.59 0.815419
11.6 0.615112
11.61 0.427413
11.62 0.25504
11.63 0.101431
11.64 -0.0344421
11.65 -0.149447
11.66 -0.246671
11.67 -0.326191
11.68 -0.390049
11.69 -0.441461
11.7 -0.481712
11.71 -0.515053
11.72 -0.543442
11.73 -0.569856
11.74 -0.596342
11.75 -0.624864
11.76 -0.656295
11.77 -0.691779
11.78 -0.730837
11.79 -0.773152
11.8 -0.817534
11.81 -0.862447
11.82 -0.905773
11.83 -0.945662
11.84 -0.979361
11.85 -1.00484
11.86 -1.02013
11.87 -1.02231
11.88 -1.01139
11.89 -0.983934
11.9 -0.941164
11.91 -0.881815
11.92 -0.806086
11.93 -0.715772
11.94 -0.610159
11.95 -0.492984
11.96 -0.364913
11.97 -0.229081
11.98 -0.0879379
11.99 0.055786
12 0.199185
12.01 0.339033
12.02 0.472935
12.03 0.597955
12.04 0.711399
12.05 0.812134
12.06 0.896219
12.07 0.964606
12.08 1.01433
12.09 1.0459
12.1 1.05927
12.11 1.0535
12.12 1.03145
12.13 0.991872
12.14 0.938433
12.15 0.872057
12.16 0.795037
12.17 0.710217
12.18 0.619265
12.19 0.5254
12.2 0.430688
12.21 0.337507
12.22 0.247677
12.23 0.163299
12.24 0.0849289
12.25 0.0144731
12.26 -0.0485776
12.27 -0.103752
12.28 -0.151461
12.29 -0.192929
12.3 -0.228484
12.31 -0.260211
12.32 -0.289106
12.33 -0.316872
12.34 -0.344802
12.35 -0.374272
12.36 -0.40598
12.37 -0.440954
12.38 -0.479023
12.39 -0.520179
12.4 -0.563732
12.41 -0.608563
12.42 -0.653214
