# xPDFsuite Configuration #
[PDF]
wavelength = 0.1432
dataformat = twotheta
inputfile = 1_1Pd_CeO2_cycle-00055.chi
backgroundfile = background-00000.chi
mode = xray
bgscale = 1.007
composition = CeO2
outputtype = gr
qmaxinst = 28.8974762299
qmin = 0.5
qmax = 27.9
rmax = 50.0
rmin = 0.0
rstep = 0.01
rpoly = 1.8657

[Misc]
inputdir = G:/SankarDec16/1Pd/Chi
savedir = D:/DATA/APS_CeO2/1Pd
backgroundfilefull = G:/SankarDec16/Background/background-00000.chi

#### start data
#S 1
#L r($\AA$)  G($\AA^{-2}$)
0 0
0.01 -0.00663721
0.02 -0.012774
0.03 -0.0178951
0.04 -0.0216124
0.05 -0.0237103
0.06 -0.0238419
0.07 -0.0222387
0.08 -0.0187895
0.09 -0.013936
0.1 -0.00798406
0.11 -0.00140132
0.12 0.00530254
0.13 0.0115553
0.14 0.0169525
0.15 0.0209983
0.16 0.0234033
0.17 0.0240521
0.18 0.0227095
0.19 0.0197163
0.2 0.0150873
0.21 0.00933767
0.22 0.00284816
0.23 -0.00385597
0.24 -0.0102955
0.25 -0.0158543
0.26 -0.0202431
0.27 -0.0230101
0.28 -0.023978
0.29 -0.0231382
0.3 -0.0203782
0.31 -0.0161321
0.32 -0.0105397
0.33 -0.00416519
0.34 0.00255417
0.35 0.00906071
0.36 0.0149291
0.37 0.0195291
0.38 0.0227009
0.39 0.0240586
0.4 0.023546
0.41 0.0212616
0.42 0.0172218
0.43 0.0119328
0.44 0.00565305
0.45 -0.00103137
0.46 -0.00764806
0.47 -0.0136336
0.48 -0.0186376
0.49 -0.0220464
0.5 -0.0238374
0.51 -0.0237098
0.52 -0.0217315
0.53 -0.0181037
0.54 -0.0129714
0.55 -0.00688849
0.56 -0.000219767
0.57 0.006455
0.58 0.0126514
0.59 0.0178274
0.6 0.0217249
0.61 0.0237767
0.62 0.024099
0.63 0.0224911
0.64 0.0191421
0.65 0.0143464
0.66 0.00837096
0.67 0.00179082
0.68 -0.00494065
0.69 -0.0112777
0.7 -0.0167477
0.71 -0.0208558
0.72 -0.0234492
0.73 -0.0240343
0.74 -0.0228604
0.75 -0.0198362
0.76 -0.0152622
0.77 -0.00951115
0.78 -0.00295755
0.79 0.00383109
0.8 0.0103373
0.81 0.0160766
0.82 0.020613
0.83 0.023525
0.84 0.0247719
0.85 0.0239611
0.86 0.0214601
0.87 0.0172914
0.88 0.0118495
0.89 0.00556287
0.9 -0.00111004
0.91 -0.00764414
0.92 -0.0134944
0.93 -0.0182706
0.94 -0.0216085
0.95 -0.0231974
0.96 -0.0231195
0.97 -0.0211324
0.98 -0.0177054
0.99 -0.0129987
1 -0.00749257
1.01 -0.00165484
1.02 0.00397165
1.03 0.00894881
1.04 0.012715
1.05 0.0150196
1.06 0.0156019
1.07 0.0143038
1.08 0.0113684
1.09 0.00675913
1.1 0.00107994
1.11 -0.00531204
1.12 -0.0118017
1.13 -0.0178424
1.14 -0.0227157
1.15 -0.0260629
1.16 -0.0271936
1.17 -0.0259811
1.18 -0.0222023
1.19 -0.0157765
1.2 -0.00713314
1.21 0.00369958
1.22 0.0158851
1.23 0.028931
1.24 0.0420358
1.25 0.0545005
1.26 0.0653991
1.27 0.0742762
1.28 0.0802136
1.29 0.0830045
1.3 0.0822782
1.31 0.0777824
1.32 0.0699575
1.33 0.0585198
1.34 0.0444306
1.35 0.0279817
1.36 0.00996565
1.37 -0.00888093
1.38 -0.0277758
1.39 -0.0460096
1.4 -0.062751
1.41 -0.0775079
1.42 -0.0897549
1.43 -0.0989919
1.44 -0.105311
1.45 -0.108094
1.46 -0.107902
1.47 -0.104584
1.48 -0.0984923
1.49 -0.0900245
1.5 -0.0793424
1.51 -0.0670997
1.52 -0.0535089
1.53 -0.0391033
1.54 -0.0242194
1.55 -0.00923681
1.56 0.0055372
1.57 0.0197107
1.58 0.0330894
1.59 0.0453279
1.6 0.0561828
1.61 0.0654841
1.62 0.0727993
1.63 0.0781802
1.64 0.0811559
1.65 0.0817844
1.66 0.0799013
1.67 0.0753672
1.68 0.0684785
1.69 0.0589686
1.7 0.0474454
1.71 0.034024
1.72 0.0192024
1.73 0.00348691
1.74 -0.0125866
1.75 -0.0284174
1.76 -0.0433411
1.77 -0.0568586
1.78 -0.0684655
1.79 -0.0776559
1.8 -0.0844393
1.81 -0.0882794
1.82 -0.0896814
1.83 -0.0886445
1.84 -0.0856738
1.85 -0.0813466
1.86 -0.076263
1.87 -0.0711988
1.88 -0.0669407
1.89 -0.0641394
1.9 -0.0634087
1.91 -0.0653455
1.92 -0.0699384
1.93 -0.0777296
1.94 -0.0880831
1.95 -0.100858
1.96 -0.115325
1.97 -0.130683
1.98 -0.145951
1.99 -0.160171
2 -0.172077
2.01 -0.180832
2.02 -0.185503
2.03 -0.185122
2.04 -0.179735
2.05 -0.168169
2.06 -0.151342
2.07 -0.129005
2.08 -0.101861
2.09 -0.0707577
2.1 -0.0362494
2.11 0.000332526
2.12 0.0382511
2.13 0.0764498
2.14 0.114196
2.15 0.150797
2.16 0.186015
2.17 0.219432
2.18 0.251397
2.19 0.282064
2.2 0.311973
2.21 0.341687
2.22 0.371886
2.23 0.403052
2.24 0.435791
2.25 0.47022
2.26 0.506362
2.27 0.543917
2.28 0.582153
2.29 0.620042
2.3 0.656351
2.31 0.689412
2.32 0.717486
2.33 0.739179
2.34 0.751858
2.35 0.755256
2.36 0.746804
2.37 0.726697
2.38 0.694319
2.39 0.649403
2.4 0.593894
2.41 0.527468
2.42 0.453534
2.43 0.373575
2.44 0.290511
2.45 0.206973
2.46 0.126062
2.47 0.0499178
2.48 -0.0183172
2.49 -0.0773483
2.5 -0.125635
2.51 -0.161888
2.52 -0.18721
2.53 -0.200333
2.54 -0.204188
2.55 -0.199545
2.56 -0.188894
2.57 -0.174657
2.58 -0.159268
2.59 -0.14516
2.6 -0.134835
2.61 -0.129852
2.62 -0.131599
2.63 -0.141194
2.64 -0.157973
2.65 -0.182633
2.66 -0.212979
2.67 -0.248043
2.68 -0.285657
2.69 -0.323783
2.7 -0.360007
2.71 -0.392644
2.72 -0.419324
2.73 -0.43916
2.74 -0.451192
2.75 -0.454819
2.76 -0.451204
2.77 -0.440177
2.78 -0.424273
2.79 -0.404869
2.8 -0.384367
2.81 -0.364875
2.82 -0.349005
2.83 -0.33813
2.84 -0.334587
2.85 -0.338818
2.86 -0.351422
2.87 -0.372504
2.88 -0.400437
2.89 -0.434734
2.9 -0.472529
2.91 -0.511886
2.92 -0.550072
2.93 -0.584851
2.94 -0.613198
2.95 -0.634107
2.96 -0.64505
2.97 -0.646077
2.98 -0.636881
2.99 -0.617767
3 -0.590953
3.01 -0.557373
3.02 -0.520443
3.03 -0.482561
3.04 -0.446853
3.05 -0.415766
3.06 -0.392653
3.07 -0.378355
3.08 -0.375498
3.09 -0.383705
3.1 -0.403034
3.11 -0.432827
3.12 -0.470459
3.13 -0.514576
3.14 -0.561457
3.15 -0.608379
3.16 -0.652049
3.17 -0.690024
3.18 -0.71893
3.19 -0.738292
3.2 -0.745782
3.21 -0.742318
3.22 -0.728402
3.23 -0.705426
3.24 -0.676459
3.25 -0.643881
3.26 -0.61153
3.27 -0.582819
3.28 -0.561224
3.29 -0.549077
3.3 -0.550017
3.31 -0.563659
3.32 -0.592168
3.33 -0.633608
3.34 -0.686689
3.35 -0.748991
3.36 -0.81652
3.37 -0.885633
3.38 -0.951894
3.39 -1.01091
3.4 -1.0587
3.41 -1.09283
3.42 -1.10915
3.43 -1.1089
3.44 -1.08993
3.45 -1.0553
3.46 -1.00716
3.47 -0.949053
3.48 -0.886063
3.49 -0.823119
3.5 -0.765327
3.51 -0.717915
3.52 -0.685087
3.53 -0.668932
3.54 -0.673104
3.55 -0.694746
3.56 -0.733979
3.57 -0.785074
3.58 -0.842692
3.59 -0.898681
3.6 -0.945237
3.61 -0.969591
3.62 -0.96492
3.63 -0.918914
3.64 -0.822878
3.65 -0.67228
3.66 -0.454671
3.67 -0.176057
3.68 0.171872
3.69 0.580112
3.7 1.04416
3.71 1.55631
3.72 2.10099
3.73 2.66755
3.74 3.23708
3.75 3.79321
3.76 4.31758
3.77 4.79628
3.78 5.20619
3.79 5.54337
3.8 5.78624
3.81 5.9344
3.82 5.98149
3.83 5.92191
3.84 5.76896
3.85 5.51365
3.86 5.1798
3.87 4.77192
3.88 4.30685
3.89 3.80136
3.9 3.26937
3.91 2.72969
3.92 2.19765
3.93 1.68734
3.94 1.21075
3.95 0.780512
3.96 0.3985
3.97 0.0782398
3.98 -0.1872
3.99 -0.393523
4 -0.545295
4.01 -0.64961
4.02 -0.708418
4.03 -0.734834
4.04 -0.733012
4.05 -0.713751
4.06 -0.683953
4.07 -0.650847
4.08 -0.620017
4.09 -0.596998
4.1 -0.583722
4.11 -0.582651
4.12 -0.59381
4.13 -0.615768
4.14 -0.647554
4.15 -0.685323
4.16 -0.726539
4.17 -0.767419
4.18 -0.804857
4.19 -0.83536
4.2 -0.857378
4.21 -0.867299
4.22 -0.865637
4.23 -0.850856
4.24 -0.823402
4.25 -0.784551
4.26 -0.734365
4.27 -0.675801
4.28 -0.609569
4.29 -0.538167
4.3 -0.463106
4.31 -0.385927
4.32 -0.308002
4.33 -0.230334
4.34 -0.153571
4.35 -0.0782036
4.36 -0.00442773
4.37 0.0677719
4.38 0.1382
4.39 0.207053
4.4 0.273967
4.41 0.33877
4.42 0.40092
4.43 0.459443
4.44 0.513827
4.45 0.56203
4.46 0.603626
4.47 0.636696
4.48 0.659998
4.49 0.672937
4.5 0.673224
4.51 0.661942
4.52 0.637295
4.53 0.600578
4.54 0.552159
4.55 0.492668
4.56 0.424547
4.57 0.348343
4.58 0.267179
4.59 0.182694
4.6 0.0972831
4.61 0.0128818
4.62 -0.0682287
4.63 -0.14495
4.64 -0.215351
4.65 -0.279016
4.66 -0.335358
4.67 -0.383916
4.68 -0.425729
4.69 -0.460298
4.7 -0.489439
4.71 -0.513611
4.72 -0.534029
4.73 -0.551813
4.74 -0.567734
4.75 -0.582797
4.76 -0.59753
4.77 -0.612377
4.78 -0.627511
4.79 -0.642922
4.8 -0.658407
4.81 -0.673609
4.82 -0.688163
4.83 -0.701593
4.84 -0.713491
4.85 -0.723639
4.86 -0.731592
4.87 -0.737577
4.88 -0.74142
4.89 -0.743529
4.9 -0.744205
4.91 -0.743874
4.92 -0.743091
4.93 -0.742365
4.94 -0.742167
4.95 -0.742948
4.96 -0.745026
4.97 -0.748514
4.98 -0.753652
4.99 -0.760161
5 -0.768044
5.01 -0.776922
5.02 -0.786528
5.03 -0.796543
5.04 -0.80666
5.05 -0.816623
5.06 -0.826294
5.07 -0.835574
5.08 -0.84448
5.09 -0.853095
5.1 -0.861503
5.11 -0.869818
5.12 -0.878058
5.13 -0.886128
5.14 -0.893775
5.15 -0.900432
5.16 -0.905532
5.17 -0.907661
5.18 -0.905952
5.19 -0.898586
5.2 -0.883832
5.21 -0.860434
5.22 -0.82531
5.23 -0.778434
5.24 -0.716753
5.25 -0.64036
5.26 -0.548486
5.27 -0.440406
5.28 -0.318441
5.29 -0.181857
5.3 -0.0348215
5.31 0.120796
5.32 0.281098
5.33 0.442234
5.34 0.599341
5.35 0.748656
5.36 0.884398
5.37 1.00315
5.38 1.10099
5.39 1.17318
5.4 1.22012
5.41 1.2357
5.42 1.22363
5.43 1.18187
5.44 1.11245
5.45 1.0189
5.46 0.901964
5.47 0.76844
5.48 0.620745
5.49 0.464905
5.5 0.305291
5.51 0.146911
5.52 -0.00646116
5.53 -0.14966
5.54 -0.28096
5.55 -0.397018
5.56 -0.496396
5.57 -0.57927
5.58 -0.643683
5.59 -0.692804
5.6 -0.726015
5.61 -0.74643
5.62 -0.755794
5.63 -0.755983
5.64 -0.749895
5.65 -0.738688
5.66 -0.724702
5.67 -0.708907
5.68 -0.69221
5.69 -0.674982
5.7 -0.657084
5.71 -0.638194
5.72 -0.617439
5.73 -0.594059
5.74 -0.56716
5.75 -0.535639
5.76 -0.499411
5.77 -0.457309
5.78 -0.410185
5.79 -0.35806
5.8 -0.301975
5.81 -0.243309
5.82 -0.183623
5.83 -0.124863
5.84 -0.0693153
5.85 -0.0189164
5.86 0.024374
5.87 0.0581946
5.88 0.0822223
5.89 0.0936392
5.9 0.0936321
5.91 0.0812126
5.92 0.0571217
5.93 0.0228711
5.94 -0.0211576
5.95 -0.0719877
5.96 -0.128438
5.97 -0.187897
5.98 -0.248478
5.99 -0.308112
6 -0.365409
6.01 -0.418506
6.02 -0.467097
6.03 -0.510367
6.04 -0.548387
6.05 -0.581784
6.06 -0.61082
6.07 -0.637009
6.08 -0.66116
6.09 -0.684649
6.1 -0.708493
6.11 -0.73374
6.12 -0.76084
6.13 -0.790489
6.14 -0.822322
6.15 -0.856154
6.16 -0.891197
6.17 -0.926509
6.18 -0.960802
6.19 -0.993032
6.2 -1.02166
6.21 -1.04583
6.22 -1.06469
6.23 -1.07737
6.24 -1.08439
6.25 -1.08508
6.26 -1.08093
6.27 -1.07251
6.28 -1.0612
6.29 -1.04839
6.3 -1.03546
6.31 -1.02356
6.32 -1.01372
6.33 -1.00619
6.34 -1.00075
6.35 -0.99647
6.36 -0.991648
6.37 -0.983328
6.38 -0.968696
6.39 -0.943376
6.4 -0.90272
6.41 -0.84327
6.42 -0.757249
6.43 -0.643933
6.44 -0.495598
6.45 -0.311643
6.46 -0.0896989
6.47 0.173053
6.48 0.471568
6.49 0.809048
6.5 1.17608
6.51 1.56948
6.52 1.98096
6.53 2.4017
6.54 2.82176
6.55 3.23134
6.56 3.61788
6.57 3.97202
6.58 4.2839
6.59 4.54105
6.6 4.74221
6.61 4.87111
6.62 4.93336
6.63 4.92146
6.64 4.83664
6.65 4.68506
6.66 4.46357
6.67 4.18779
6.68 3.85919
6.69 3.49173
6.7 3.09476
6.71 2.67895
6.72 2.2563
6.73 1.83775
6.74 1.43264
6.75 1.05062
6.76 0.699407
6.77 0.382601
6.78 0.109192
6.79 -0.12447
6.8 -0.312609
6.81 -0.459731
6.82 -0.567639
6.83 -0.638207
6.84 -0.679446
6.85 -0.692169
6.86 -0.685494
6.87 -0.662952
6.88 -0.630143
6.89 -0.591701
6.9 -0.551281
6.91 -0.512026
6.92 -0.476372
6.93 -0.445487
6.94 -0.420005
6.95 -0.400198
6.96 -0.384982
6.97 -0.37413
6.98 -0.366003
6.99 -0.359785
7 -0.354443
7.01 -0.349308
7.02 -0.344012
7.03 -0.338619
7.04 -0.333566
7.05 -0.329647
7.06 -0.327869
7.07 -0.329737
7.08 -0.336044
7.09 -0.348924
7.1 -0.368543
7.11 -0.396166
7.12 -0.432066
7.13 -0.475676
7.14 -0.527273
7.15 -0.584736
7.16 -0.647222
7.17 -0.712377
7.18 -0.778221
7.19 -0.842264
7.2 -0.902673
7.21 -0.956509
7.22 -1.00289
7.23 -1.0399
7.24 -1.06676
7.25 -1.08378
7.26 -1.09006
7.27 -1.08787
7.28 -1.07754
7.29 -1.0615
7.3 -1.04155
7.31 -1.01985
7.32 -0.998453
7.33 -0.979473
7.34 -0.964059
7.35 -0.953436
7.36 -0.947961
7.37 -0.947101
7.38 -0.950374
7.39 -0.955714
7.4 -0.96116
7.41 -0.963997
7.42 -0.961499
7.43 -0.950004
7.44 -0.927815
7.45 -0.890143
7.46 -0.836808
7.47 -0.764979
7.48 -0.673893
7.49 -0.564583
7.5 -0.435656
7.51 -0.291398
7.52 -0.13248
7.53 0.0365774
7.54 0.212216
7.55 0.389952
7.56 0.565396
7.57 0.732932
7.58 0.889111
7.59 1.029
7.6 1.14884
7.61 1.24707
7.62 1.31841
7.63 1.36521
7.64 1.38381
7.65 1.37666
7.66 1.34464
7.67 1.28843
7.68 1.21287
7.69 1.11809
7.7 1.00991
7.71 0.890593
7.72 0.764035
7.73 0.633728
7.74 0.502859
7.75 0.374289
7.76 0.250997
7.77 0.134909
7.78 0.0277888
7.79 -0.068239
7.8 -0.153396
7.81 -0.225063
7.82 -0.284579
7.83 -0.33082
7.84 -0.363982
7.85 -0.385061
7.86 -0.393021
7.87 -0.390254
7.88 -0.376232
7.89 -0.352825
7.9 -0.321073
7.91 -0.282048
7.92 -0.237969
7.93 -0.189988
7.94 -0.140543
7.95 -0.0915041
7.96 -0.0451649
7.97 -0.00328915
7.98 0.0311942
7.99 0.0574856
8 0.0728255
8.01 0.0766278
8.02 0.0679558
8.03 0.0455932
8.04 0.0110857
8.05 -0.0368827
8.06 -0.0954207
8.07 -0.163797
8.08 -0.239746
8.09 -0.32073
8.1 -0.40453
8.11 -0.488313
8.12 -0.569493
8.13 -0.645878
8.14 -0.715625
8.15 -0.776677
8.16 -0.829096
8.17 -0.871019
8.18 -0.903995
8.19 -0.928025
8.2 -0.944456
8.21 -0.955109
8.22 -0.961205
8.23 -0.965056
8.24 -0.968079
8.25 -0.971744
8.26 -0.976889
8.27 -0.983948
8.28 -0.992374
8.29 -1.00114
8.3 -1.00832
8.31 -1.0113
8.32 -1.0067
8.33 -0.991709
8.34 -0.960564
8.35 -0.911777
8.36 -0.839318
8.37 -0.741554
8.38 -0.616026
8.39 -0.459384
8.4 -0.274633
8.41 -0.0581158
8.42 0.183862
8.43 0.44987
8.44 0.734574
8.45 1.03156
8.46 1.33467
8.47 1.63593
8.48 1.92695
8.49 2.20013
8.5 2.44818
8.51 2.66164
8.52 2.83859
8.53 2.96736
8.54 3.05047
8.55 3.08229
8.56 3.06254
8.57 2.99519
8.58 2.87687
8.59 2.71833
8.6 2.51983
8.61 2.29067
8.62 2.03715
8.63 1.76602
8.64 1.48598
8.65 1.20376
8.66 0.926495
8.67 0.660495
8.68 0.411395
8.69 0.182009
8.7 -0.0214848
8.71 -0.200762
8.72 -0.351891
8.73 -0.477076
8.74 -0.577257
8.75 -0.653087
8.76 -0.709537
8.77 -0.746781
8.78 -0.770512
8.79 -0.782867
8.8 -0.787353
8.81 -0.787082
8.82 -0.784362
8.83 -0.78156
8.84 -0.780375
8.85 -0.781923
8.86 -0.786879
8.87 -0.795774
8.88 -0.808114
8.89 -0.824057
8.9 -0.842571
8.91 -0.863184
8.92 -0.885084
8.93 -0.907551
8.94 -0.92993
8.95 -0.95174
8.96 -0.972522
8.97 -0.992106
8.98 -1.01041
8.99 -1.02738
9 -1.04329
9.01 -1.05817
9.02 -1.07234
9.03 -1.08595
9.04 -1.09911
9.05 -1.11189
9.06 -1.12415
9.07 -1.13578
9.08 -1.14634
9.09 -1.15544
9.1 -1.16254
9.11 -1.16679
9.12 -1.16784
9.13 -1.16434
9.14 -1.15614
9.15 -1.14223
9.16 -1.12197
9.17 -1.09534
9.18 -1.0611
9.19 -1.02018
9.2 -0.971794
9.21 -0.916767
9.22 -0.855559
9.23 -0.788626
9.24 -0.717479
9.25 -0.642741
9.26 -0.566222
9.27 -0.489223
9.28 -0.41346
9.29 -0.340318
9.3 -0.271995
9.31 -0.209303
9.32 -0.154412
9.33 -0.108082
9.34 -0.0712734
9.35 -0.0453865
9.36 -0.0295875
9.37 -0.0255782
9.38 -0.0315603
9.39 -0.0476464
9.4 -0.0727344
9.41 -0.105125
9.42 -0.144082
9.43 -0.18709
9.44 -0.232815
9.45 -0.279167
9.46 -0.324503
9.47 -0.366936
9.48 -0.405493
9.49 -0.438266
9.5 -0.465168
9.51 -0.485327
9.52 -0.49867
9.53 -0.505867
9.54 -0.506781
9.55 -0.503139
9.56 -0.495537
9.57 -0.485593
9.58 -0.474576
9.59 -0.463943
9.6 -0.454814
9.61 -0.448684
9.62 -0.446078
9.63 -0.447872
9.64 -0.454442
9.65 -0.46556
9.66 -0.481628
9.67 -0.501561
9.68 -0.525222
9.69 -0.551602
9.7 -0.579983
9.71 -0.609633
9.72 -0.639778
9.73 -0.669846
9.74 -0.69941
9.75 -0.728161
9.76 -0.755943
9.77 -0.782777
9.78 -0.808531
9.79 -0.833324
9.8 -0.856875
9.81 -0.878883
9.82 -0.898728
9.83 -0.915104
9.84 -0.927055
9.85 -0.931697
9.86 -0.927524
9.87 -0.91115
9.88 -0.879144
9.89 -0.829417
9.9 -0.755524
9.91 -0.657541
9.92 -0.529251
9.93 -0.369942
9.94 -0.177809
9.95 0.0503511
9.96 0.310454
9.97 0.606167
9.98 0.930369
9.99 1.28129
10 1.65317
10.01 2.03893
10.02 2.43199
10.03 2.82353
10.04 3.20443
10.05 3.56607
10.06 3.90028
10.07 4.19603
10.08 4.45075
10.09 4.65075
10.1 4.79788
10.11 4.88507
10.12 4.91062
10.13 4.87856
10.14 4.78307
10.15 4.63632
10.16 4.43713
10.17 4.19565
10.18 3.91873
10.19 3.61319
10.2 3.28997
10.21 2.95578
10.22 2.62032
10.23 2.29091
10.24 1.97498
10.25 1.67686
10.26 1.40423
10.27 1.15664
10.28 0.939131
10.29 0.750345
10.3 0.589725
10.31 0.457256
10.32 0.347503
10.33 0.260555
10.34 0.189924
10.35 0.133066
10.36 0.0858037
10.37 0.0442505
10.38 0.00546712
10.39 -0.0335686
10.4 -0.0751227
10.41 -0.120671
10.42 -0.171092
10.43 -0.227106
10.44 -0.287937
10.45 -0.353669
10.46 -0.422726
10.47 -0.494179
10.48 -0.566578
10.49 -0.638627
10.5 -0.708767
10.51 -0.776113
10.52 -0.839259
10.53 -0.897589
10.54 -0.950508
10.55 -0.997148
10.56 -1.03795
10.57 -1.07184
10.58 -1.09962
10.59 -1.12092
10.6 -1.13583
10.61 -1.14484
10.62 -1.14726
10.63 -1.14408
10.64 -1.13472
10.65 -1.11967
10.66 -1.0991
10.67 -1.07288
10.68 -1.04192
10.69 -1.00595
10.7 -0.966155
10.71 -0.922973
10.72 -0.877349
10.73 -0.83035
10.74 -0.783072
10.75 -0.73671
10.76 -0.692655
10.77 -0.652061
10.78 -0.616018
10.79 -0.586027
10.8 -0.562234
10.81 -0.546401
10.82 -0.538004
10.83 -0.53774
10.84 -0.545525
10.85 -0.56052
10.86 -0.583066
10.87 -0.611343
10.88 -0.645056
10.89 -0.682697
10.9 -0.72316
10.91 -0.765284
10.92 -0.807804
10.93 -0.849558
10.94 -0.889645
10.95 -0.927141
10.96 -0.961316
10.97 -0.991951
10.98 -1.0182
10.99 -1.04057
11 -1.05864
11.01 -1.07288
11.02 -1.08363
11.03 -1.09113
11.04 -1.09623
11.05 -1.09918
11.06 -1.10085
11.07 -1.10173
11.08 -1.10247
11.09 -1.10355
11.1 -1.10556
11.11 -1.10875
11.12 -1.11354
11.13 -1.11994
11.14 -1.12794
11.15 -1.13739
11.16 -1.14774
11.17 -1.15839
11.18 -1.16839
11.19 -1.17657
11.2 -1.18142
11.21 -1.18167
11.22 -1.17458
11.23 -1.15926
11.24 -1.13257
11.25 -1.093
11.26 -1.03869
11.27 -0.966546
11.28 -0.877112
11.29 -0.766301
11.3 -0.636
11.31 -0.484761
11.32 -0.313112
11.33 -0.123528
11.34 0.084302
11.35 0.305248
11.36 0.537463
11.37 0.776032
11.38 1.01673
11.39 1.2542
11.4 1.4841
11.41 1.69946
11.42 1.89694
11.43 2.07081
11.44 2.2164
11.45 2.33246
11.46 2.41165
11.47 2.45742
11.48 2.46488
11.49 2.43671
11.5 2.37423
11.51 2.27759
11.52 2.15354
11.53 2.00205
11.54 1.83099
11.55 1.64375
11.56 1.44583
11.57 1.24254
11.58 1.03869
11.59 0.838666
11.6 0.646968
11.61 0.466541
11.62 0.299704
11.63 0.149385
11.64 0.0145951
11.65 -0.101998
11.66 -0.203122
11.67 -0.288836
11.68 -0.360853
11.69 -0.421871
11.7 -0.47279
11.71 -0.517153
11.72 -0.55634
11.73 -0.592707
11.74 -0.627788
11.75 -0.662907
11.76 -0.698821
11.77 -0.736071
11.78 -0.774409
11.79 -0.81341
11.8 -0.852102
11.81 -0.889422
11.82 -0.923508
11.83 -0.953272
11.84 -0.976475
11.85 -0.991772
11.86 -0.99775
11.87 -0.992189
11.88 -0.975335
11.89 -0.944435
11.9 -0.900619
11.91 -0.842841
11.92 -0.771209
11.93 -0.687133
11.94 -0.589786
11.95 -0.482162
11.96 -0.364519
11.97 -0.239309
11.98 -0.108417
11.99 0.0261033
12 0.161702
12.01 0.295847
12.02 0.426203
12.03 0.550141
12.04 0.665018
12.05 0.76943
12.06 0.859491
12.07 0.935489
12.08 0.994208
12.09 1.03553
12.1 1.0589
12.11 1.0628
12.12 1.04965
12.13 1.01758
12.14 0.970063
12.15 0.907658
12.16 0.832492
12.17 0.747534
12.18 0.654265
12.19 0.556403
12.2 0.456107
12.21 0.356234
12.22 0.258987
12.23 0.166904
12.24 0.080963
12.25 0.00353408
12.26 -0.0656133
12.27 -0.125684
12.28 -0.176871
12.29 -0.220397
12.3 -0.256363
12.31 -0.287151
12.32 -0.313739
12.33 -0.338129
12.34 -0.361854
12.35 -0.386544
12.36 -0.413226
12.37 -0.443203
12.38 -0.476556
12.39 -0.5135
12.4 -0.553532
