# xPDFsuite Configuration #
[PDF]
wavelength = 0.1432
dataformat = twotheta
inputfile = 1_1Pd_CeO2_cycle-00163.chi
backgroundfile = background-00000.chi
mode = xray
bgscale = 1.007
composition = CeO2
outputtype = gr
qmaxinst = 28.8974762299
qmin = 0.5
qmax = 27.9
rmax = 50.0
rmin = 0.0
rstep = 0.01
rpoly = 1.8657

[Misc]
inputdir = G:/SankarDec16/1Pd/Chi
savedir = D:/DATA/APS_CeO2/1Pd
backgroundfilefull = G:/SankarDec16/Background/background-00000.chi

#### start data
#S 1
#L r($\AA$)  G($\AA^{-2}$)
0 0
0.01 -0.00643451
0.02 -0.0123839
0.03 -0.0173487
0.04 -0.0209527
0.05 -0.0229868
0.06 -0.0231146
0.07 -0.0215606
0.08 -0.0182169
0.09 -0.0135117
0.1 -0.0077413
0.11 -0.00135913
0.12 0.00514073
0.13 0.0112036
0.14 0.0164372
0.15 0.020361
0.16 0.0226939
0.17 0.0233244
0.18 0.0220239
0.19 0.0191229
0.2 0.0146355
0.21 0.009061
0.22 0.00276862
0.23 -0.00373246
0.24 -0.00997754
0.25 -0.0153691
0.26 -0.0196267
0.27 -0.0223119
0.28 -0.0232525
0.29 -0.02244
0.3 -0.0197651
0.31 -0.0156484
0.32 -0.0102255
0.33 -0.00404319
0.34 0.00247436
0.35 0.00878633
0.36 0.0144801
0.37 0.0189441
0.38 0.0220232
0.39 0.0233428
0.4 0.0228479
0.41 0.0206338
0.42 0.0167162
0.43 0.0115859
0.44 0.00549341
0.45 -0.000992712
0.46 -0.00741411
0.47 -0.013224
0.48 -0.0180821
0.49 -0.0213927
0.5 -0.0231335
0.51 -0.0230122
0.52 -0.0210943
0.53 -0.0175748
0.54 -0.0125939
0.55 -0.0066893
0.56 -0.000214827
0.57 0.00626659
0.58 0.0122846
0.59 0.0173127
0.6 0.0211
0.61 0.0230953
0.62 0.023411
0.63 0.0218519
0.64 0.018601
0.65 0.0139441
0.66 0.00814006
0.67 0.00174749
0.68 -0.00479339
0.69 -0.0109522
0.7 -0.0162694
0.71 -0.0202642
0.72 -0.0227873
0.73 -0.0233589
0.74 -0.0222208
0.75 -0.0192838
0.76 -0.0148396
0.77 -0.00925022
0.78 -0.00287965
0.79 0.00372035
0.8 0.0100467
0.81 0.0156281
0.82 0.0200403
0.83 0.0228731
0.84 0.0240867
0.85 0.0232989
0.86 0.0208673
0.87 0.0168135
0.88 0.0115216
0.89 0.00540864
0.9 -0.0010786
0.91 -0.00742884
0.92 -0.0131106
0.93 -0.0177438
0.94 -0.020973
0.95 -0.0224952
0.96 -0.0223905
0.97 -0.0204222
0.98 -0.0170486
0.99 -0.0124259
1 -0.00702373
1.01 -0.00129938
1.02 0.00421541
1.03 0.0090916
1.04 0.0127775
1.05 0.0150263
1.06 0.0155797
1.07 0.0142792
1.08 0.0113603
1.09 0.00678014
1.1 0.00112961
1.11 -0.00524729
1.12 -0.0117501
1.13 -0.0178436
1.14 -0.0228269
1.15 -0.0263428
1.16 -0.0277138
1.17 -0.0268069
1.18 -0.0233954
1.19 -0.0173883
1.2 -0.00919506
1.21 0.00117599
1.22 0.0129158
1.23 0.0255621
1.24 0.0383445
1.25 0.0505885
1.26 0.0614104
1.27 0.0703591
1.28 0.0765563
1.29 0.0797896
1.3 0.079697
1.31 0.0760264
1.32 0.0691865
1.33 0.0588942
1.34 0.0460552
1.35 0.0309333
1.36 0.0142706
1.37 -0.00324208
1.38 -0.0208823
1.39 -0.0379778
1.4 -0.0537644
1.41 -0.0677778
1.42 -0.0795326
1.43 -0.0885689
1.44 -0.0949655
1.45 -0.09816
1.46 -0.0986592
1.47 -0.0963237
1.48 -0.091468
1.49 -0.0844447
1.5 -0.0753853
1.51 -0.0648708
1.52 -0.0530671
1.53 -0.04044
1.54 -0.0272699
1.55 -0.0138714
1.56 -0.000519368
1.57 0.012472
1.58 0.0249049
1.59 0.0364788
1.6 0.0469512
1.61 0.0561374
1.62 0.0636145
1.63 0.0693715
1.64 0.0729251
1.65 0.0742652
1.66 0.0731799
1.67 0.0694694
1.68 0.063376
1.69 0.0545657
1.7 0.0436137
1.71 0.030584
1.72 0.0159511
1.73 0.000217291
1.74 -0.0161024
1.75 -0.0323621
1.76 -0.0478888
1.77 -0.0621212
1.78 -0.0745042
1.79 -0.0844621
1.8 -0.0919426
1.81 -0.0963147
1.82 -0.0980407
1.83 -0.0970386
1.84 -0.0937676
1.85 -0.0887847
1.86 -0.0826291
1.87 -0.0761294
1.88 -0.0700412
1.89 -0.0650899
1.9 -0.061933
1.91 -0.0612359
1.92 -0.0630827
1.93 -0.0681018
1.94 -0.075756
1.95 -0.0860061
1.96 -0.0982148
1.97 -0.111644
1.98 -0.125429
1.99 -0.138601
2 -0.149993
2.01 -0.158736
2.02 -0.163907
2.03 -0.164534
2.04 -0.160578
2.05 -0.150885
2.06 -0.136246
2.07 -0.116379
2.08 -0.0919025
2.09 -0.063595
2.1 -0.0319467
2.11 0.00177698
2.12 0.0368983
2.13 0.0724056
2.14 0.107608
2.15 0.14186
2.16 0.174932
2.17 0.206473
2.18 0.23682
2.19 0.26618
2.2 0.295114
2.21 0.324196
2.22 0.354182
2.23 0.385524
2.24 0.418911
2.25 0.454436
2.26 0.492145
2.27 0.53175
2.28 0.572451
2.29 0.613245
2.3 0.65277
2.31 0.6893
2.32 0.720969
2.33 0.746258
2.34 0.762362
2.35 0.768888
2.36 0.76305
2.37 0.744926
2.38 0.713749
2.39 0.669093
2.4 0.61292
2.41 0.544703
2.42 0.468022
2.43 0.384333
2.44 0.296706
2.45 0.207962
2.46 0.121375
2.47 0.0393869
2.48 -0.0345859
2.49 -0.0989542
2.5 -0.151894
2.51 -0.191788
2.52 -0.219634
2.53 -0.233761
2.54 -0.23721
2.55 -0.230576
2.56 -0.216436
2.57 -0.197388
2.58 -0.175951
2.59 -0.154976
2.6 -0.137206
2.61 -0.124633
2.62 -0.119014
2.63 -0.121908
2.64 -0.13291
2.65 -0.153241
2.66 -0.180739
2.67 -0.214738
2.68 -0.253099
2.69 -0.293671
2.7 -0.334073
2.71 -0.372173
2.72 -0.405436
2.73 -0.432474
2.74 -0.451934
2.75 -0.462721
2.76 -0.465631
2.77 -0.459918
2.78 -0.447953
2.79 -0.430735
2.8 -0.410545
2.81 -0.389537
2.82 -0.370214
2.83 -0.35439
2.84 -0.344524
2.85 -0.341591
2.86 -0.346607
2.87 -0.360219
2.88 -0.381245
2.89 -0.409848
2.9 -0.443412
2.91 -0.480471
2.92 -0.518496
2.93 -0.555257
2.94 -0.587934
2.95 -0.61506
2.96 -0.634052
2.97 -0.644372
2.98 -0.64527
2.99 -0.636454
3 -0.619589
3.01 -0.594875
3.02 -0.565345
3.03 -0.5328
3.04 -0.500025
3.05 -0.469359
3.06 -0.44377
3.07 -0.424537
3.08 -0.414176
3.09 -0.4129
3.1 -0.421166
3.11 -0.438877
3.12 -0.464072
3.13 -0.496077
3.14 -0.53175
3.15 -0.56902
3.16 -0.605091
3.17 -0.637778
3.18 -0.664247
3.19 -0.683742
3.2 -0.694225
3.21 -0.696153
3.22 -0.689763
3.23 -0.676031
3.24 -0.657369
3.25 -0.635666
3.26 -0.614077
3.27 -0.59543
3.28 -0.582646
3.29 -0.577704
3.3 -0.583672
3.31 -0.600248
3.32 -0.629229
3.33 -0.668951
3.34 -0.718247
3.35 -0.774942
3.36 -0.835574
3.37 -0.896798
3.38 -0.954803
3.39 -1.00564
3.4 -1.04583
3.41 -1.07329
3.42 -1.08435
3.43 -1.08028
3.44 -1.0593
3.45 -1.02432
3.46 -0.977461
3.47 -0.922142
3.48 -0.863077
3.49 -0.805036
3.5 -0.752646
3.51 -0.710838
3.52 -0.683448
3.53 -0.672293
3.54 -0.680691
3.55 -0.705709
3.56 -0.747237
3.57 -0.799598
3.58 -0.857466
3.59 -0.912755
3.6 -0.957895
3.61 -0.980211
3.62 -0.973174
3.63 -0.924647
3.64 -0.826148
3.65 -0.673291
3.66 -0.453793
3.67 -0.173679
3.68 0.17528
3.69 0.584145
3.7 1.04847
3.71 1.56065
3.72 2.10522
3.73 2.6717
3.74 3.24126
3.75 3.79766
3.76 4.3226
3.77 4.80217
3.78 5.21328
3.79 5.55188
3.8 5.7963
3.81 5.94598
3.82 5.99441
3.83 5.93578
3.84 5.78327
3.85 5.52763
3.86 5.19269
3.87 4.78281
3.88 4.31483
3.89 3.80564
3.9 3.26917
3.91 2.72451
3.92 2.18716
3.93 1.67152
3.94 1.18986
3.95 0.755148
3.96 0.369452
3.97 0.0467208
3.98 -0.219952
3.99 -0.426027
4 -0.57604
4.01 -0.677179
4.02 -0.731356
4.03 -0.752054
4.04 -0.743561
4.05 -0.717083
4.06 -0.679847
4.07 -0.63949
4.08 -0.601909
4.09 -0.573121
4.1 -0.555216
4.11 -0.550989
4.12 -0.560607
4.13 -0.582627
4.14 -0.616246
4.15 -0.657286
4.16 -0.7032
4.17 -0.749817
4.18 -0.793754
4.19 -0.83116
4.2 -0.860116
4.21 -0.876599
4.22 -0.880846
4.23 -0.870977
4.24 -0.847209
4.25 -0.810732
4.26 -0.761358
4.27 -0.702249
4.28 -0.634015
4.29 -0.559423
4.3 -0.480157
4.31 -0.397987
4.32 -0.314619
4.33 -0.23131
4.34 -0.14902
4.35 -0.0685088
4.36 0.00978551
4.37 0.0857378
4.38 0.158909
4.39 0.229554
4.4 0.297157
4.41 0.36167
4.42 0.422604
4.43 0.47907
4.44 0.530772
4.45 0.575745
4.46 0.613805
4.47 0.643166
4.48 0.662755
4.49 0.672095
4.5 0.669037
4.51 0.65471
4.52 0.627415
4.53 0.588452
4.54 0.538206
4.55 0.477325
4.56 0.408193
4.57 0.331398
4.58 0.249986
4.59 0.165612
4.6 0.0806523
4.61 -0.00297617
4.62 -0.0829503
4.63 -0.158212
4.64 -0.226775
4.65 -0.28825
4.66 -0.342042
4.67 -0.38769
4.68 -0.426294
4.69 -0.45736
4.7 -0.482817
4.71 -0.503196
4.72 -0.519837
4.73 -0.533974
4.74 -0.546555
4.75 -0.558681
4.76 -0.571087
4.77 -0.584304
4.78 -0.598624
4.79 -0.614176
4.8 -0.630705
4.81 -0.648024
4.82 -0.665595
4.83 -0.68295
4.84 -0.699544
4.85 -0.714986
4.86 -0.728694
4.87 -0.740637
4.88 -0.750432
4.89 -0.758251
4.9 -0.764179
4.91 -0.768388
4.92 -0.771343
4.93 -0.773249
4.94 -0.774628
4.95 -0.775778
4.96 -0.777033
4.97 -0.778601
4.98 -0.780694
4.99 -0.783309
5 -0.786515
5.01 -0.790206
5.02 -0.794312
5.03 -0.798755
5.04 -0.803442
5.05 -0.808388
5.06 -0.813592
5.07 -0.819166
5.08 -0.825252
5.09 -0.83197
5.1 -0.839566
5.11 -0.84801
5.12 -0.857393
5.13 -0.867453
5.14 -0.877834
5.15 -0.887837
5.16 -0.89668
5.17 -0.902804
5.18 -0.905123
5.19 -0.901644
5.2 -0.890462
5.21 -0.870203
5.22 -0.837605
5.23 -0.792646
5.24 -0.732144
5.25 -0.656246
5.26 -0.5642
5.27 -0.455319
5.28 -0.332071
5.29 -0.193776
5.3 -0.0447902
5.31 0.112902
5.32 0.275252
5.33 0.438295
5.34 0.597022
5.35 0.747627
5.36 0.884225
5.37 1.00341
5.38 1.10125
5.39 1.17306
5.4 1.21932
5.41 1.23401
5.42 1.22095
5.43 1.17826
5.44 1.10808
5.45 1.01406
5.46 0.89708
5.47 0.763962
5.48 0.617227
5.49 0.462867
5.5 0.305229
5.51 0.149266
5.52 -0.00139458
5.53 -0.141694
5.54 -0.270096
5.55 -0.383431
5.56 -0.480453
5.57 -0.56147
5.58 -0.624758
5.59 -0.673497
5.6 -0.707242
5.61 -0.729062
5.62 -0.740687
5.63 -0.743945
5.64 -0.741528
5.65 -0.734498
5.66 -0.724911
5.67 -0.71353
5.68 -0.700996
5.69 -0.687478
5.7 -0.672535
5.71 -0.655773
5.72 -0.636071
5.73 -0.612678
5.74 -0.584672
5.75 -0.550956
5.76 -0.511666
5.77 -0.465689
5.78 -0.414208
5.79 -0.357457
5.8 -0.296777
5.81 -0.233794
5.82 -0.170398
5.83 -0.108668
5.84 -0.0511662
5.85 0.000129024
5.86 0.0432004
5.87 0.0756571
5.88 0.0973812
5.89 0.105576
5.9 0.101762
5.91 0.085144
5.92 0.0567586
5.93 0.018368
5.94 -0.0293373
5.95 -0.0832354
5.96 -0.141889
5.97 -0.202643
5.98 -0.263562
5.99 -0.322566
6 -0.37846
6.01 -0.429436
6.02 -0.475495
6.03 -0.516028
6.04 -0.551384
6.05 -0.582411
6.06 -0.609663
6.07 -0.634744
6.08 -0.658671
6.09 -0.682798
6.1 -0.708128
6.11 -0.735632
6.12 -0.765522
6.13 -0.798319
6.14 -0.833333
6.15 -0.870096
6.16 -0.907503
6.17 -0.944398
6.18 -0.979139
6.19 -1.01069
6.2 -1.03727
6.21 -1.05816
6.22 -1.07258
6.23 -1.07984
6.24 -1.08079
6.25 -1.07506
6.26 -1.06458
6.27 -1.05029
6.28 -1.034
6.29 -1.01738
6.3 -1.00228
6.31 -0.98982
6.32 -0.981339
6.33 -0.97691
6.34 -0.976237
6.35 -0.978175
6.36 -0.980572
6.37 -0.980162
6.38 -0.973564
6.39 -0.955935
6.4 -0.922109
6.41 -0.868278
6.42 -0.786097
6.43 -0.67483
6.44 -0.526367
6.45 -0.340261
6.46 -0.114226
6.47 0.154384
6.48 0.460014
6.49 0.805569
6.5 1.181
6.51 1.58262
6.52 2.00158
6.53 2.42866
6.54 2.85331
6.55 3.26567
6.56 3.65276
6.57 4.00534
6.58 4.31363
6.59 4.5653
6.6 4.75959
6.61 4.88052
6.62 4.93435
6.63 4.91406
6.64 4.82144
6.65 4.66307
6.66 4.43638
6.67 4.15707
6.68 3.82698
6.69 3.45999
6.7 3.06535
6.71 2.65359
6.72 2.23623
6.73 1.8239
6.74 1.42536
6.75 1.04979
6.76 0.704404
6.77 0.392431
6.78 0.122352
6.79 -0.109497
6.8 -0.297643
6.81 -0.446419
6.82 -0.557491
6.83 -0.63249
6.84 -0.678945
6.85 -0.697283
6.86 -0.696079
6.87 -0.678373
6.88 -0.649291
6.89 -0.613188
6.9 -0.57324
6.91 -0.532711
6.92 -0.493816
6.93 -0.458027
6.94 -0.42623
6.95 -0.399072
6.96 -0.376028
6.97 -0.357416
6.98 -0.342155
6.99 -0.330012
7 -0.320454
7.01 -0.31306
7.02 -0.307989
7.03 -0.305052
7.04 -0.304895
7.05 -0.307877
7.06 -0.314659
7.07 -0.326259
7.08 -0.342789
7.09 -0.365714
7.1 -0.394551
7.11 -0.429879
7.12 -0.471392
7.13 -0.518249
7.14 -0.570115
7.15 -0.625177
7.16 -0.682344
7.17 -0.739767
7.18 -0.795857
7.19 -0.848665
7.2 -0.897139
7.21 -0.939069
7.22 -0.974323
7.23 -1.00176
7.24 -1.02123
7.25 -1.0334
7.26 -1.03806
7.27 -1.03718
7.28 -1.0314
7.29 -1.02264
7.3 -1.01232
7.31 -1.00207
7.32 -0.993109
7.33 -0.986846
7.34 -0.983603
7.35 -0.983831
7.36 -0.987178
7.37 -0.992737
7.38 -0.999289
7.39 -1.00502
7.4 -1.00761
7.41 -1.0048
7.42 -0.994211
7.43 -0.972658
7.44 -0.939252
7.45 -0.889841
7.46 -0.825071
7.47 -0.74284
7.48 -0.643072
7.49 -0.527185
7.5 -0.394482
7.51 -0.249055
7.52 -0.0919209
7.53 0.072802
7.54 0.241857
7.55 0.41118
7.56 0.577116
7.57 0.734614
7.58 0.880972
7.59 1.0119
7.6 1.12426
7.61 1.21682
7.62 1.2849
7.63 1.33068
7.64 1.35077
7.65 1.34727
7.66 1.32075
7.67 1.27151
7.68 1.20376
7.69 1.11711
7.7 1.01675
7.71 0.904402
7.72 0.783447
7.73 0.657133
7.74 0.528173
7.75 0.399635
7.76 0.274323
7.77 0.15453
7.78 0.042313
7.79 -0.0598098
7.8 -0.151513
7.81 -0.229679
7.82 -0.29516
7.83 -0.346362
7.84 -0.383103
7.85 -0.406237
7.86 -0.414391
7.87 -0.410224
7.88 -0.393157
7.89 -0.365454
7.9 -0.32848
7.91 -0.283731
7.92 -0.233892
7.93 -0.180621
7.94 -0.12671
7.95 -0.0744246
7.96 -0.0263138
7.97 0.0158264
7.98 0.0488665
7.99 0.0723557
8 0.083607
8.01 0.0824763
8.02 0.0683974
8.03 0.0406189
8.04 0.00108914
8.05 -0.0509824
8.06 -0.112482
8.07 -0.182348
8.08 -0.258184
8.09 -0.337536
8.1 -0.418128
8.11 -0.497572
8.12 -0.573499
8.13 -0.644226
8.14 -0.708348
8.15 -0.764348
8.16 -0.812638
8.17 -0.851941
8.18 -0.883903
8.19 -0.908813
8.2 -0.928037
8.21 -0.943184
8.22 -0.955409
8.23 -0.966439
8.24 -0.977327
8.25 -0.988914
8.26 -1.0015
8.27 -1.01484
8.28 -1.02803
8.29 -1.03933
8.3 -1.04678
8.31 -1.04744
8.32 -1.03794
8.33 -1.01578
8.34 -0.975272
8.35 -0.915677
8.36 -0.831385
8.37 -0.721527
8.38 -0.584296
8.39 -0.417135
8.4 -0.223497
8.41 -0.000598913
8.42 0.245173
8.43 0.511947
8.44 0.79433
8.45 1.08619
8.46 1.38131
8.47 1.67251
8.48 1.95174
8.49 2.2122
8.5 2.44724
8.51 2.64818
8.52 2.81366
8.53 2.93285
8.54 3.00848
8.55 3.03542
8.56 3.01354
8.57 2.94665
8.58 2.83154
8.59 2.67829
8.6 2.48698
8.61 2.26623
8.62 2.02179
8.63 1.75981
8.64 1.48845
8.65 1.21381
8.66 0.94275
8.67 0.681198
8.68 0.434627
8.69 0.205943
8.7 0.00121181
8.71 -0.180758
8.72 -0.335878
8.73 -0.465843
8.74 -0.571192
8.75 -0.652108
8.76 -0.713197
8.77 -0.754166
8.78 -0.780558
8.79 -0.794273
8.8 -0.798762
8.81 -0.797276
8.82 -0.792142
8.83 -0.786132
8.84 -0.781176
8.85 -0.778807
8.86 -0.780046
8.87 -0.785837
8.88 -0.795901
8.89 -0.8108
8.9 -0.829499
8.91 -0.851667
8.92 -0.876434
8.93 -0.902861
8.94 -0.930169
8.95 -0.957449
8.96 -0.983938
8.97 -1.00905
8.98 -1.03235
8.99 -1.05338
9 -1.07224
9.01 -1.08855
9.02 -1.10271
9.03 -1.11473
9.04 -1.12484
9.05 -1.13335
9.06 -1.14025
9.07 -1.14586
9.08 -1.15007
9.09 -1.15288
9.1 -1.15409
9.11 -1.15324
9.12 -1.15015
9.13 -1.14384
9.14 -1.13411
9.15 -1.12004
9.16 -1.10095
9.17 -1.07657
9.18 -1.04557
9.19 -1.00848
9.2 -0.964299
9.21 -0.913492
9.22 -0.85625
9.23 -0.792724
9.24 -0.724298
9.25 -0.651329
9.26 -0.575679
9.27 -0.498593
9.28 -0.421879
9.29 -0.347104
9.3 -0.276598
9.31 -0.211464
9.32 -0.154091
9.33 -0.105491
9.34 -0.0668262
9.35 -0.0397192
9.36 -0.0233785
9.37 -0.0196845
9.38 -0.026724
9.39 -0.0445957
9.4 -0.0720527
9.41 -0.107198
9.42 -0.1491
9.43 -0.194994
9.44 -0.243293
9.45 -0.291695
9.46 -0.33838
9.47 -0.381254
9.48 -0.419364
9.49 -0.45063
9.5 -0.475141
9.51 -0.49206
9.52 -0.501493
9.53 -0.504338
9.54 -0.500674
9.55 -0.492506
9.56 -0.480704
9.57 -0.467122
9.58 -0.453234
9.59 -0.44074
9.6 -0.430763
9.61 -0.42503
9.62 -0.423911
9.63 -0.428303
9.64 -0.438451
9.65 -0.453914
9.66 -0.474964
9.67 -0.5002
9.68 -0.52927
9.69 -0.560891
9.7 -0.594118
9.71 -0.627946
9.72 -0.6615
9.73 -0.693918
9.74 -0.724799
9.75 -0.753704
9.76 -0.780473
9.77 -0.805236
9.78 -0.827815
9.79 -0.8486
9.8 -0.867372
9.81 -0.884077
9.82 -0.898289
9.83 -0.908928
9.84 -0.915254
9.85 -0.914651
9.86 -0.905779
9.87 -0.885478
9.88 -0.850499
9.89 -0.798817
9.9 -0.724243
9.91 -0.626734
9.92 -0.50023
9.93 -0.343893
9.94 -0.155842
9.95 0.067208
9.96 0.321451
9.97 0.610684
9.98 0.928125
9.99 1.27225
10 1.63765
10.01 2.01747
10.02 2.40556
10.03 2.7932
10.04 3.17162
10.05 3.53229
10.06 3.86714
10.07 4.16524
10.08 4.42378
10.09 4.62915
10.1 4.78276
10.11 4.87735
10.12 4.91083
10.13 4.88683
10.14 4.79907
10.15 4.65937
10.16 4.46606
10.17 4.229
10.18 3.95481
10.19 3.64998
10.2 3.32559
10.21 2.98809
10.22 2.64759
10.23 2.31155
10.24 1.98776
10.25 1.68102
10.26 1.39946
10.27 1.14316
10.28 0.9177
10.29 0.722177
10.3 0.55641
10.31 0.420845
10.32 0.310008
10.33 0.224402
10.34 0.15718
10.35 0.105762
10.36 0.065628
10.37 0.0324055
10.38 0.00274863
10.39 -0.0270039
10.4 -0.0596842
10.41 -0.0973214
10.42 -0.141257
10.43 -0.192773
10.44 -0.251144
10.45 -0.316973
10.46 -0.388385
10.47 -0.464487
10.48 -0.543532
10.49 -0.623741
10.5 -0.703195
10.51 -0.780304
10.52 -0.853098
10.53 -0.920339
10.54 -0.980911
10.55 -1.03332
10.56 -1.07789
10.57 -1.11294
10.58 -1.13952
10.59 -1.15715
10.6 -1.16616
10.61 -1.16753
10.62 -1.16084
10.63 -1.14783
10.64 -1.12845
10.65 -1.10387
10.66 -1.07478
10.67 -1.04171
10.68 -1.00578
10.69 -0.967339
10.7 -0.927407
10.71 -0.886568
10.72 -0.84559
10.73 -0.805113
10.74 -0.766002
10.75 -0.728722
10.76 -0.694182
10.77 -0.662874
10.78 -0.635346
10.79 -0.612453
10.8 -0.5941
10.81 -0.581428
10.82 -0.57401
10.83 -0.572361
10.84 -0.576523
10.85 -0.586034
10.86 -0.601402
10.87 -0.621494
10.88 -0.64644
10.89 -0.67536
10.9 -0.707664
10.91 -0.742798
10.92 -0.779763
10.93 -0.817987
10.94 -0.856525
10.95 -0.894651
10.96 -0.931559
10.97 -0.96671
10.98 -0.999148
10.99 -1.02875
11 -1.05472
11.01 -1.07699
11.02 -1.09539
11.03 -1.10962
11.04 -1.12025
11.05 -1.12698
11.06 -1.13066
11.07 -1.13159
11.08 -1.13042
11.09 -1.12788
11.1 -1.12463
11.11 -1.12143
11.12 -1.11897
11.13 -1.1178
11.14 -1.11828
11.15 -1.12075
11.16 -1.12495
11.17 -1.13076
11.18 -1.13731
11.19 -1.14365
11.2 -1.14831
11.21 -1.14989
11.22 -1.1457
11.23 -1.13442
11.24 -1.11278
11.25 -1.0789
11.26 -1.03061
11.27 -0.964493
11.28 -0.880816
11.29 -0.775168
11.3 -0.649298
11.31 -0.501566
11.32 -0.332406
11.33 -0.144332
11.34 0.0630698
11.35 0.284446
11.36 0.517937
11.37 0.758425
11.38 1.00154
11.39 1.24178
11.4 1.47462
11.41 1.69296
11.42 1.89336
11.43 2.06995
11.44 2.21801
11.45 2.33626
11.46 2.41727
11.47 2.46454
11.48 2.47314
11.49 2.44575
11.5 2.38371
11.51 2.28716
11.52 2.16287
11.53 2.01079
11.54 1.83882
11.55 1.65034
11.56 1.45088
11.57 1.24579
11.58 1.03989
11.59 0.837676
11.6 0.643695
11.61 0.461004
11.62 0.292024
11.63 0.139821
11.64 0.0034832
11.65 -0.114147
11.66 -0.215766
11.67 -0.301336
11.68 -0.372532
11.69 -0.432107
11.7 -0.480931
11.71 -0.522732
11.72 -0.558976
11.73 -0.592224
11.74 -0.624198
11.75 -0.656464
11.76 -0.689945
11.77 -0.725469
11.78 -0.762869
11.79 -0.801888
11.8 -0.841624
11.81 -0.88094
11.82 -0.918027
11.83 -0.951514
11.84 -0.979036
11.85 -0.998933
11.86 -1.00951
11.87 -1.00819
11.88 -0.994951
11.89 -0.966624
11.9 -0.924208
11.91 -0.8664
11.92 -0.793188
11.93 -0.706078
11.94 -0.604129
11.95 -0.490735
11.96 -0.366289
11.97 -0.233675
11.98 -0.0951568
11.99 0.0467379
12 0.189082
12.01 0.328784
12.02 0.463279
12.03 0.589572
12.04 0.704806
12.05 0.807644
12.06 0.89397
12.07 0.964536
12.08 1.0162
12.09 1.04933
12.1 1.06382
12.11 1.05863
12.12 1.03669
12.13 0.996722
12.14 0.942547
12.15 0.875173
12.16 0.797029
12.17 0.711086
12.18 0.619147
12.19 0.524503
12.2 0.429309
12.21 0.335958
12.22 0.246252
12.23 0.162261
12.24 0.0844361
12.25 0.0145946
12.26 -0.0478987
12.27 -0.102688
12.28 -0.150299
12.29 -0.192007
12.3 -0.228243
12.31 -0.261037
12.32 -0.29139
12.33 -0.320902
12.34 -0.350753
12.35 -0.382168
12.36 -0.415689
12.37 -0.452138
12.38 -0.49122
12.39 -0.532767
12.4 -0.575976
12.41 -0.619731
