# xPDFsuite Configuration #
[PDF]
wavelength = 0.1432
dataformat = twotheta
inputfile = 1_1Pd_CeO2_cycle-00056.chi
backgroundfile = background-00000.chi
mode = xray
bgscale = 1.007
composition = CeO2
outputtype = gr
qmaxinst = 28.8974762299
qmin = 0.5
qmax = 27.9
rmax = 50.0
rmin = 0.0
rstep = 0.01
rpoly = 1.8657

[Misc]
inputdir = G:/SankarDec16/1Pd/Chi
savedir = D:/DATA/APS_CeO2/1Pd
backgroundfilefull = G:/SankarDec16/Background/background-00000.chi

#### start data
#S 1
#L r($\AA$)  G($\AA^{-2}$)
0 0
0.01 -0.00573203
0.02 -0.0110314
0.03 -0.0154526
0.04 -0.0186604
0.05 -0.0204683
0.06 -0.0205768
0.07 -0.0191862
0.08 -0.0162012
0.09 -0.0120037
0.1 -0.00685851
0.11 -0.00117053
0.12 0.00461975
0.13 0.0100172
0.14 0.0146728
0.15 0.0181581
0.16 0.0202237
0.17 0.0207706
0.18 0.0195966
0.19 0.0169973
0.2 0.0129868
0.21 0.00801107
0.22 0.00240028
0.23 -0.00339089
0.24 -0.00894855
0.25 -0.0137395
0.26 -0.0175152
0.27 -0.0198857
0.28 -0.0206994
0.29 -0.0199503
0.3 -0.0175432
0.31 -0.0138546
0.32 -0.00900771
0.33 -0.00349089
0.34 0.00231679
0.35 0.00793267
0.36 0.01299
0.37 0.0169438
0.38 0.0196583
0.39 0.0208014
0.4 0.0203268
0.41 0.018322
0.42 0.0148041
0.43 0.0102121
0.44 0.00477238
0.45 -0.00100805
0.46 -0.00671992
0.47 -0.011876
0.48 -0.0161752
0.49 -0.0190873
0.5 -0.0205965
0.51 -0.020445
0.52 -0.0186947
0.53 -0.0155225
0.54 -0.0110574
0.55 -0.0057796
0.56 -7.60201e-06
0.57 0.00575752
0.58 0.0110966
0.59 0.0155416
0.6 0.0188723
0.61 0.0205997
0.62 0.0208288
0.63 0.0193894
0.64 0.016449
0.65 0.0122652
0.66 0.00707308
0.67 0.00137052
0.68 -0.00444743
0.69 -0.00991016
0.7 -0.0146095
0.71 -0.0181197
0.72 -0.0203122
0.73 -0.0207637
0.74 -0.0196947
0.75 -0.0170305
0.76 -0.0130355
0.77 -0.00803485
0.78 -0.00235664
0.79 0.00350927
0.8 0.00911341
0.81 0.0140402
0.82 0.0179153
0.83 0.020379
0.84 0.0214019
0.85 0.0206518
0.86 0.0184525
0.87 0.0148311
0.88 0.0101346
0.89 0.00473704
0.9 -0.00095856
0.91 -0.0065017
0.92 -0.0114179
0.93 -0.0153769
0.94 -0.0180691
0.95 -0.0192346
0.96 -0.0189557
0.97 -0.0170369
0.98 -0.0138965
0.99 -0.00968973
1 -0.00484681
1.01 0.000216742
1.02 0.00500973
1.03 0.00915417
1.04 0.0121432
1.05 0.0137647
1.06 0.0137886
1.07 0.012077
1.08 0.00885681
1.09 0.00409321
1.1 -0.00166151
1.11 -0.00808512
1.12 -0.0146175
1.13 -0.0207588
1.14 -0.0258505
1.15 -0.0295546
1.16 -0.0312245
1.17 -0.0307217
1.18 -0.0278124
1.19 -0.0223789
1.2 -0.0147852
1.21 -0.00497902
1.22 0.00629182
1.23 0.0186464
1.24 0.0313878
1.25 0.0438935
1.26 0.0553762
1.27 0.0653701
1.28 0.0730685
1.29 0.0782084
1.3 0.0804051
1.31 0.0793499
1.32 0.075339
1.33 0.0679973
1.34 0.0580842
1.35 0.045723
1.36 0.0315068
1.37 0.0160129
1.38 -0.000222957
1.39 -0.0165456
1.4 -0.0323564
1.41 -0.0471578
1.42 -0.0604869
1.43 -0.0718692
1.44 -0.0812379
1.45 -0.0880093
1.46 -0.0924579
1.47 -0.0943168
1.48 -0.0936976
1.49 -0.0907793
1.5 -0.085471
1.51 -0.07824
1.52 -0.0690323
1.53 -0.058258
1.54 -0.0461031
1.55 -0.0328111
1.56 -0.0187525
1.57 -0.00415568
1.58 0.010561
1.59 0.025044
1.6 0.0388722
1.61 0.0516885
1.62 0.0628953
1.63 0.0722995
1.64 0.0792234
1.65 0.0835219
1.66 0.0848477
1.67 0.0828686
1.68 0.0778348
1.69 0.0692597
1.7 0.0578471
1.71 0.0436326
1.72 0.0271892
1.73 0.00913433
1.74 -0.00993561
1.75 -0.0291941
1.76 -0.0478532
1.77 -0.0651944
1.78 -0.0805358
1.79 -0.093162
1.8 -0.102957
1.81 -0.109136
1.82 -0.112178
1.83 -0.111925
1.84 -0.108845
1.85 -0.103537
1.86 -0.0965311
1.87 -0.0887837
1.88 -0.0810801
1.89 -0.0742742
1.9 -0.0691122
1.91 -0.0663696
1.92 -0.0662276
1.93 -0.0694383
1.94 -0.0755267
1.95 -0.0845529
1.96 -0.0959361
1.97 -0.108962
1.98 -0.122835
1.99 -0.136526
2 -0.148901
2.01 -0.159006
2.02 -0.165865
2.03 -0.168424
2.04 -0.166533
2.05 -0.158926
2.06 -0.146275
2.07 -0.128165
2.08 -0.105095
2.09 -0.0777555
2.1 -0.0464803
2.11 -0.0125425
2.12 0.023511
2.13 0.0606216
2.14 0.0980999
2.15 0.135267
2.16 0.171753
2.17 0.207156
2.18 0.241598
2.19 0.275139
2.2 0.308138
2.21 0.340995
2.22 0.374217
2.23 0.408156
2.24 0.443251
2.25 0.479545
2.26 0.516984
2.27 0.5552
2.28 0.593519
2.29 0.630845
2.3 0.666094
2.31 0.697627
2.32 0.723818
2.33 0.743384
2.34 0.753787
2.35 0.754877
2.36 0.744175
2.37 0.721951
2.38 0.687646
2.39 0.641044
2.4 0.584082
2.41 0.516478
2.42 0.441588
2.43 0.360898
2.44 0.277296
2.45 0.193384
2.46 0.112263
2.47 0.0360478
2.48 -0.0320921
2.49 -0.0908544
2.5 -0.138662
2.51 -0.174169
2.52 -0.198465
2.53 -0.210177
2.54 -0.212257
2.55 -0.205421
2.56 -0.19217
2.57 -0.174969
2.58 -0.156283
2.59 -0.138676
2.6 -0.124759
2.61 -0.116257
2.62 -0.114728
2.63 -0.121505
2.64 -0.136048
2.65 -0.159352
2.66 -0.189239
2.67 -0.224934
2.68 -0.264303
2.69 -0.305255
2.7 -0.34542
2.71 -0.382841
2.72 -0.415051
2.73 -0.440832
2.74 -0.458951
2.75 -0.468443
2.76 -0.470189
2.77 -0.463553
2.78 -0.450914
2.79 -0.433301
2.8 -0.412965
2.81 -0.392
2.82 -0.372844
2.83 -0.357208
2.84 -0.347446
2.85 -0.344439
2.86 -0.349115
2.87 -0.362036
2.88 -0.382014
2.89 -0.409137
2.9 -0.440872
2.91 -0.475771
2.92 -0.511402
2.93 -0.54564
2.94 -0.575793
2.95 -0.600519
2.96 -0.617389
2.97 -0.625968
2.98 -0.625611
2.99 -0.616132
3 -0.599178
3.01 -0.575058
3.02 -0.546681
3.03 -0.515845
3.04 -0.485224
3.05 -0.457035
3.06 -0.434139
3.07 -0.417658
3.08 -0.40998
3.09 -0.411199
3.1 -0.421673
3.11 -0.441211
3.12 -0.46785
3.13 -0.500835
3.14 -0.53711
3.15 -0.574613
3.16 -0.610632
3.17 -0.643068
3.18 -0.669172
3.19 -0.688286
3.2 -0.698453
3.21 -0.700191
3.22 -0.693774
3.23 -0.6802
3.24 -0.661848
3.25 -0.640584
3.26 -0.619477
3.27 -0.601278
3.28 -0.588808
3.29 -0.583965
3.3 -0.589697
3.31 -0.605685
3.32 -0.633635
3.33 -0.671915
3.34 -0.71938
3.35 -0.773914
3.36 -0.832184
3.37 -0.890967
3.38 -0.946623
3.39 -0.995384
3.4 -1.03394
3.41 -1.06034
3.42 -1.07113
3.43 -1.06758
3.44 -1.04803
3.45 -1.01535
3.46 -0.971571
3.47 -0.920027
3.48 -0.865189
3.49 -0.811645
3.5 -0.763719
3.51 -0.726063
3.52 -0.702212
3.53 -0.693767
3.54 -0.703687
3.55 -0.729027
3.56 -0.769398
3.57 -0.819219
3.58 -0.873186
3.59 -0.923314
3.6 -0.962364
3.61 -0.977847
3.62 -0.963698
3.63 -0.908146
3.64 -0.803159
3.65 -0.644702
3.66 -0.421027
3.67 -0.138281
3.68 0.211299
3.69 0.618789
3.7 1.07966
3.71 1.5863
3.72 2.12364
3.73 2.68123
3.74 3.2409
3.75 3.78676
3.76 4.30112
3.77 4.77057
3.78 5.17271
3.79 5.50382
3.8 5.74294
3.81 5.88966
3.82 5.93778
3.83 5.88172
3.84 5.73436
3.85 5.48669
3.86 5.16183
3.87 4.76392
3.88 4.30919
3.89 3.8139
3.9 3.29132
3.91 2.75989
3.92 2.23437
3.93 1.72864
3.94 1.25448
3.95 0.824287
3.96 0.440231
3.97 0.115644
3.98 -0.155825
3.99 -0.369697
4 -0.530057
4.01 -0.643531
4.02 -0.71159
4.03 -0.746888
4.04 -0.753066
4.05 -0.740591
4.06 -0.716043
4.07 -0.686322
4.08 -0.657077
4.09 -0.633492
4.1 -0.617863
4.11 -0.612636
4.12 -0.618126
4.13 -0.633244
4.14 -0.657289
4.15 -0.6869
4.16 -0.719906
4.17 -0.752945
4.18 -0.783267
4.19 -0.807787
4.2 -0.82509
4.21 -0.832024
4.22 -0.828996
4.23 -0.814669
4.24 -0.789426
4.25 -0.754362
4.26 -0.709513
4.27 -0.657397
4.28 -0.59855
4.29 -0.535031
4.3 -0.468008
4.31 -0.3986
4.32 -0.32787
4.33 -0.256325
4.34 -0.18446
4.35 -0.112414
4.36 -0.0402257
4.37 0.0321235
4.38 0.104649
4.39 0.177213
4.4 0.249483
4.41 0.320888
4.42 0.390602
4.43 0.457269
4.44 0.519938
4.45 0.576091
4.46 0.624917
4.47 0.664038
4.48 0.691853
4.49 0.707581
4.5 0.708513
4.51 0.695927
4.52 0.667788
4.53 0.625712
4.54 0.570261
4.55 0.50237
4.56 0.425007
4.57 0.339131
4.58 0.248448
4.59 0.155133
4.6 0.0621191
4.61 -0.0282992
4.62 -0.113218
4.63 -0.191567
4.64 -0.260959
4.65 -0.32117
4.66 -0.371676
4.67 -0.412179
4.68 -0.444279
4.69 -0.467735
4.7 -0.485111
4.71 -0.497393
4.72 -0.506463
4.73 -0.513956
4.74 -0.521386
4.75 -0.52995
4.76 -0.540802
4.77 -0.554386
4.78 -0.57098
4.79 -0.590607
4.8 -0.612569
4.81 -0.636476
4.82 -0.66118
4.83 -0.685788
4.84 -0.709218
4.85 -0.730671
4.86 -0.748997
4.87 -0.764037
4.88 -0.774972
4.89 -0.782027
4.9 -0.785279
4.91 -0.784981
4.92 -0.782034
4.93 -0.776833
4.94 -0.770518
4.95 -0.763828
4.96 -0.757659
4.97 -0.752655
4.98 -0.749643
4.99 -0.74878
5 -0.750625
5.01 -0.755049
5.02 -0.762022
5.03 -0.771426
5.04 -0.782713
5.05 -0.795752
5.06 -0.809868
5.07 -0.824725
5.08 -0.839855
5.09 -0.854882
5.1 -0.869376
5.11 -0.883072
5.12 -0.895487
5.13 -0.90631
5.14 -0.915069
5.15 -0.921021
5.16 -0.923816
5.17 -0.921932
5.18 -0.914992
5.19 -0.901397
5.2 -0.879868
5.21 -0.849571
5.22 -0.807916
5.23 -0.755226
5.24 -0.68893
5.25 -0.609334
5.26 -0.515887
5.27 -0.408055
5.28 -0.287965
5.29 -0.155033
5.3 -0.0129709
5.31 0.13652
5.32 0.289939
5.33 0.443829
5.34 0.593738
5.35 0.736262
5.36 0.866037
5.37 0.979886
5.38 1.07409
5.39 1.14414
5.4 1.1903
5.41 1.20665
5.42 1.19653
5.43 1.15783
5.44 1.09228
5.45 1.00312
5.46 0.890801
5.47 0.761817
5.48 0.6183
5.49 0.466077
5.5 0.309357
5.51 0.152999
5.52 0.000837345
5.53 -0.142061
5.54 -0.273752
5.55 -0.390817
5.56 -0.491617
5.57 -0.576127
5.58 -0.642188
5.59 -0.692788
5.6 -0.727116
5.61 -0.748183
5.62 -0.757651
5.63 -0.757336
5.64 -0.750216
5.65 -0.737441
5.66 -0.721532
5.67 -0.703571
5.68 -0.684642
5.69 -0.665277
5.7 -0.64554
5.71 -0.62521
5.72 -0.603595
5.73 -0.579983
5.74 -0.553529
5.75 -0.52317
5.76 -0.48871
5.77 -0.448991
5.78 -0.404666
5.79 -0.355655
5.8 -0.302825
5.81 -0.247394
5.82 -0.190738
5.83 -0.134687
5.84 -0.0813467
5.85 -0.0325869
5.86 0.00971076
5.87 0.0432627
5.88 0.0676753
5.89 0.0802111
5.9 0.0819004
5.91 0.0717249
5.92 0.0503072
5.93 0.0190311
5.94 -0.0218287
5.95 -0.0694448
5.96 -0.122765
5.97 -0.1793
5.98 -0.237275
5.99 -0.29475
6 -0.35037
6.01 -0.402434
6.02 -0.450599
6.03 -0.494137
6.04 -0.533119
6.05 -0.568127
6.06 -0.599465
6.07 -0.628499
6.08 -0.656021
6.09 -0.683258
6.1 -0.711111
6.11 -0.740478
6.12 -0.771652
6.13 -0.805129
6.14 -0.840404
6.15 -0.877096
6.16 -0.914263
6.17 -0.950882
6.18 -0.985453
6.19 -1.01702
6.2 -1.0439
6.21 -1.06537
6.22 -1.08067
6.23 -1.08903
6.24 -1.09123
6.25 -1.08679
6.26 -1.07751
6.27 -1.06422
6.28 -1.04861
6.29 -1.03229
6.3 -1.01699
6.31 -1.00387
6.32 -0.994261
6.33 -0.988314
6.34 -0.985825
6.35 -0.985768
6.36 -0.986139
6.37 -0.983834
6.38 -0.975595
6.39 -0.956718
6.4 -0.922131
6.41 -0.868048
6.42 -0.7862
6.43 -0.675732
6.44 -0.528509
6.45 -0.343921
6.46 -0.119539
6.47 0.147471
6.48 0.451713
6.49 0.79632
6.5 1.17133
6.51 1.57322
6.52 1.99319
6.53 2.42199
6.54 2.84911
6.55 3.2645
6.56 3.65507
6.57 4.01137
6.58 4.32339
6.59 4.57855
6.6 4.77592
6.61 4.8992
6.62 4.95456
6.63 4.93484
6.64 4.84175
6.65 4.68194
6.66 4.45282
6.67 4.17034
6.68 3.83648
6.69 3.46538
6.7 3.06657
6.71 2.65085
6.72 2.22995
6.73 1.81486
6.74 1.41437
6.75 1.03786
6.76 0.69256
6.77 0.381623
6.78 0.113514
6.79 -0.115728
6.8 -0.300792
6.81 -0.446332
6.82 -0.554285
6.83 -0.626611
6.84 -0.671027
6.85 -0.688309
6.86 -0.687048
6.87 -0.670437
6.88 -0.64357
6.89 -0.610648
6.9 -0.574756
6.91 -0.538795
6.92 -0.504718
6.93 -0.473615
6.94 -0.446031
6.95 -0.422206
6.96 -0.401434
6.97 -0.383586
6.98 -0.367634
6.99 -0.35317
7 -0.339739
7.01 -0.327148
7.02 -0.315681
7.03 -0.305638
7.04 -0.298
7.05 -0.29362
7.06 -0.293591
7.07 -0.299453
7.08 -0.311556
7.09 -0.331937
7.1 -0.360072
7.11 -0.396785
7.12 -0.441713
7.13 -0.493762
7.14 -0.552509
7.15 -0.615551
7.16 -0.681459
7.17 -0.747788
7.18 -0.812447
7.19 -0.872881
7.2 -0.927702
7.21 -0.974036
7.22 -1.01171
7.23 -1.03925
7.24 -1.05651
7.25 -1.06435
7.26 -1.06258
7.27 -1.0538
7.28 -1.03892
7.29 -1.02051
7.3 -1.00054
7.31 -0.981259
7.32 -0.964321
7.33 -0.951855
7.34 -0.94433
7.35 -0.942609
7.36 -0.946456
7.37 -0.954819
7.38 -0.966598
7.39 -0.979379
7.4 -0.990664
7.41 -0.997569
7.42 -0.997208
7.43 -0.985782
7.44 -0.961906
7.45 -0.920741
7.46 -0.862654
7.47 -0.785079
7.48 -0.687712
7.49 -0.572002
7.5 -0.436999
7.51 -0.287279
7.52 -0.123884
7.53 0.0485384
7.54 0.226334
7.55 0.404956
7.56 0.580238
7.57 0.746593
7.58 0.900943
7.59 1.03857
7.6 1.15602
7.61 1.25201
7.62 1.32151
7.63 1.367
7.64 1.385
7.65 1.37793
7.66 1.34661
7.67 1.29162
7.68 1.21758
7.69 1.12441
7.7 1.01764
7.71 0.899312
7.72 0.773069
7.73 0.64229
7.74 0.509945
7.75 0.379014
7.76 0.252433
7.77 0.13236
7.78 0.0207732
7.79 -0.0798971
7.8 -0.169545
7.81 -0.245123
7.82 -0.307699
7.83 -0.355786
7.84 -0.389325
7.85 -0.409259
7.86 -0.414295
7.87 -0.407128
7.88 -0.387228
7.89 -0.35687
7.9 -0.317442
7.91 -0.270477
7.92 -0.218667
7.93 -0.163761
7.94 -0.108569
7.95 -0.0554559
7.96 -0.0070575
7.97 0.0347833
7.98 0.0667674
7.99 0.0884836
8 0.0971101
8.01 0.0925575
8.02 0.0742869
8.03 0.0415968
8.04 -0.00336389
8.05 -0.0612622
8.06 -0.128701
8.07 -0.204367
8.08 -0.285549
8.09 -0.369551
8.1 -0.453673
8.11 -0.53543
8.12 -0.612076
8.13 -0.681884
8.14 -0.743368
8.15 -0.794926
8.16 -0.837259
8.17 -0.869065
8.18 -0.892475
8.19 -0.908046
8.2 -0.917601
8.21 -0.923175
8.22 -0.926471
8.23 -0.929558
8.24 -0.93404
8.25 -0.941016
8.26 -0.95104
8.27 -0.964178
8.28 -0.979324
8.29 -0.994992
8.3 -1.00875
8.31 -1.01751
8.32 -1.01748
8.33 -1.00568
8.34 -0.975972
8.35 -0.927056
8.36 -0.852791
8.37 -0.751866
8.38 -0.62209
8.39 -0.46046
8.4 -0.27044
8.41 -0.0488141
8.42 0.197718
8.43 0.467323
8.44 0.754352
8.45 1.05228
8.46 1.35466
8.47 1.65376
8.48 1.94114
8.49 2.20955
8.5 2.45199
8.51 2.65935
8.52 2.83017
8.53 2.9532
8.54 3.03132
8.55 3.05928
8.56 3.03707
8.57 2.96874
8.58 2.85118
8.59 2.69487
8.6 2.50011
8.61 2.27585
8.62 2.02809
8.63 1.76324
8.64 1.48958
8.65 1.21343
8.66 0.941574
8.67 0.679992
8.68 0.43405
8.69 0.20649
8.7 0.00323451
8.71 -0.177149
8.72 -0.330777
8.73 -0.459552
8.74 -0.564177
8.75 -0.645016
8.76 -0.706685
8.77 -0.749028
8.78 -0.777459
8.79 -0.793837
8.8 -0.801463
8.81 -0.803391
8.82 -0.80175
8.83 -0.799088
8.84 -0.797087
8.85 -0.797098
8.86 -0.79998
8.87 -0.806489
8.88 -0.816379
8.89 -0.830053
8.9 -0.846653
8.91 -0.865878
8.92 -0.887025
8.93 -0.909367
8.94 -0.932308
8.95 -0.955192
8.96 -0.977488
8.97 -0.998815
8.98 -1.0189
8.99 -1.03749
9 -1.05467
9.01 -1.07024
9.02 -1.08448
9.03 -1.09737
9.04 -1.10903
9.05 -1.11961
9.06 -1.12897
9.07 -1.13722
9.08 -1.14407
9.09 -1.14936
9.1 -1.15275
9.11 -1.15364
9.12 -1.15183
9.13 -1.14623
9.14 -1.13673
9.15 -1.12241
9.16 -1.10268
9.17 -1.07739
9.18 -1.04531
9.19 -1.00711
9.2 -0.961896
9.21 -0.910244
9.22 -0.85242
9.23 -0.788652
9.24 -0.720306
9.25 -0.647778
9.26 -0.572847
9.27 -0.49671
9.28 -0.421081
9.29 -0.34743
9.3 -0.277974
9.31 -0.213735
9.32 -0.156998
9.33 -0.108727
9.34 -0.0700523
9.35 -0.0425696
9.36 -0.0255518
9.37 -0.0208931
9.38 -0.0267999
9.39 -0.0434568
9.4 -0.0697412
9.41 -0.103859
9.42 -0.145027
9.43 -0.19053
9.44 -0.2389
9.45 -0.28785
9.46 -0.33557
9.47 -0.379964
9.48 -0.419968
9.49 -0.453455
9.5 -0.480348
9.51 -0.499679
9.52 -0.511387
9.53 -0.516235
9.54 -0.514095
9.55 -0.506918
9.56 -0.495401
9.57 -0.481382
9.58 -0.46631
9.59 -0.451865
9.6 -0.439312
9.61 -0.4304
9.62 -0.425719
9.63 -0.426305
9.64 -0.432613
9.65 -0.444385
9.66 -0.462139
9.67 -0.484596
9.68 -0.51163
9.69 -0.542043
9.7 -0.574969
9.71 -0.609505
9.72 -0.644657
9.73 -0.679644
9.74 -0.713841
9.75 -0.746728
9.76 -0.777954
9.77 -0.807444
9.78 -0.834819
9.79 -0.860257
9.8 -0.883315
9.81 -0.903773
9.82 -0.921055
9.83 -0.933901
9.84 -0.941589
9.85 -0.941318
9.86 -0.931877
9.87 -0.910081
9.88 -0.872771
9.89 -0.818073
9.9 -0.739864
9.91 -0.638336
9.92 -0.507554
9.93 -0.34688
9.94 -0.154587
9.95 0.0724248
9.96 0.330254
9.97 0.622503
9.98 0.942367
9.99 1.28822
10 1.65461
10.01 2.03473
10.02 2.42234
10.03 2.80888
10.04 3.18559
10.05 3.54405
10.06 3.87628
10.07 4.17145
10.08 4.42691
10.09 4.62914
10.1 4.7797
10.11 4.87143
10.12 4.90236
10.13 4.87618
10.14 4.78677
10.15 4.64593
10.16 4.45211
10.17 4.21515
10.18 3.94167
10.19 3.63818
10.2 3.31567
10.21 2.9806
10.22 2.64292
10.23 2.31003
10.24 1.98959
10.25 1.68629
10.26 1.4081
10.27 1.15497
10.28 0.93235
10.29 0.739206
10.3 0.575258
10.31 0.440812
10.32 0.330407
10.33 0.244389
10.34 0.176004
10.35 0.122641
10.36 0.0798407
10.37 0.0433528
10.38 0.00988073
10.39 -0.0240264
10.4 -0.0610782
10.41 -0.103108
10.42 -0.15129
10.43 -0.206697
10.44 -0.268494
10.45 -0.337039
10.46 -0.410422
10.47 -0.487612
10.48 -0.566801
10.49 -0.646258
10.5 -0.723971
10.51 -0.798553
10.52 -0.868042
10.53 -0.931399
10.54 -0.987664
10.55 -1.03553
10.56 -1.07551
10.57 -1.10615
10.58 -1.12869
10.59 -1.14282
10.6 -1.14904
10.61 -1.14838
10.62 -1.14062
10.63 -1.12741
10.64 -1.10877
10.65 -1.08578
10.66 -1.05903
10.67 -1.02896
10.68 -0.996462
10.69 -0.961758
10.7 -0.925649
10.71 -0.888538
10.72 -0.850994
10.73 -0.81353
10.74 -0.776798
10.75 -0.741256
10.76 -0.707669
10.77 -0.67656
10.78 -0.648499
10.79 -0.624366
10.8 -0.604234
10.81 -0.589305
10.82 -0.579366
10.83 -0.575072
10.84 -0.57665
10.85 -0.583778
10.86 -0.597156
10.87 -0.615707
10.88 -0.639702
10.89 -0.668267
10.9 -0.700811
10.91 -0.736773
10.92 -0.775013
10.93 -0.814899
10.94 -0.855292
10.95 -0.895319
10.96 -0.933987
10.97 -0.970613
10.98 -1.00403
10.99 -1.03405
11 -1.05973
11.01 -1.08099
11.02 -1.09767
11.03 -1.10949
11.04 -1.11718
11.05 -1.12053
11.06 -1.12066
11.07 -1.11805
11.08 -1.1136
11.09 -1.10828
11.1 -1.10305
11.11 -1.09876
11.12 -1.09637
11.13 -1.09646
11.14 -1.09945
11.15 -1.10572
11.16 -1.11476
11.17 -1.12645
11.18 -1.13953
11.19 -1.15285
11.2 -1.16454
11.21 -1.17291
11.22 -1.17479
11.23 -1.16866
11.24 -1.15081
11.25 -1.11918
11.26 -1.07144
11.27 -1.00394
11.28 -0.917172
11.29 -0.806545
11.3 -0.674228
11.31 -0.518748
11.32 -0.340911
11.33 -0.143662
11.34 0.0729861
11.35 0.303234
11.36 0.544728
11.37 0.791983
11.38 1.04032
11.39 1.28382
11.4 1.51804
11.41 1.73553
11.42 1.93314
11.43 2.10505
11.44 2.24683
11.45 2.3576
11.46 2.43025
11.47 2.46885
11.48 2.46891
11.49 2.43359
11.5 2.36463
11.51 2.26265
11.52 2.1345
11.53 1.98059
11.54 1.80864
11.55 1.6221
11.56 1.42634
11.57 1.22633
11.58 1.02673
11.59 0.831443
11.6 0.644643
11.61 0.468888
11.62 0.306192
11.63 0.159131
11.64 0.0266288
11.65 -0.0889343
11.66 -0.190164
11.67 -0.277139
11.68 -0.351423
11.69 -0.41546
11.7 -0.469962
11.71 -0.518118
11.72 -0.561033
11.73 -0.600774
11.74 -0.638648
11.75 -0.675726
11.76 -0.71274
11.77 -0.750038
11.78 -0.787518
11.79 -0.824785
11.8 -0.86103
11.81 -0.895422
11.82 -0.926295
11.83 -0.952837
11.84 -0.973051
11.85 -0.985805
11.86 -0.989846
11.87 -0.983131
11.88 -0.965876
11.89 -0.935439
11.9 -0.892782
11.91 -0.836783
11.92 -0.76737
11.93 -0.685741
11.94 -0.590857
11.95 -0.485504
11.96 -0.369718
11.97 -0.245807
11.98 -0.115551
11.99 0.019113
12 0.155549
12.01 0.291274
12.02 0.42375
12.03 0.550239
12.04 0.667894
12.05 0.77511
12.06 0.867769
12.07 0.946003
12.08 1.00638
12.09 1.04869
12.1 1.07232
12.11 1.07567
12.12 1.06128
12.13 1.02728
12.14 0.977368
12.15 0.91224
12.16 0.834235
12.17 0.746514
12.18 0.650795
12.19 0.550918
12.2 0.449235
12.21 0.348663
12.22 0.251438
12.23 0.160129
12.24 0.0755644
12.25 7.3551e-05
12.26 -0.0668051
12.27 -0.12444
12.28 -0.173247
12.29 -0.214633
12.3 -0.24895
12.31 -0.278668
12.32 -0.304954
12.33 -0.329839
12.34 -0.354863
12.35 -0.381665
12.36 -0.411089
12.37 -0.444371
12.38 -0.481335
12.39 -0.522011
12.4 -0.565645
