# xPDFsuite Configuration #
[PDF]
wavelength = 0.1432
dataformat = twotheta
inputfile = 1_1Pd_CeO2_cycle-00220.chi
backgroundfile = background-00000.chi
mode = xray
bgscale = 1.007
composition = CeO2
outputtype = gr
qmaxinst = 28.8974762299
qmin = 0.5
qmax = 27.9
rmax = 50.0
rmin = 0.0
rstep = 0.01
rpoly = 1.8657

[Misc]
inputdir = G:/SankarDec16/1Pd/Chi
savedir = D:/DATA/APS_CeO2/1Pd
backgroundfilefull = G:/SankarDec16/Background/background-00000.chi

#### start data
#S 1
#L r($\AA$)  G($\AA^{-2}$)
0 0
0.01 -0.00674294
0.02 -0.0129785
0.03 -0.0181842
0.04 -0.0219664
0.05 -0.0241058
0.06 -0.0242501
0.07 -0.0226333
0.08 -0.0191414
0.09 -0.0142215
0.1 -0.00818249
0.11 -0.00149783
0.12 0.00531547
0.13 0.011678
0.14 0.017178
0.15 0.021312
0.16 0.0237842
0.17 0.0244756
0.18 0.0231447
0.19 0.0201349
0.2 0.0154577
0.21 0.00963412
0.22 0.00304845
0.23 -0.00376787
0.24 -0.0103274
0.25 -0.0160059
0.26 -0.020506
0.27 -0.0233672
0.28 -0.0244051
0.29 -0.023607
0.3 -0.0208537
0.31 -0.0165822
0.32 -0.0109293
0.33 -0.00446587
0.34 0.00236624
0.35 0.00900187
0.36 0.0150062
0.37 0.0197391
0.38 0.0230317
0.39 0.0244881
0.4 0.0240444
0.41 0.0217951
0.42 0.0177492
0.43 0.0124176
0.44 0.0060559
0.45 -0.00074094
0.46 -0.00749441
0.47 -0.0136315
0.48 -0.0187907
0.49 -0.022346
0.5 -0.0242652
0.51 -0.024236
0.52 -0.0223185
0.53 -0.0187104
0.54 -0.0135495
0.55 -0.00739675
0.56 -0.000615525
0.57 0.00620285
0.58 0.0125656
0.59 0.0179182
0.6 0.0219901
0.61 0.0241986
0.62 0.0246507
0.63 0.0231326
0.64 0.0198265
0.65 0.0150246
0.66 0.00898795
0.67 0.00230173
0.68 -0.0045795
0.69 -0.0110953
0.7 -0.0167617
0.71 -0.0210685
0.72 -0.0238491
0.73 -0.0245915
0.74 -0.0235372
0.75 -0.0205814
0.76 -0.0160198
0.77 -0.0102253
0.78 -0.00357003
0.79 0.00336451
0.8 0.0100551
0.81 0.0159986
0.82 0.0207441
0.83 0.0238506
0.84 0.0252638
0.85 0.0245681
0.86 0.0221272
0.87 0.0179499
0.88 0.0124301
0.89 0.00600147
0.9 -0.000874719
0.91 -0.00765258
0.92 -0.013773
0.93 -0.0188209
0.94 -0.0224094
0.95 -0.0242001
0.96 -0.0242594
0.97 -0.0223104
0.98 -0.0188221
0.99 -0.0139351
1 -0.00813026
1.01 -0.00188387
1.02 0.00425924
1.03 0.0098294
1.04 0.0142486
1.05 0.0172292
1.06 0.0184788
1.07 0.0177992
1.08 0.0154055
1.09 0.0112079
1.1 0.00579888
1.11 -0.000504918
1.12 -0.00710488
1.13 -0.0134593
1.14 -0.0188781
1.15 -0.0229712
1.16 -0.0250658
1.17 -0.0249972
1.18 -0.0225246
1.19 -0.0175388
1.2 -0.0104235
1.21 -0.00117449
1.22 0.00942497
1.23 0.0209302
1.24 0.0325935
1.25 0.04376
1.26 0.0535793
1.27 0.0616174
1.28 0.0670425
1.29 0.0696656
1.3 0.0691645
1.31 0.0653366
1.32 0.0585985
1.33 0.0487507
1.34 0.0366737
1.35 0.0226794
1.36 0.00750219
1.37 -0.00819261
1.38 -0.023683
1.39 -0.0383876
1.4 -0.0515852
1.41 -0.0629234
1.42 -0.0720166
1.43 -0.078539
1.44 -0.0826691
1.45 -0.0840363
1.46 -0.0832027
1.47 -0.0801843
1.48 -0.0753683
1.49 -0.0691298
1.5 -0.0617025
1.51 -0.0535384
1.52 -0.044833
1.53 -0.0358711
1.54 -0.0268059
1.55 -0.0177601
1.56 -0.00879076
1.57 5.31051e-05
1.58 0.00877708
1.59 0.0173546
1.6 0.025752
1.61 0.033912
1.62 0.0416744
1.63 0.0489296
1.64 0.0553706
1.65 0.0607966
1.66 0.0649028
1.67 0.0673077
1.68 0.0679288
1.69 0.0661804
1.7 0.0622474
1.71 0.0558369
1.72 0.047053
1.73 0.0361246
1.74 0.0231247
1.75 0.00867476
1.76 -0.00692383
1.77 -0.0230084
1.78 -0.0390468
1.79 -0.0543968
1.8 -0.0686438
1.81 -0.0810591
1.82 -0.09156
1.83 -0.0997353
1.84 -0.105565
1.85 -0.109209
1.86 -0.110679
1.87 -0.110583
1.88 -0.109183
1.89 -0.107127
1.9 -0.104906
1.91 -0.103086
1.92 -0.10203
1.93 -0.102267
1.94 -0.103808
1.95 -0.106824
1.96 -0.11114
1.97 -0.116436
1.98 -0.122315
1.99 -0.128167
2 -0.133294
2.01 -0.137042
2.02 -0.138726
2.03 -0.137565
2.04 -0.133369
2.05 -0.125157
2.06 -0.113296
2.07 -0.0973799
2.08 -0.0776572
2.09 -0.0545477
2.1 -0.028168
2.11 0.000565887
2.12 0.0313625
2.13 0.0634329
2.14 0.0962985
2.15 0.129483
2.16 0.162652
2.17 0.195577
2.18 0.228252
2.19 0.26075
2.2 0.293303
2.21 0.326174
2.22 0.359757
2.23 0.39423
2.24 0.429918
2.25 0.466756
2.26 0.504623
2.27 0.543116
2.28 0.581588
2.29 0.618981
2.3 0.654307
2.31 0.686034
2.32 0.712663
2.33 0.73301
2.34 0.744689
2.35 0.747557
2.36 0.73924
2.37 0.719941
2.38 0.689053
2.39 0.646248
2.4 0.593275
2.41 0.529648
2.42 0.458492
2.43 0.381025
2.44 0.299882
2.45 0.217497
2.46 0.136657
2.47 0.0595189
2.48 -0.010974
2.49 -0.0733719
2.5 -0.126033
2.51 -0.167455
2.52 -0.198389
2.53 -0.217219
2.54 -0.226463
2.55 -0.226455
2.56 -0.219277
2.57 -0.207086
2.58 -0.191854
2.59 -0.1761
2.6 -0.162029
2.61 -0.151466
2.62 -0.145954
2.63 -0.146908
2.64 -0.154195
2.65 -0.168959
2.66 -0.189624
2.67 -0.215818
2.68 -0.245954
2.69 -0.278391
2.7 -0.311378
2.71 -0.343179
2.72 -0.371895
2.73 -0.396362
2.74 -0.415507
2.75 -0.42845
2.76 -0.435704
2.77 -0.436694
2.78 -0.433127
2.79 -0.42573
2.8 -0.416171
2.81 -0.406022
2.82 -0.397097
2.83 -0.390692
2.84 -0.388535
2.85 -0.391254
2.86 -0.399472
2.87 -0.413486
2.88 -0.432329
2.89 -0.455818
2.9 -0.482
2.91 -0.509568
2.92 -0.536579
2.93 -0.561402
2.94 -0.581843
2.95 -0.597088
2.96 -0.605264
2.97 -0.606329
2.98 -0.600013
2.99 -0.586502
3 -0.567395
3.01 -0.543384
3.02 -0.516983
3.03 -0.489992
3.04 -0.464749
3.05 -0.443082
3.06 -0.427515
3.07 -0.418653
3.08 -0.418448
3.09 -0.42657
3.1 -0.443003
3.11 -0.467164
3.12 -0.497014
3.13 -0.531388
3.14 -0.56745
3.15 -0.603034
3.16 -0.635621
3.17 -0.663377
3.18 -0.683736
3.19 -0.696488
3.2 -0.699964
3.21 -0.69508
3.22 -0.682434
3.23 -0.663379
3.24 -0.640447
3.25 -0.615876
3.26 -0.592674
3.27 -0.573751
3.28 -0.56187
3.29 -0.558788
3.3 -0.567417
3.31 -0.587109
3.32 -0.619442
3.33 -0.662474
3.34 -0.714842
3.35 -0.774176
3.36 -0.83697
3.37 -0.899751
3.38 -0.958825
3.39 -1.01028
3.4 -1.05078
3.41 -1.07839
3.42 -1.08963
3.43 -1.08592
3.44 -1.06563
3.45 -1.03174
3.46 -0.986424
3.47 -0.93308
3.48 -0.876297
3.49 -0.820729
3.5 -0.770773
3.51 -0.731117
3.52 -0.705325
3.53 -0.695004
3.54 -0.703117
3.55 -0.726703
3.56 -0.765369
3.57 -0.813525
3.58 -0.865866
3.59 -0.914424
3.6 -0.951973
3.61 -0.966075
3.62 -0.950693
3.63 -0.894121
3.64 -0.788384
3.65 -0.629481
3.66 -0.405754
3.67 -0.12333
3.68 0.225483
3.69 0.631802
3.7 1.09112
3.71 1.59584
3.72 2.13101
3.73 2.68623
3.74 3.24346
3.75 3.7869
3.76 4.29898
3.77 4.76637
3.78 5.1668
3.79 5.49656
3.8 5.73477
3.81 5.88102
3.82 5.92908
3.83 5.87335
3.84 5.7266
3.85 5.47977
3.86 5.15584
3.87 4.75886
3.88 4.30494
3.89 3.81027
3.9 3.28802
3.91 2.75663
3.92 2.23079
3.93 1.72446
3.94 1.24943
3.95 0.818216
3.96 0.433081
3.97 0.107493
3.98 -0.164784
3.99 -0.379131
4 -0.539524
4.01 -0.652537
4.02 -0.719527
4.03 -0.753225
4.04 -0.757241
4.05 -0.742176
4.06 -0.714724
4.07 -0.681952
4.08 -0.649694
4.09 -0.623375
4.1 -0.605452
4.11 -0.5986
4.12 -0.60329
4.13 -0.618504
4.14 -0.643716
4.15 -0.675425
4.16 -0.711516
4.17 -0.748403
4.18 -0.783172
4.19 -0.812487
4.2 -0.834641
4.21 -0.846139
4.22 -0.84712
4.23 -0.835912
4.24 -0.812639
4.25 -0.778274
4.26 -0.732562
4.27 -0.678192
4.28 -0.615572
4.29 -0.547042
4.3 -0.473972
4.31 -0.397785
4.32 -0.319963
4.33 -0.241433
4.34 -0.16311
4.35 -0.0855907
4.36 -0.00930902
4.37 0.0655303
4.38 0.138492
4.39 0.209592
4.4 0.278243
4.41 0.344176
4.42 0.406763
4.43 0.464966
4.44 0.51838
4.45 0.564948
4.46 0.604466
4.47 0.63514
4.48 0.655941
4.49 0.666462
4.5 0.664651
4.51 0.65172
4.52 0.626091
4.53 0.58912
4.54 0.541246
4.55 0.483147
4.56 0.417139
4.57 0.343779
4.58 0.265946
4.59 0.185147
4.6 0.103546
4.61 0.0228716
4.62 -0.0548601
4.63 -0.128702
4.64 -0.196983
4.65 -0.259379
4.66 -0.315408
4.67 -0.364708
4.68 -0.408197
4.69 -0.445455
4.7 -0.478033
4.71 -0.506283
4.72 -0.53118
4.73 -0.553602
4.74 -0.574044
4.75 -0.593281
4.76 -0.611541
4.77 -0.629095
4.78 -0.645938
4.79 -0.661876
4.8 -0.676776
4.81 -0.690099
4.82 -0.701736
4.83 -0.711259
4.84 -0.718495
4.85 -0.723494
4.86 -0.726087
4.87 -0.726826
4.88 -0.725888
4.89 -0.723965
4.9 -0.72163
4.91 -0.719614
4.92 -0.718486
4.93 -0.719086
4.94 -0.721657
4.95 -0.7267
4.96 -0.734325
4.97 -0.744355
4.98 -0.756784
4.99 -0.770881
5 -0.786256
5.01 -0.802096
5.02 -0.817732
5.03 -0.832375
5.04 -0.845569
5.05 -0.856515
5.06 -0.865212
5.07 -0.871347
5.08 -0.875052
5.09 -0.876679
5.1 -0.876433
5.11 -0.875019
5.12 -0.872804
5.13 -0.870296
5.14 -0.867755
5.15 -0.865241
5.16 -0.862543
5.17 -0.858984
5.18 -0.853755
5.19 -0.845457
5.2 -0.83243
5.21 -0.81325
5.22 -0.784935
5.23 -0.746817
5.24 -0.695645
5.25 -0.630818
5.26 -0.551018
5.27 -0.454831
5.28 -0.344021
5.29 -0.217047
5.3 -0.0777657
5.31 0.0725271
5.32 0.230205
5.33 0.391413
5.34 0.551588
5.35 0.7064
5.36 0.850037
5.37 0.97841
5.38 1.08707
5.39 1.17063
5.4 1.22881
5.41 1.25471
5.42 1.25152
5.43 1.21658
5.44 1.15147
5.45 1.05961
5.46 0.941286
5.47 0.803771
5.48 0.649384
5.49 0.484777
5.5 0.314786
5.51 0.145048
5.52 -0.0199279
5.53 -0.174193
5.54 -0.315396
5.55 -0.439471
5.56 -0.544436
5.57 -0.630231
5.58 -0.694315
5.59 -0.740246
5.6 -0.767172
5.61 -0.778787
5.62 -0.777246
5.63 -0.765006
5.64 -0.745762
5.65 -0.721421
5.66 -0.695087
5.67 -0.668514
5.68 -0.643284
5.69 -0.62013
5.7 -0.599652
5.71 -0.581259
5.72 -0.564477
5.73 -0.548061
5.74 -0.530802
5.75 -0.511125
5.76 -0.488108
5.77 -0.459948
5.78 -0.426593
5.79 -0.387269
5.8 -0.342223
5.81 -0.29233
5.82 -0.238283
5.83 -0.182115
5.84 -0.125541
5.85 -0.0708184
5.86 -0.0200761
5.87 0.0240259
5.88 0.0603541
5.89 0.0856449
5.9 0.100096
5.91 0.101978
5.92 0.0911631
5.93 0.0685383
5.94 0.0335398
5.95 -0.0109966
5.96 -0.0646144
5.97 -0.124605
5.98 -0.189107
5.99 -0.255989
6 -0.323164
6.01 -0.388605
6.02 -0.451014
6.03 -0.508989
6.04 -0.56175
6.05 -0.609226
6.06 -0.650778
6.07 -0.687528
6.08 -0.719496
6.09 -0.747893
6.1 -0.773509
6.11 -0.797195
6.12 -0.819881
6.13 -0.842122
6.14 -0.864394
6.15 -0.886864
6.16 -0.909446
6.17 -0.931859
6.18 -0.953524
6.19 -0.973967
6.2 -0.992348
6.21 -1.00819
6.22 -1.021
6.23 -1.03028
6.24 -1.03633
6.25 -1.03883
6.26 -1.0387
6.27 -1.03637
6.28 -1.03276
6.29 -1.02875
6.3 -1.02525
6.31 -1.02281
6.32 -1.02194
6.33 -1.02242
6.34 -1.02367
6.35 -1.02432
6.36 -1.02267
6.37 -1.01537
6.38 -0.999897
6.39 -0.971853
6.4 -0.926849
6.41 -0.861784
6.42 -0.769136
6.43 -0.648693
6.44 -0.493097
6.45 -0.302182
6.46 -0.0739285
6.47 0.194085
6.48 0.496696
6.49 0.836709
6.5 1.20484
6.51 1.59778
6.52 2.00735
6.53 2.42497
6.54 2.84081
6.55 3.24547
6.56 3.62661
6.57 3.97527
6.58 4.28189
6.59 4.5343
6.6 4.73142
6.61 4.85733
6.62 4.9176
6.63 4.90487
6.64 4.82034
6.65 4.66999
6.66 4.45066
6.67 4.1776
6.68 3.85213
6.69 3.48788
6.7 3.09396
6.71 2.68074
6.72 2.26009
6.73 1.84262
6.74 1.43771
6.75 1.05489
6.76 0.701943
6.77 0.382593
6.78 0.105936
6.79 -0.131366
6.8 -0.323308
6.81 -0.474075
6.82 -0.585191
6.83 -0.658187
6.84 -0.700937
6.85 -0.71388
6.86 -0.706187
6.87 -0.681246
6.88 -0.644724
6.89 -0.601445
6.9 -0.555169
6.91 -0.50945
6.92 -0.467003
6.93 -0.42942
6.94 -0.397705
6.95 -0.372588
6.96 -0.353203
6.97 -0.339839
6.98 -0.330846
6.99 -0.325654
7 -0.323214
7.01 -0.322662
7.02 -0.323603
7.03 -0.325582
7.04 -0.328777
7.05 -0.333441
7.06 -0.340127
7.07 -0.349785
7.08 -0.362851
7.09 -0.380823
7.1 -0.403757
7.11 -0.43255
7.12 -0.467382
7.13 -0.507829
7.14 -0.554074
7.15 -0.604551
7.16 -0.658609
7.17 -0.714494
7.18 -0.770716
7.19 -0.825393
7.2 -0.877163
7.21 -0.923787
7.22 -0.964629
7.23 -0.998246
7.24 -1.02405
7.25 -1.0423
7.26 -1.0523
7.27 -1.0558
7.28 -1.05302
7.29 -1.04577
7.3 -1.03541
7.31 -1.02346
7.32 -1.01145
7.33 -1.00079
7.34 -0.992287
7.35 -0.98665
7.36 -0.983953
7.37 -0.983654
7.38 -0.984988
7.39 -0.986369
7.4 -0.98587
7.41 -0.981343
7.42 -0.970512
7.43 -0.950277
7.44 -0.919502
7.45 -0.874051
7.46 -0.814141
7.47 -0.73744
7.48 -0.643491
7.49 -0.533366
7.5 -0.405961
7.51 -0.265127
7.52 -0.111508
7.53 0.0509084
7.54 0.218995
7.55 0.388809
7.56 0.5565
7.57 0.717088
7.58 0.867498
7.59 1.00328
7.6 1.12095
7.61 1.219
7.62 1.29238
7.63 1.34302
7.64 1.3672
7.65 1.36684
7.66 1.34236
7.67 1.29391
7.68 1.22579
7.69 1.1375
7.7 1.0345
7.71 0.918582
7.72 0.793386
7.73 0.662406
7.74 0.528597
7.75 0.39529
7.76 0.265554
7.77 0.14188
7.78 0.0264966
7.79 -0.0778882
7.8 -0.170971
7.81 -0.249453
7.82 -0.314346
7.83 -0.364053
7.84 -0.398518
7.85 -0.418771
7.86 -0.423554
7.87 -0.415769
7.88 -0.395003
7.89 -0.36372
7.9 -0.32345
7.91 -0.275879
7.92 -0.223757
7.93 -0.168942
7.94 -0.114191
7.95 -0.0618546
7.96 -0.0144653
7.97 0.0262619
7.98 0.0571899
7.99 0.0780579
8 0.0862409
8.01 0.0817746
8.02 0.0642337
8.03 0.0330386
8.04 -0.00972211
8.05 -0.0646345
8.06 -0.128493
8.07 -0.200076
8.08 -0.276881
8.09 -0.356429
8.1 -0.436289
8.11 -0.514191
8.12 -0.587684
8.13 -0.655215
8.14 -0.715459
8.15 -0.767004
8.16 -0.810465
8.17 -0.844708
8.18 -0.871605
8.19 -0.891645
8.2 -0.906416
8.21 -0.917679
8.22 -0.926871
8.23 -0.935746
8.24 -0.94559
8.25 -0.957246
8.26 -0.971042
8.27 -0.986784
8.28 -1.00338
8.29 -1.01911
8.3 -1.03172
8.31 -1.03814
8.32 -1.03474
8.33 -1.01879
8.34 -0.984325
8.35 -0.930392
8.36 -0.851102
8.37 -0.745425
8.38 -0.611399
8.39 -0.446283
8.4 -0.253599
8.41 -0.0303753
8.42 0.216789
8.43 0.48601
8.44 0.771732
8.45 1.06761
8.46 1.36727
8.47 1.66325
8.48 1.9473
8.49 2.21237
8.5 2.45164
8.51 2.65618
8.52 2.82459
8.53 2.9458
8.54 3.02261
8.55 3.0498
8.56 3.0273
8.57 2.95905
8.58 2.84184
8.59 2.686
8.6 2.4917
8.61 2.26777
8.62 2.02012
8.63 1.75507
8.64 1.48091
8.65 1.20392
8.66 0.931002
8.67 0.668202
8.68 0.421028
8.69 0.192357
8.7 -0.0116842
8.71 -0.192423
8.72 -0.345775
8.73 -0.473566
8.74 -0.576427
8.75 -0.654647
8.76 -0.712963
8.77 -0.751197
8.78 -0.775002
8.79 -0.786388
8.8 -0.788908
8.81 -0.785858
8.82 -0.779692
8.83 -0.773152
8.84 -0.768254
8.85 -0.766493
8.86 -0.768877
8.87 -0.776336
8.88 -0.788479
8.89 -0.805847
8.9 -0.827257
8.91 -0.852285
8.92 -0.879925
8.93 -0.909122
8.94 -0.938928
8.95 -0.968349
8.96 -0.996452
8.97 -1.02258
8.98 -1.04623
8.99 -1.06683
9 -1.08455
9.01 -1.09892
9.02 -1.11051
9.03 -1.11935
9.04 -1.12583
9.05 -1.13043
9.06 -1.13332
9.07 -1.13503
9.08 -1.13567
9.09 -1.13544
9.1 -1.13431
9.11 -1.13205
9.12 -1.12847
9.13 -1.12285
9.14 -1.11482
9.15 -1.10353
9.16 -1.08817
9.17 -1.06828
9.18 -1.04239
9.19 -1.01071
9.2 -0.972006
9.21 -0.926435
9.22 -0.873929
9.23 -0.814318
9.24 -0.748871
9.25 -0.677596
9.26 -0.602406
9.27 -0.524412
9.28 -0.445459
9.29 -0.367286
9.3 -0.292261
9.31 -0.221859
9.32 -0.158656
9.33 -0.104024
9.34 -0.0594195
9.35 -0.0268224
9.36 -0.00565424
9.37 0.00182062
9.38 -0.00254304
9.39 -0.0190443
9.4 -0.0464841
9.41 -0.0828574
9.42 -0.127285
9.43 -0.176661
9.44 -0.229289
9.45 -0.282529
9.46 -0.334292
9.47 -0.382168
9.48 -0.424954
9.49 -0.460234
9.5 -0.487974
9.51 -0.507134
9.52 -0.517733
9.53 -0.520721
9.54 -0.516095
9.55 -0.506121
9.56 -0.491728
9.57 -0.475037
9.58 -0.457728
9.59 -0.44174
9.6 -0.428405
9.61 -0.419694
9.62 -0.416086
9.63 -0.418622
9.64 -0.427611
9.65 -0.442575
9.66 -0.463826
9.67 -0.489783
9.68 -0.520036
9.69 -0.553123
9.7 -0.587961
9.71 -0.623396
9.72 -0.658441
9.73 -0.692111
9.74 -0.723982
9.75 -0.753584
9.76 -0.780789
9.77 -0.805804
9.78 -0.828536
9.79 -0.849498
9.8 -0.8686
9.81 -0.885895
9.82 -0.901043
9.83 -0.913046
9.84 -0.921127
9.85 -0.922689
9.86 -0.916243
9.87 -0.898506
9.88 -0.866027
9.89 -0.816586
9.9 -0.74369
9.91 -0.647154
9.92 -0.520614
9.93 -0.363128
9.94 -0.172715
9.95 0.0540216
9.96 0.313082
9.97 0.608283
9.98 0.932466
9.99 1.28387
10 1.65667
10.01 2.04363
10.02 2.43808
10.03 2.83099
10.04 3.21308
10.05 3.57559
10.06 3.91022
10.07 4.20579
10.08 4.45976
10.09 4.65834
10.1 4.80349
10.11 4.88822
10.12 4.91094
10.13 4.87586
10.14 4.77733
10.15 4.6277
10.16 4.42598
10.17 4.18246
10.18 3.9041
10.19 3.59784
10.2 3.27458
10.21 2.94111
10.22 2.60698
10.23 2.27944
10.24 1.96579
10.25 1.67017
10.26 1.40012
10.27 1.15499
10.28 0.939682
10.29 0.752712
10.3 0.593439
10.31 0.461761
10.32 0.352295
10.33 0.265091
10.34 0.193802
10.35 0.135959
10.36 0.0875247
10.37 0.0447503
10.38 0.004849
10.39 -0.0350945
10.4 -0.077214
10.41 -0.122933
10.42 -0.173097
10.43 -0.228407
10.44 -0.288179
10.45 -0.352537
10.46 -0.420059
10.47 -0.48994
10.48 -0.560888
10.49 -0.631734
10.5 -0.701104
10.51 -0.768157
10.52 -0.83162
10.53 -0.890873
10.54 -0.945307
10.55 -0.994027
10.56 -1.03732
10.57 -1.07402
10.58 -1.10472
10.59 -1.12889
10.6 -1.1464
10.61 -1.15762
10.62 -1.16161
10.63 -1.15935
10.64 -1.15008
10.65 -1.13435
10.66 -1.11232
10.67 -1.0839
10.68 -1.05021
10.69 -1.01106
10.7 -0.967901
10.71 -0.921333
10.72 -0.872531
10.73 -0.822721
10.74 -0.77324
10.75 -0.725319
10.76 -0.68051
10.77 -0.639944
10.78 -0.604688
10.79 -0.576206
10.8 -0.554451
10.81 -0.541094
10.82 -0.53537
10.83 -0.537802
10.84 -0.548099
10.85 -0.565274
10.86 -0.589455
10.87 -0.618798
10.88 -0.652878
10.89 -0.690226
10.9 -0.72978
10.91 -0.770439
10.92 -0.811123
10.93 -0.850789
10.94 -0.888745
10.95 -0.924241
10.96 -0.956727
10.97 -0.986093
10.98 -1.01167
10.99 -1.03394
11 -1.05255
11.01 -1.06788
11.02 -1.08018
11.03 -1.08955
11.04 -1.09664
11.05 -1.10151
11.06 -1.10481
11.07 -1.10684
11.08 -1.10805
11.09 -1.10887
11.1 -1.10969
11.11 -1.11086
11.12 -1.11277
11.13 -1.11561
11.14 -1.11953
11.15 -1.12461
11.16 -1.13056
11.17 -1.13711
11.18 -1.14357
11.19 -1.14906
11.2 -1.15232
11.21 -1.15218
11.22 -1.1462
11.23 -1.13331
11.24 -1.11048
11.25 -1.07597
11.26 -1.02773
11.27 -0.962411
11.28 -0.880174
11.29 -0.776591
11.3 -0.653166
11.31 -0.508079
11.32 -0.341501
11.33 -0.15573
11.34 0.0499533
11.35 0.270299
11.36 0.503672
11.37 0.744972
11.38 0.989822
11.39 1.23268
11.4 1.46878
11.41 1.69088
11.42 1.89521
11.43 2.07563
11.44 2.2271
11.45 2.34811
11.46 2.4309
11.47 2.47894
11.48 2.48708
11.49 2.4581
11.5 2.39343
11.51 2.29332
11.52 2.16491
11.53 2.00837
11.54 1.83199
11.55 1.63951
11.56 1.43681
11.57 1.22942
11.58 1.02258
11.59 0.820691
11.6 0.628484
11.61 0.448839
11.62 0.284003
11.63 0.136814
11.64 0.00594878
11.65 -0.106113
11.66 -0.202492
11.67 -0.283553
11.68 -0.351359
11.69 -0.40884
11.7 -0.457269
11.71 -0.50021
11.72 -0.539272
11.73 -0.576744
11.74 -0.614088
11.75 -0.652545
11.76 -0.692553
11.77 -0.734474
11.78 -0.777685
11.79 -0.821469
11.8 -0.86452
11.81 -0.905555
11.82 -0.942355
11.83 -0.973811
11.84 -0.997465
11.85 -1.01203
11.86 -1.01617
11.87 -1.00773
11.88 -0.987248
11.89 -0.952142
11.9 -0.903887
11.91 -0.841696
11.92 -0.76598
11.93 -0.678345
11.94 -0.578266
11.95 -0.468753
11.96 -0.350231
11.97 -0.225085
11.98 -0.0951199
11.99 0.0377125
12 0.171128
12.01 0.302779
12.02 0.43062
12.03 0.552267
12.04 0.665326
12.05 0.768531
12.06 0.858237
12.07 0.934672
12.08 0.994703
12.09 1.03806
12.1 1.06406
12.11 1.07094
12.12 1.06086
12.13 1.03162
12.14 0.986425
12.15 0.925526
12.16 0.850783
12.17 0.765075
12.18 0.669596
12.19 0.568255
12.2 0.463142
12.21 0.357384
12.22 0.253439
12.23 0.15417
12.24 0.060976
12.25 -0.023306
12.26 -0.0985135
12.27 -0.163403
12.28 -0.217767
12.29 -0.262688
12.3 -0.297792
12.31 -0.325713
12.32 -0.347238
12.33 -0.36469
12.34 -0.37989
12.35 -0.394805
12.36 -0.411053
12.37 -0.430433
12.38 -0.453624
12.39 -0.481412
12.4 -0.513867
12.41 -0.550213
