# xPDFsuite Configuration #
[PDF]
wavelength = 0.1432
dataformat = twotheta
inputfile = 1_1Pd_CeO2_cycle-00072.chi
backgroundfile = background-00000.chi
mode = xray
bgscale = 1.007
composition = CeO2
outputtype = gr
qmaxinst = 28.8974762299
qmin = 0.5
qmax = 27.9
rmax = 50.0
rmin = 0.0
rstep = 0.01
rpoly = 1.8657

[Misc]
inputdir = G:/SankarDec16/1Pd/Chi
savedir = D:/DATA/APS_CeO2/1Pd
backgroundfilefull = G:/SankarDec16/Background/background-00000.chi

#### start data
#S 1
#L r($\AA$)  G($\AA^{-2}$)
0 0
0.01 -0.00661493
0.02 -0.0127328
0.03 -0.0178416
0.04 -0.0215556
0.05 -0.0236598
0.06 -0.0238085
0.07 -0.0222304
0.08 -0.0188133
0.09 -0.0139947
0.1 -0.00807653
0.11 -0.00152211
0.12 0.00516189
0.13 0.0114085
0.14 0.0168132
0.15 0.0208826
0.16 0.0233255
0.17 0.0240244
0.18 0.0227407
0.19 0.0198097
0.2 0.0152406
0.21 0.00954282
0.22 0.00309159
0.23 -0.00359339
0.24 -0.010034
0.25 -0.0156194
0.26 -0.0200561
0.27 -0.0228919
0.28 -0.0239438
0.29 -0.023197
0.3 -0.0205317
0.31 -0.0163741
0.32 -0.0108547
0.33 -0.00453186
0.34 0.00216331
0.35 0.00867805
0.36 0.0145849
0.37 0.0192573
0.38 0.0225261
0.39 0.0240013
0.4 0.0236167
0.41 0.0214614
0.42 0.0175399
0.43 0.01235
0.44 0.00613811
0.45 -0.000514143
0.46 -0.00713946
0.47 -0.013177
0.48 -0.0182701
0.49 -0.0218051
0.5 -0.0237452
0.51 -0.0237811
0.52 -0.0219666
0.53 -0.018491
0.54 -0.0134835
0.55 -0.00749106
0.56 -0.000864536
0.57 0.00581712
0.58 0.0120723
0.59 0.0173574
0.6 0.0214034
0.61 0.0236379
0.62 0.0241587
0.63 0.0227519
0.64 0.0195892
0.65 0.0149518
0.66 0.00908834
0.67 0.00257016
0.68 -0.00416323
0.69 -0.0105619
0.7 -0.0161521
0.71 -0.0204322
0.72 -0.0232336
0.73 -0.0240512
0.74 -0.0231134
0.75 -0.020311
0.76 -0.0159261
0.77 -0.0103186
0.78 -0.00384493
0.79 0.00292611
0.8 0.00948757
0.81 0.015344
0.82 0.0200524
0.83 0.0231771
0.84 0.0246572
0.85 0.0240798
0.86 0.0217916
0.87 0.0177926
0.88 0.0124604
0.89 0.00621386
0.9 -0.000503781
0.91 -0.00715664
0.92 -0.0132022
0.93 -0.0182282
0.94 -0.0218522
0.95 -0.0237356
0.96 -0.0239333
0.97 -0.0221632
0.98 -0.0188735
0.99 -0.0141891
1 -0.00857031
1.01 -0.00247657
1.02 0.00357086
1.03 0.00910876
1.04 0.0135791
1.05 0.0166919
1.06 0.0181568
1.07 0.0177709
1.08 0.015731
1.09 0.0119373
1.1 0.00695321
1.11 0.00107306
1.12 -0.00513274
1.13 -0.0111454
1.14 -0.0163079
1.15 -0.0202397
1.16 -0.0222985
1.17 -0.02232
1.18 -0.0200718
1.19 -0.0154482
1.2 -0.00881247
1.21 -0.000165789
1.22 0.00974496
1.23 0.0204882
1.24 0.0313448
1.25 0.041686
1.26 0.0506893
1.27 0.0579434
1.28 0.0626465
1.29 0.0646256
1.3 0.0635781
1.31 0.0593218
1.32 0.0522722
1.33 0.042261
1.34 0.0301528
1.35 0.0162771
1.36 0.00136647
1.37 -0.0139189
1.38 -0.028843
1.39 -0.0428469
1.4 -0.0551959
1.41 -0.0655589
1.42 -0.0735564
1.43 -0.0788741
1.44 -0.0817181
1.45 -0.0817306
1.46 -0.0795121
1.47 -0.0751088
1.48 -0.0689487
1.49 -0.0614432
1.5 -0.0528842
1.51 -0.0437476
1.52 -0.0342966
1.53 -0.0248347
1.54 -0.0155525
1.55 -0.00660909
1.56 0.00195889
1.57 0.0100498
1.58 0.0177345
1.59 0.024984
1.6 0.0318159
1.61 0.0382292
1.62 0.0441145
1.63 0.0494427
1.64 0.0539766
1.65 0.0575879
1.66 0.0600384
1.67 0.0610191
1.68 0.0604687
1.69 0.0578864
1.7 0.0534265
1.71 0.0468297
1.72 0.0381763
1.73 0.0276573
1.74 0.0153292
1.75 0.00173234
1.76 -0.0128664
1.77 -0.0278773
1.78 -0.0428184
1.79 -0.0571003
1.8 -0.0703399
1.81 -0.0818489
1.82 -0.0915411
1.83 -0.0990119
1.84 -0.104221
1.85 -0.107302
1.86 -0.108233
1.87 -0.107585
1.88 -0.105578
1.89 -0.10284
1.9 -0.0998408
1.91 -0.0971425
1.92 -0.0951334
1.93 -0.0943724
1.94 -0.0949334
1.95 -0.097062
1.96 -0.100674
1.97 -0.105531
1.98 -0.111374
1.99 -0.117627
2 -0.123732
2.01 -0.129036
2.02 -0.132891
2.03 -0.134526
2.04 -0.133639
2.05 -0.129231
2.06 -0.121465
2.07 -0.109794
2.08 -0.0942519
2.09 -0.0750622
2.1 -0.0520587
2.11 -0.0260228
2.12 0.00305754
2.13 0.0344758
2.14 0.0678933
2.15 0.10295
2.16 0.139176
2.17 0.176472
2.18 0.214498
2.19 0.253223
2.2 0.292575
2.21 0.332515
2.22 0.373083
2.23 0.41414
2.24 0.455597
2.25 0.497136
2.26 0.538356
2.27 0.578575
2.28 0.617193
2.29 0.652834
2.3 0.684838
2.31 0.711662
2.32 0.732097
2.33 0.745289
2.34 0.74916
2.35 0.744032
2.36 0.727953
2.37 0.701533
2.38 0.664545
2.39 0.617072
2.4 0.56095
2.41 0.496156
2.42 0.425592
2.43 0.350615
2.44 0.273663
2.45 0.196886
2.46 0.122871
2.47 0.0532573
2.48 -0.00936315
2.49 -0.0640281
2.5 -0.109508
2.51 -0.144767
2.52 -0.170763
2.53 -0.186396
2.54 -0.194104
2.55 -0.194447
2.56 -0.189424
2.57 -0.180993
2.58 -0.171042
2.59 -0.161602
2.6 -0.154633
2.61 -0.151471
2.62 -0.153277
2.63 -0.161015
2.64 -0.17428
2.65 -0.193725
2.66 -0.21774
2.67 -0.245683
2.68 -0.275961
2.69 -0.307044
2.7 -0.33717
2.71 -0.364999
2.72 -0.388771
2.73 -0.407735
2.74 -0.421123
2.75 -0.428416
2.76 -0.430395
2.77 -0.426854
2.78 -0.419598
2.79 -0.409569
2.8 -0.398473
2.81 -0.387822
2.82 -0.379447
2.83 -0.374366
2.84 -0.374207
2.85 -0.379302
2.86 -0.390059
2.87 -0.406523
2.88 -0.427553
2.89 -0.452727
2.9 -0.480056
2.91 -0.50813
2.92 -0.535035
2.93 -0.559233
2.94 -0.578611
2.95 -0.592571
2.96 -0.599415
2.97 -0.599314
2.98 -0.592187
2.99 -0.57842
3 -0.55967
3.01 -0.536817
3.02 -0.512268
3.03 -0.487832
3.04 -0.465696
3.05 -0.447503
3.06 -0.43556
3.07 -0.430211
3.08 -0.433113
3.09 -0.443702
3.1 -0.461732
3.11 -0.486384
3.12 -0.515624
3.13 -0.548053
3.14 -0.581069
3.15 -0.612528
3.16 -0.640155
3.17 -0.662405
3.18 -0.677017
3.19 -0.684148
3.2 -0.682533
3.21 -0.673403
3.22 -0.657664
3.23 -0.636992
3.24 -0.613916
3.25 -0.591009
3.26 -0.570981
3.27 -0.556749
3.28 -0.550786
3.29 -0.554504
3.3 -0.570474
3.31 -0.597569
3.32 -0.636906
3.33 -0.686128
3.34 -0.743478
3.35 -0.806175
3.36 -0.87066
3.37 -0.933023
3.38 -0.989855
3.39 -1.03718
3.4 -1.07193
3.41 -1.09256
3.42 -1.09588
3.43 -1.08388
3.44 -1.0554
3.45 -1.01395
3.46 -0.962123
3.47 -0.903834
3.48 -0.843798
3.49 -0.787207
3.5 -0.738229
3.51 -0.70171
3.52 -0.680995
3.53 -0.677355
3.54 -0.693515
3.55 -0.725912
3.56 -0.773733
3.57 -0.83082
3.58 -0.89139
3.59 -0.94693
3.6 -0.989989
3.61 -1.00754
3.62 -0.993639
3.63 -0.936348
3.64 -0.827793
3.65 -0.664223
3.66 -0.434081
3.67 -0.144063
3.68 0.213235
3.69 0.628379
3.7 1.09643
3.71 1.60929
3.72 2.1517
3.73 2.71275
3.74 3.27434
3.75 3.82041
3.76 4.33337
3.77 4.80004
3.78 5.19811
3.79 5.52432
3.8 5.75792
3.81 5.89894
3.82 5.94145
3.83 5.88022
3.84 5.72827
3.85 5.47691
3.86 5.14921
3.87 4.74943
3.88 4.2937
3.89 3.79816
3.9 3.27597
3.91 2.74533
3.92 2.22084
3.93 1.71618
3.94 1.24297
3.95 0.813503
3.96 0.429902
3.97 0.105452
3.98 -0.1661
3.99 -0.380198
4 -0.540773
4.01 -0.654305
4.02 -0.722058
4.03 -0.756586
4.04 -0.76134
4.05 -0.746761
4.06 -0.719399
4.07 -0.686176
4.08 -0.652917
4.09 -0.624925
4.1 -0.604786
4.11 -0.595207
4.12 -0.596818
4.13 -0.608777
4.14 -0.630772
4.15 -0.659507
4.16 -0.69313
4.17 -0.728223
4.18 -0.762044
4.19 -0.791434
4.2 -0.814641
4.21 -0.82834
4.22 -0.832447
4.23 -0.825251
4.24 -0.806664
4.25 -0.777417
4.26 -0.73701
4.27 -0.687848
4.28 -0.630035
4.29 -0.565678
4.3 -0.495924
4.31 -0.421965
4.32 -0.345287
4.33 -0.266579
4.34 -0.186959
4.35 -0.10701
4.36 -0.0273463
4.37 0.0516023
4.38 0.129215
4.39 0.20519
4.4 0.278688
4.41 0.349171
4.42 0.415783
4.43 0.47724
4.44 0.533076
4.45 0.580979
4.46 0.620858
4.47 0.650848
4.48 0.670015
4.49 0.678103
4.5 0.673145
4.51 0.656616
4.52 0.627085
4.53 0.586139
4.54 0.534398
4.55 0.472735
4.56 0.403569
4.57 0.32766
4.58 0.247885
4.59 0.16585
4.6 0.0837278
4.61 0.00320029
4.62 -0.0736745
4.63 -0.146093
4.64 -0.212374
4.65 -0.272313
4.66 -0.325491
4.67 -0.371606
4.68 -0.411675
4.69 -0.445315
4.7 -0.474172
4.71 -0.498658
4.72 -0.519823
4.73 -0.538617
4.74 -0.555647
4.75 -0.57175
4.76 -0.5873
4.77 -0.60265
4.78 -0.617909
4.79 -0.633039
4.8 -0.647911
4.81 -0.662211
4.82 -0.675742
4.83 -0.688169
4.84 -0.699272
4.85 -0.708983
4.86 -0.717087
4.87 -0.723861
4.88 -0.729317
4.89 -0.733842
4.9 -0.737737
4.91 -0.741385
4.92 -0.745142
4.93 -0.749399
4.94 -0.754336
4.95 -0.760159
4.96 -0.766891
4.97 -0.77441
4.98 -0.782593
4.99 -0.791083
5 -0.799565
5.01 -0.807668
5.02 -0.815071
5.03 -0.821442
5.04 -0.826734
5.05 -0.830719
5.06 -0.833677
5.07 -0.835749
5.08 -0.837331
5.09 -0.838839
5.1 -0.840785
5.11 -0.84351
5.12 -0.847443
5.13 -0.852621
5.14 -0.858955
5.15 -0.866033
5.16 -0.873096
5.17 -0.878874
5.18 -0.882084
5.19 -0.880774
5.2 -0.872861
5.21 -0.856732
5.22 -0.828939
5.23 -0.789099
5.24 -0.733755
5.25 -0.662734
5.26 -0.575013
5.27 -0.469598
5.28 -0.348865
5.29 -0.21181
5.3 -0.0628936
5.31 0.0960085
5.32 0.260752
5.33 0.427193
5.34 0.590225
5.35 0.745692
5.36 0.887493
5.37 1.01189
5.38 1.11467
5.39 1.1908
5.4 1.24062
5.41 1.2577
5.42 1.24588
5.43 1.20307
5.44 1.13141
5.45 1.03465
5.46 0.913663
5.47 0.775591
5.48 0.62308
5.49 0.462477
5.5 0.29841
5.51 0.136182
5.52 -0.0203058
5.53 -0.165582
5.54 -0.297965
5.55 -0.413991
5.56 -0.512269
5.57 -0.593111
5.58 -0.654614
5.59 -0.700244
5.6 -0.729542
5.61 -0.745911
5.62 -0.75133
5.63 -0.747948
5.64 -0.73882
5.65 -0.7254
5.66 -0.710048
5.67 -0.693885
5.68 -0.677826
5.69 -0.662159
5.7 -0.646752
5.71 -0.631024
5.72 -0.613999
5.73 -0.594647
5.74 -0.57186
5.75 -0.544275
5.76 -0.511617
5.77 -0.472422
5.78 -0.427458
5.79 -0.376553
5.8 -0.320674
5.81 -0.261223
5.82 -0.199667
5.83 -0.138171
5.84 -0.0790367
5.85 -0.0244422
5.86 0.0234755
5.87 0.0621315
5.88 0.0909729
5.89 0.106919
5.9 0.110981
5.91 0.101945
5.92 0.0803874
5.93 0.0477559
5.94 0.00423137
5.95 -0.0470894
5.96 -0.105138
5.97 -0.167154
5.98 -0.231165
5.99 -0.294995
6 -0.357025
6.01 -0.41527
6.02 -0.469169
6.03 -0.517729
6.04 -0.560806
6.05 -0.598874
6.06 -0.631961
6.07 -0.661531
6.08 -0.68819
6.09 -0.713299
6.1 -0.737822
6.11 -0.762743
6.12 -0.788639
6.13 -0.816118
6.14 -0.845026
6.15 -0.875219
6.16 -0.906058
6.17 -0.936759
6.18 -0.966166
6.19 -0.993425
6.2 -1.01716
6.21 -1.03668
6.22 -1.05128
6.23 -1.06027
6.24 -1.06423
6.25 -1.0627
6.26 -1.05715
6.27 -1.04824
6.28 -1.03737
6.29 -1.02587
6.3 -1.01517
6.31 -1.00622
6.32 -1.00003
6.33 -0.996623
6.34 -0.995675
6.35 -0.996041
6.36 -0.995845
6.37 -0.99191
6.38 -0.981268
6.39 -0.959346
6.4 -0.921346
6.41 -0.863743
6.42 -0.778569
6.43 -0.665194
6.44 -0.515783
6.45 -0.329866
6.46 -0.105145
6.47 0.161093
6.48 0.463582
6.49 0.80539
6.5 1.17686
6.51 1.5746
6.52 1.99011
6.53 2.41442
6.54 2.83735
6.55 3.24907
6.56 3.63683
6.57 3.99131
6.58 4.30265
6.59 4.55838
6.6 4.75742
6.61 4.88354
6.62 4.9426
6.63 4.92724
6.64 4.83889
6.65 4.68387
6.66 4.45926
6.67 4.18076
6.68 3.85
6.69 3.48098
6.7 3.08311
6.71 2.66707
6.72 2.24475
6.73 1.82708
6.74 1.42324
6.75 1.04277
6.76 0.693263
6.77 0.37817
6.78 0.106348
6.79 -0.125934
6.8 -0.313006
6.81 -0.4594
6.82 -0.566936
6.83 -0.637483
6.84 -0.678971
6.85 -0.692175
6.86 -0.686089
6.87 -0.664155
6.88 -0.631862
6.89 -0.593765
6.9 -0.553414
6.91 -0.51394
6.92 -0.47772
6.93 -0.445961
6.94 -0.419334
6.95 -0.398181
6.96 -0.381528
6.97 -0.369262
6.98 -0.359864
6.99 -0.352651
7 -0.346704
7.01 -0.341412
7.02 -0.336531
7.03 -0.332066
7.04 -0.3285
7.05 -0.326519
7.06 -0.327041
7.07 -0.331438
7.08 -0.340331
7.09 -0.355663
7.1 -0.377436
7.11 -0.406721
7.12 -0.443632
7.13 -0.487529
7.14 -0.538511
7.15 -0.594553
7.16 -0.654739
7.17 -0.716867
7.18 -0.779078
7.19 -0.83905
7.2 -0.89519
7.21 -0.944797
7.22 -0.987226
7.23 -1.02082
7.24 -1.04503
7.25 -1.06027
7.26 -1.06592
7.27 -1.06415
7.28 -1.05544
7.29 -1.04207
7.3 -1.02575
7.31 -1.00848
7.32 -0.992034
7.33 -0.978338
7.34 -0.968224
7.35 -0.962661
7.36 -0.961735
7.37 -0.964744
7.38 -0.970917
7.39 -0.978209
7.4 -0.984472
7.41 -0.987082
7.42 -0.983365
7.43 -0.969739
7.44 -0.944756
7.45 -0.903744
7.46 -0.846816
7.47 -0.771337
7.48 -0.676771
7.49 -0.564311
7.5 -0.432771
7.51 -0.286459
7.52 -0.126165
7.53 0.0436461
7.54 0.219467
7.55 0.396893
7.56 0.571711
7.57 0.738428
7.58 0.893786
7.59 1.033
7.6 1.15246
7.61 1.25068
7.62 1.32248
7.63 1.37018
7.64 1.39011
7.65 1.3846
7.66 1.35441
7.67 1.30003
7.68 1.22615
7.69 1.13265
7.7 1.02521
7.71 0.90593
7.72 0.778571
7.73 0.646624
7.74 0.513168
7.75 0.381255
7.76 0.253902
7.77 0.133285
7.78 0.0213844
7.79 -0.0793861
7.8 -0.168992
7.81 -0.244442
7.82 -0.306899
7.83 -0.354956
7.84 -0.388639
7.85 -0.408934
7.86 -0.414618
7.87 -0.408354
7.88 -0.389619
7.89 -0.360612
7.9 -0.322644
7.91 -0.277136
7.92 -0.226672
7.93 -0.172842
7.94 -0.118371
7.95 -0.0655006
7.96 -0.0167856
7.97 0.0259371
7.98 0.059446
7.99 0.0832055
8 0.0943769
8.01 0.092711
8.02 0.0775322
8.03 0.0479601
8.04 0.00597605
8.05 -0.0493121
8.06 -0.114624
8.07 -0.188821
8.08 -0.269296
8.09 -0.353362
8.1 -0.438432
8.11 -0.521862
8.12 -0.600906
8.13 -0.673648
8.14 -0.738449
8.15 -0.793518
8.16 -0.839354
8.17 -0.87443
8.18 -0.900727
8.19 -0.91862
8.2 -0.929812
8.21 -0.936314
8.22 -0.93971
8.23 -0.942208
8.24 -0.945404
8.25 -0.950568
8.26 -0.958388
8.27 -0.969097
8.28 -0.981775
8.29 -0.995124
8.3 -1.00684
8.31 -1.01401
8.32 -1.01291
8.33 -1.00058
8.34 -0.970962
8.35 -0.922637
8.36 -0.849444
8.37 -0.749918
8.38 -0.621742
8.39 -0.461757
8.4 -0.273283
8.41 -0.0529263
8.42 0.192697
8.43 0.461871
8.44 0.749001
8.45 1.04755
8.46 1.35109
8.47 1.65175
8.48 1.94105
8.49 2.21158
8.5 2.45617
8.51 2.66557
8.52 2.83817
8.53 2.96255
8.54 3.0415
8.55 3.06967
8.56 3.047
8.57 2.97758
8.58 2.85826
8.59 2.69968
8.6 2.50218
8.61 2.2749
8.62 2.02397
8.63 1.75598
8.64 1.47936
8.65 1.20061
8.66 0.926631
8.67 0.663521
8.68 0.416738
8.69 0.189022
8.7 -0.0135963
8.71 -0.192679
8.72 -0.344313
8.73 -0.470528
8.74 -0.572117
8.75 -0.649546
8.76 -0.707582
8.77 -0.74618
8.78 -0.770891
8.79 -0.783697
8.8 -0.788017
8.81 -0.786982
8.82 -0.782861
8.83 -0.778207
8.84 -0.77482
8.85 -0.774051
8.86 -0.776786
8.87 -0.78383
8.88 -0.794857
8.89 -0.81034
8.9 -0.829295
8.91 -0.85141
8.92 -0.875894
8.93 -0.901911
8.94 -0.928787
8.95 -0.955712
8.96 -0.982028
8.97 -1.00721
8.98 -1.03084
8.99 -1.05249
9 -1.07218
9.01 -1.08949
9.02 -1.1047
9.03 -1.11769
9.04 -1.12857
9.05 -1.13754
9.06 -1.14444
9.07 -1.1496
9.08 -1.15281
9.09 -1.15411
9.1 -1.15339
9.11 -1.15027
9.12 -1.14474
9.13 -1.136
9.14 -1.12404
9.15 -1.10815
9.16 -1.08783
9.17 -1.06292
9.18 -1.03229
9.19 -0.996389
9.2 -0.954291
9.21 -0.906317
9.22 -0.852518
9.23 -0.792857
9.24 -0.728448
9.25 -0.659373
9.26 -0.587234
9.27 -0.512999
9.28 -0.438238
9.29 -0.364424
9.3 -0.293639
9.31 -0.227142
9.32 -0.167255
9.33 -0.115223
9.34 -0.0724168
9.35 -0.040732
9.36 -0.019722
9.37 -0.0116383
9.38 -0.0148725
9.39 -0.0298638
9.4 -0.0556355
9.41 -0.0903771
9.42 -0.133429
9.43 -0.181799
9.44 -0.233945
9.45 -0.287248
9.46 -0.339611
9.47 -0.388578
9.48 -0.432779
9.49 -0.469663
9.5 -0.498968
9.51 -0.519447
9.52 -0.530892
9.53 -0.534118
9.54 -0.528876
9.55 -0.517467
9.56 -0.500699
9.57 -0.480811
9.58 -0.459597
9.59 -0.439163
9.6 -0.421123
9.61 -0.407718
9.62 -0.399729
9.63 -0.398506
9.64 -0.404649
9.65 -0.417826
9.66 -0.438673
9.67 -0.465494
9.68 -0.498024
9.69 -0.534601
9.7 -0.573969
9.71 -0.614742
9.72 -0.655547
9.73 -0.695061
9.74 -0.732469
9.75 -0.766922
9.76 -0.79794
9.77 -0.825553
9.78 -0.849294
9.79 -0.869815
9.8 -0.886867
9.81 -0.90075
9.82 -0.911334
9.83 -0.917906
9.84 -0.920138
9.85 -0.915842
9.86 -0.903974
9.87 -0.881696
9.88 -0.84596
9.89 -0.794742
9.9 -0.721986
9.91 -0.62733
9.92 -0.504595
9.93 -0.352547
9.94 -0.168953
9.95 0.0499123
9.96 0.300576
9.97 0.587333
9.98 0.903556
9.99 1.24801
10 1.61535
10.01 1.99862
10.02 2.39168
10.03 2.78534
10.04 3.1706
10.05 3.53841
10.06 3.88027
10.07 4.18468
10.08 4.44853
10.09 4.65759
10.1 4.81321
10.11 4.90784
10.12 4.93933
10.13 4.91155
10.14 4.81824
10.15 4.6718
10.16 4.47089
10.17 4.22595
10.18 3.9441
10.19 3.63244
10.2 3.30241
10.21 2.96109
10.22 2.61865
10.23 2.2828
10.24 1.96135
10.25 1.65882
10.26 1.38327
10.27 1.13412
10.28 0.916592
10.29 0.729145
10.3 0.571063
10.31 0.442152
10.32 0.33661
10.33 0.254298
10.34 0.188365
10.35 0.135994
10.36 0.0927294
10.37 0.0545277
10.38 0.0181894
10.39 -0.0192623
10.4 -0.0602195
10.41 -0.106049
10.42 -0.157538
10.43 -0.215303
10.44 -0.278335
10.45 -0.346588
10.46 -0.418254
10.47 -0.492244
10.48 -0.56694
10.49 -0.640956
10.5 -0.71259
10.51 -0.780981
10.52 -0.844662
10.53 -0.903081
10.54 -0.955695
10.55 -1.0017
10.56 -1.04165
10.57 -1.07453
10.58 -1.10126
10.59 -1.12152
10.6 -1.13547
10.61 -1.14364
10.62 -1.14535
10.63 -1.14159
10.64 -1.13177
10.65 -1.11638
10.66 -1.09553
10.67 -1.06909
10.68 -1.03797
10.69 -1.0019
10.7 -0.962077
10.71 -0.918973
10.72 -0.873582
10.73 -0.827006
10.74 -0.780428
10.75 -0.735048
10.76 -0.692326
10.77 -0.653407
10.78 -0.619367
10.79 -0.59168
10.8 -0.570389
10.81 -0.557168
10.82 -0.551341
10.83 -0.553453
10.84 -0.563239
10.85 -0.579732
10.86 -0.603027
10.87 -0.631282
10.88 -0.664015
10.89 -0.69973
10.9 -0.737333
10.91 -0.775672
10.92 -0.813704
10.93 -0.850353
10.94 -0.885023
10.95 -0.91702
10.96 -0.945916
10.97 -0.971729
10.98 -0.993983
10.99 -1.01328
11 -1.02949
11.01 -1.04313
11.02 -1.05456
11.03 -1.06408
11.04 -1.07225
11.05 -1.0793
11.06 -1.08572
11.07 -1.09174
11.08 -1.09767
11.09 -1.1037
11.1 -1.11004
11.11 -1.11675
11.12 -1.12396
11.13 -1.13164
11.14 -1.13971
11.15 -1.148
11.16 -1.15622
11.17 -1.16386
11.18 -1.17035
11.19 -1.17481
11.2 -1.17607
11.21 -1.17318
11.22 -1.1638
11.23 -1.14716
11.24 -1.12042
11.25 -1.08208
11.26 -1.03026
11.27 -0.961822
11.28 -0.876972
11.29 -0.771435
11.3 -0.646646
11.31 -0.500785
11.32 -0.333929
11.33 -0.148235
11.34 0.0571342
11.35 0.277108
11.36 0.510196
11.37 0.751427
11.38 0.996514
11.39 1.23999
11.4 1.47706
11.41 1.7005
11.42 1.90637
11.43 2.08844
11.44 2.24149
11.45 2.36384
11.46 2.4475
11.47 2.49583
11.48 2.50348
11.49 2.47319
11.5 2.40633
11.51 2.30315
11.52 2.17095
11.53 2.00997
11.54 1.82881
11.55 1.6314
11.56 1.42395
11.57 1.21225
11.58 1.00191
11.59 0.797458
11.6 0.603954
11.61 0.424337
11.62 0.260902
11.63 0.116544
11.64 -0.0103282
11.65 -0.117276
11.66 -0.207834
11.67 -0.282642
11.68 -0.344161
11.69 -0.395669
11.7 -0.43891
11.71 -0.477658
11.72 -0.513925
11.73 -0.550121
11.74 -0.587801
11.75 -0.628323
11.76 -0.671838
11.77 -0.718718
11.78 -0.767875
11.79 -0.818315
11.8 -0.868295
11.81 -0.916129
11.82 -0.959098
11.83 -0.995812
11.84 -1.02336
11.85 -1.04029
11.86 -1.04512
11.87 -1.03552
11.88 -1.01231
11.89 -0.972844
11.9 -0.919063
11.91 -0.850443
11.92 -0.767832
11.93 -0.673262
11.94 -0.566709
11.95 -0.451512
11.96 -0.328566
11.97 -0.200477
11.98 -0.0692232
11.99 0.0630281
12 0.194228
12.01 0.321919
12.02 0.444507
12.03 0.559834
12.04 0.665928
12.05 0.761954
12.06 0.844746
12.07 0.914909
12.08 0.969784
12.09 1.00938
12.1 1.03322
12.11 1.03983
12.12 1.03118
12.13 1.00528
12.14 0.964908
12.15 0.91018
12.16 0.842589
12.17 0.764598
12.18 0.677004
12.19 0.58329
12.2 0.48511
12.21 0.385258
12.22 0.285926
12.23 0.189645
12.24 0.0978822
12.25 0.0131929
12.26 -0.0639817
12.27 -0.13236
12.28 -0.191505
12.29 -0.24216
12.3 -0.283728
12.31 -0.318414
12.32 -0.346697
12.33 -0.370561
12.34 -0.391558
12.35 -0.411341
12.36 -0.431461
12.37 -0.453431
12.38 -0.478026
12.39 -0.50597
12.4 -0.537405
12.41 -0.571749
