# xPDFsuite Configuration #
[PDF]
wavelength = 0.1432
dataformat = twotheta
inputfile = 1_1Pd_CeO2_cycle-00462.chi
backgroundfile = background-00000.chi
mode = xray
bgscale = 1.007
composition = CeO2
outputtype = gr
qmaxinst = 28.8974762299
qmin = 0.5
qmax = 27.9
rmax = 50.0
rmin = 0.0
rstep = 0.01
rpoly = 1.8657

[Misc]
inputdir = G:/SankarDec16/1Pd/Chi
savedir = D:/DATA/APS_CeO2/1Pd
backgroundfilefull = G:/SankarDec16/Background/background-00000.chi

#### start data
#S 1
#L r($\AA$)  G($\AA^{-2}$)
0 0
0.01 -0.00585201
0.02 -0.0112635
0.03 -0.0157809
0.04 -0.0190626
0.05 -0.0209182
0.06 -0.021042
0.07 -0.0196373
0.08 -0.0166054
0.09 -0.0123346
0.1 -0.00709331
0.11 -0.00129265
0.12 0.00461857
0.13 0.0101373
0.14 0.0149062
0.15 0.0184887
0.16 0.0206283
0.17 0.0212223
0.18 0.0200617
0.19 0.0174449
0.2 0.013383
0.21 0.00832815
0.22 0.00261461
0.23 -0.00329613
0.24 -0.00898137
0.25 -0.0138991
0.26 -0.0177922
0.27 -0.0202615
0.28 -0.0211482
0.29 -0.0204421
0.3 -0.0180411
0.31 -0.0143252
0.32 -0.00941443
0.33 -0.00380465
0.34 0.00212024
0.35 0.00786956
0.36 0.0130668
0.37 0.0171565
0.38 0.0199939
0.39 0.0212364
0.4 0.0208305
0.41 0.0188595
0.42 0.0153333
0.43 0.0106961
0.44 0.00517159
0.45 -0.000723893
0.46 -0.00657472
0.47 -0.0118838
0.48 -0.0163389
0.49 -0.0193973
0.5 -0.0210338
0.51 -0.0209791
0.52 -0.0192877
0.53 -0.0161331
0.54 -0.0116376
0.55 -0.00628862
0.56 -0.000403586
0.57 0.00550478
0.58 0.0110088
0.59 0.0156281
0.6 0.0191301
0.61 0.0210106
0.62 0.0213657
0.63 0.0200125
0.64 0.0171121
0.65 0.0129202
0.66 0.00766667
0.67 0.00185942
0.68 -0.00410472
0.69 -0.00974051
0.7 -0.0146284
0.71 -0.0183272
0.72 -0.0206952
0.73 -0.0212904
0.74 -0.020326
0.75 -0.0177144
0.76 -0.0137154
0.77 -0.00865506
0.78 -0.00285953
0.79 0.00316665
0.8 0.00896714
0.81 0.014107
0.82 0.0181954
0.83 0.0208513
0.84 0.0220304
0.85 0.0213739
0.86 0.0192004
0.87 0.0155196
0.88 0.0106751
0.89 0.00504394
0.9 -0.000973118
0.91 -0.00690342
0.92 -0.0122632
0.93 -0.0166946
0.94 -0.0198641
0.95 -0.0214811
0.96 -0.0216043
0.97 -0.0199961
0.98 -0.0170616
0.99 -0.0129216
1 -0.00798896
1.01 -0.00267099
1.02 0.00256953
1.03 0.00733353
1.04 0.0111356
1.05 0.0137369
1.06 0.0148985
1.07 0.0144656
1.08 0.0126281
1.09 0.00933364
1.1 0.00508604
1.11 0.000171308
1.12 -0.00489893
1.13 -0.00966794
1.14 -0.0135467
1.15 -0.016229
1.16 -0.0171563
1.17 -0.0162246
1.18 -0.0132631
1.19 -0.00822714
1.2 -0.00147881
1.21 0.00691137
1.22 0.0162549
1.23 0.0261087
1.24 0.0358021
1.25 0.0447611
1.26 0.0522074
1.27 0.0578132
1.28 0.0608361
1.29 0.0611752
1.3 0.0585878
1.31 0.0529563
1.32 0.0447209
1.33 0.0337863
1.34 0.0210012
1.35 0.00673143
1.36 -0.00829669
1.37 -0.0234403
1.38 -0.0379521
1.39 -0.0513268
1.4 -0.0628247
1.41 -0.0721619
1.42 -0.0789792
1.43 -0.0829871
1.44 -0.0844284
1.45 -0.0829602
1.46 -0.0792216
1.47 -0.0732825
1.48 -0.0656038
1.49 -0.0566259
1.5 -0.0466855
1.51 -0.0362831
1.52 -0.0257402
1.53 -0.0153877
1.54 -0.00546034
1.55 0.00383135
1.56 0.0124509
1.57 0.0202165
1.58 0.027241
1.59 0.0334619
1.6 0.0389231
1.61 0.0436657
1.62 0.0476022
1.63 0.0507997
1.64 0.0530788
1.65 0.0544146
1.66 0.0546592
1.67 0.0536156
1.68 0.0512891
1.69 0.0473216
1.7 0.04188
1.71 0.0347965
1.72 0.0261681
1.73 0.0161682
1.74 0.00487849
1.75 -0.00727601
1.76 -0.0200547
1.77 -0.0330039
1.78 -0.0457436
1.79 -0.0578173
1.8 -0.0689567
1.81 -0.0786328
1.82 -0.0868278
1.83 -0.0932583
1.84 -0.0979402
1.85 -0.101016
1.86 -0.102524
1.87 -0.102928
1.88 -0.102446
1.89 -0.101563
1.9 -0.100649
1.91 -0.100123
1.92 -0.100236
1.93 -0.101371
1.94 -0.1035
1.95 -0.106718
1.96 -0.11085
1.97 -0.115618
1.98 -0.120657
1.99 -0.125484
2 -0.129493
2.01 -0.132166
2.02 -0.13293
2.03 -0.131132
2.04 -0.126628
2.05 -0.118555
2.06 -0.107224
2.07 -0.0922366
2.08 -0.0737504
2.09 -0.0520692
2.1 -0.0271653
2.11 0.00020741
2.12 0.029958
2.13 0.0614415
2.14 0.0943276
2.15 0.128282
2.16 0.162946
2.17 0.198215
2.18 0.233887
2.19 0.269963
2.2 0.306444
2.21 0.343344
2.22 0.38073
2.23 0.418504
2.24 0.45658
2.25 0.494659
2.26 0.532341
2.27 0.568949
2.28 0.603902
2.29 0.635841
2.3 0.664152
2.31 0.687348
2.32 0.704303
2.33 0.714242
2.34 0.715245
2.35 0.7077
2.36 0.689858
2.37 0.662409
2.38 0.625261
2.39 0.578645
2.4 0.524364
2.41 0.462614
2.42 0.39612
2.43 0.326292
2.44 0.255436
2.45 0.185528
2.46 0.119023
2.47 0.0572585
2.48 0.00259433
2.49 -0.0443111
2.5 -0.0825088
2.51 -0.1113
2.52 -0.131798
2.53 -0.14334
2.54 -0.148339
2.55 -0.147618
2.56 -0.143201
2.57 -0.136969
2.58 -0.130901
2.59 -0.126671
2.6 -0.126198
2.61 -0.130433
2.62 -0.140264
2.63 -0.15631
2.64 -0.177824
2.65 -0.20505
2.66 -0.236124
2.67 -0.270051
2.68 -0.305007
2.69 -0.339351
2.7 -0.371038
2.71 -0.398912
2.72 -0.421048
2.73 -0.436956
2.74 -0.446003
2.75 -0.447878
2.76 -0.443722
2.77 -0.433565
2.78 -0.419606
2.79 -0.4031
2.8 -0.386081
2.81 -0.370293
2.82 -0.357922
2.83 -0.350006
2.84 -0.348452
2.85 -0.353515
2.86 -0.365609
2.87 -0.384733
2.88 -0.40947
2.89 -0.439338
2.9 -0.471951
2.91 -0.505675
2.92 -0.538264
2.93 -0.567902
2.94 -0.592125
2.95 -0.61017
2.96 -0.620011
2.97 -0.621751
2.98 -0.615192
2.99 -0.600639
3 -0.579925
3.01 -0.553859
3.02 -0.525205
3.03 -0.495915
3.04 -0.468496
3.05 -0.444888
3.06 -0.427752
3.07 -0.417704
3.08 -0.416785
3.09 -0.424627
3.1 -0.441209
3.11 -0.465926
3.12 -0.496655
3.13 -0.53223
3.14 -0.569713
3.15 -0.60691
3.16 -0.641244
3.17 -0.670835
3.18 -0.693076
3.19 -0.70771
3.2 -0.713019
3.21 -0.709868
3.22 -0.698798
3.23 -0.681079
3.24 -0.659201
3.25 -0.635267
3.26 -0.612266
3.27 -0.592997
3.28 -0.580174
3.29 -0.575548
3.3 -0.581954
3.31 -0.598858
3.32 -0.627837
3.33 -0.667111
3.34 -0.71545
3.35 -0.770687
3.36 -0.829515
3.37 -0.888754
3.38 -0.944881
3.39 -0.994258
3.4 -1.03373
3.41 -1.06144
3.42 -1.07412
3.43 -1.07299
3.44 -1.05648
3.45 -1.02727
3.46 -0.987256
3.47 -0.939481
3.48 -0.888112
3.49 -0.837231
3.5 -0.790853
3.51 -0.753104
3.52 -0.72713
3.53 -0.714326
3.54 -0.717144
3.55 -0.73292
3.56 -0.761017
3.57 -0.796356
3.58 -0.834006
3.59 -0.8666
3.6 -0.887727
3.61 -0.885881
3.62 -0.85591
3.63 -0.787204
3.64 -0.672773
3.65 -0.50927
3.66 -0.286362
3.67 -0.0099983
3.68 0.326455
3.69 0.714583
3.7 1.14996
3.71 1.62533
3.72 2.12701
3.73 2.64511
3.74 3.1634
3.75 3.66736
3.76 4.1411
3.77 4.57274
3.78 4.94208
3.79 5.24617
3.8 5.46619
3.81 5.60215
3.82 5.64864
3.83 5.6008
3.84 5.4704
3.85 5.24936
3.86 4.95853
3.87 4.60152
3.88 4.19277
3.89 3.74675
3.9 3.27498
3.91 2.79392
3.92 2.31631
3.93 1.85446
3.94 1.41866
3.95 1.01971
3.96 0.659705
3.97 0.350135
3.98 0.0857838
3.99 -0.129383
4 -0.298669
4.01 -0.427566
4.02 -0.51704
4.03 -0.577745
4.04 -0.612393
4.05 -0.629712
4.06 -0.635003
4.07 -0.633736
4.08 -0.630694
4.09 -0.62963
4.1 -0.632692
4.11 -0.641569
4.12 -0.656498
4.13 -0.67668
4.14 -0.701246
4.15 -0.727891
4.16 -0.754635
4.17 -0.779136
4.18 -0.799326
4.19 -0.812903
4.2 -0.81919
4.21 -0.815767
4.22 -0.803489
4.23 -0.781537
4.24 -0.750577
4.25 -0.711771
4.26 -0.665438
4.27 -0.613747
4.28 -0.55734
4.29 -0.497894
4.3 -0.43638
4.31 -0.373691
4.32 -0.310531
4.33 -0.247269
4.34 -0.184084
4.35 -0.120966
4.36 -0.0577759
4.37 0.00563075
4.38 0.0694104
4.39 0.133503
4.4 0.197734
4.41 0.261627
4.42 0.324504
4.43 0.385228
4.44 0.442928
4.45 0.495489
4.46 0.542121
4.47 0.580775
4.48 0.610018
4.49 0.629111
4.5 0.635668
4.51 0.63068
4.52 0.61229
4.53 0.581752
4.54 0.539395
4.55 0.485807
4.56 0.423413
4.57 0.352676
4.58 0.2767
4.59 0.197038
4.6 0.116013
4.61 0.0355117
4.62 -0.0423278
4.63 -0.11639
4.64 -0.184887
4.65 -0.247382
4.66 -0.303318
4.67 -0.352262
4.68 -0.395135
4.69 -0.43148
4.7 -0.462924
4.71 -0.489858
4.72 -0.513346
4.73 -0.534361
4.74 -0.553524
4.75 -0.571699
4.76 -0.589258
4.77 -0.606545
4.78 -0.623638
4.79 -0.640435
4.8 -0.656764
4.81 -0.672176
4.82 -0.686434
4.83 -0.699081
4.84 -0.709823
4.85 -0.718568
4.86 -0.724997
4.87 -0.729491
4.88 -0.732032
4.89 -0.733161
4.9 -0.733303
4.91 -0.733024
4.92 -0.732891
4.93 -0.733565
4.94 -0.735425
4.95 -0.738951
4.96 -0.744379
4.97 -0.751697
4.98 -0.761043
4.99 -0.771928
5 -0.784171
5.01 -0.797176
5.02 -0.810459
5.03 -0.823435
5.04 -0.83568
5.05 -0.846581
5.06 -0.856004
5.07 -0.863631
5.08 -0.869426
5.09 -0.873531
5.1 -0.875917
5.11 -0.877003
5.12 -0.876833
5.13 -0.875658
5.14 -0.87349
5.15 -0.870121
5.16 -0.865358
5.17 -0.858276
5.18 -0.848339
5.19 -0.834214
5.2 -0.814561
5.21 -0.788337
5.22 -0.753027
5.23 -0.708442
5.24 -0.651966
5.25 -0.583462
5.26 -0.502105
5.27 -0.407057
5.28 -0.300087
5.29 -0.180315
5.3 -0.0511543
5.31 0.085992
5.32 0.227903
5.33 0.371305
5.34 0.512136
5.35 0.64701
5.36 0.770959
5.37 0.880837
5.38 0.973092
5.39 1.04344
5.4 1.09197
5.41 1.11313
5.42 1.10991
5.43 1.08027
5.44 1.02575
5.45 0.949278
5.46 0.851187
5.47 0.737443
5.48 0.6099
5.49 0.47388
5.5 0.333168
5.51 0.192103
5.52 0.0541907
5.53 -0.076148
5.54 -0.197101
5.55 -0.305695
5.56 -0.400491
5.57 -0.481457
5.58 -0.546771
5.59 -0.598993
5.6 -0.637465
5.61 -0.664757
5.62 -0.682277
5.63 -0.691539
5.64 -0.695011
5.65 -0.693559
5.66 -0.689209
5.67 -0.682702
5.68 -0.674766
5.69 -0.665703
5.7 -0.655238
5.71 -0.643141
5.72 -0.628487
5.73 -0.610625
5.74 -0.588711
5.75 -0.561683
5.76 -0.529548
5.77 -0.491095
5.78 -0.447227
5.79 -0.397894
5.8 -0.344069
5.81 -0.287072
5.82 -0.22827
5.83 -0.169608
5.84 -0.113162
5.85 -0.0608669
5.86 -0.0146292
5.87 0.0232351
5.88 0.0522307
5.89 0.0695545
5.9 0.0760802
5.91 0.0706382
5.92 0.0536532
5.93 0.0263417
5.94 -0.0113147
5.95 -0.0565733
5.96 -0.10867
5.97 -0.165159
5.98 -0.224343
5.99 -0.284344
6 -0.343589
6.01 -0.400369
6.02 -0.453941
6.03 -0.503317
6.04 -0.548147
6.05 -0.588633
6.06 -0.624545
6.07 -0.656982
6.08 -0.686209
6.09 -0.713294
6.1 -0.738953
6.11 -0.763923
6.12 -0.788812
6.13 -0.814066
6.14 -0.839814
6.15 -0.866047
6.16 -0.892467
6.17 -0.918651
6.18 -0.943894
6.19 -0.967687
6.2 -0.989138
6.21 -1.00779
6.22 -1.02317
6.23 -1.03476
6.24 -1.04289
6.25 -1.04714
6.26 -1.04838
6.27 -1.04687
6.28 -1.04334
6.29 -1.03849
6.3 -1.03283
6.31 -1.02685
6.32 -1.02065
6.33 -1.01396
6.34 -1.00612
6.35 -0.995675
6.36 -0.981311
6.37 -0.959768
6.38 -0.92924
6.39 -0.885888
6.4 -0.826192
6.41 -0.747842
6.42 -0.644615
6.43 -0.516892
6.44 -0.358756
6.45 -0.170585
6.46 0.048909
6.47 0.301285
6.48 0.581913
6.49 0.892654
6.5 1.22565
6.51 1.57787
6.52 1.94243
6.53 2.31228
6.54 2.67915
6.55 3.0356
6.56 3.37144
6.57 3.67956
6.58 3.95221
6.59 4.17951
6.6 4.36072
6.61 4.48267
6.62 4.54994
6.63 4.55625
6.64 4.50224
6.65 4.39255
6.66 4.22377
6.67 4.00821
6.68 3.74592
6.69 3.44772
6.7 3.12044
6.71 2.77176
6.72 2.41161
6.73 2.04752
6.74 1.68796
6.75 1.34043
6.76 1.01177
6.77 0.705873
6.78 0.430512
6.79 0.184497
6.8 -0.0264286
6.81 -0.20422
6.82 -0.348894
6.83 -0.460201
6.84 -0.543678
6.85 -0.597896
6.86 -0.630056
6.87 -0.641788
6.88 -0.637282
6.89 -0.620664
6.9 -0.594258
6.91 -0.56229
6.92 -0.526823
6.93 -0.490477
6.94 -0.45495
6.95 -0.421856
6.96 -0.391859
6.97 -0.366242
6.98 -0.344825
6.99 -0.328139
7 -0.316189
7.01 -0.308684
7.02 -0.306112
7.03 -0.307744
7.04 -0.314076
7.05 -0.324732
7.06 -0.339753
7.07 -0.359373
7.08 -0.383071
7.09 -0.411421
7.1 -0.443626
7.11 -0.479718
7.12 -0.519195
7.13 -0.56136
7.14 -0.605755
7.15 -0.651296
7.16 -0.697179
7.17 -0.74236
7.18 -0.785915
7.19 -0.826703
7.2 -0.864256
7.21 -0.897252
7.22 -0.925793
7.23 -0.949242
7.24 -0.96761
7.25 -0.981357
7.26 -0.990381
7.27 -0.995911
7.28 -0.998298
7.29 -0.998673
7.3 -0.997842
7.31 -0.996658
7.32 -0.995793
7.33 -0.995859
7.34 -0.996964
7.35 -0.999119
7.36 -1.00187
7.37 -1.00452
7.38 -1.00582
7.39 -1.00466
7.4 -0.999078
7.41 -0.987577
7.42 -0.96842
7.43 -0.939213
7.44 -0.899579
7.45 -0.846263
7.46 -0.780072
7.47 -0.699414
7.48 -0.604351
7.49 -0.4961
7.5 -0.374112
7.51 -0.241714
7.52 -0.0996933
7.53 0.0486343
7.54 0.200652
7.55 0.353079
7.56 0.502905
7.57 0.645981
7.58 0.779986
7.59 0.901285
7.6 1.00709
7.61 1.09623
7.62 1.1645
7.63 1.21352
7.64 1.24012
7.65 1.24581
7.66 1.23083
7.67 1.19511
7.68 1.1422
7.69 1.07136
7.7 0.987171
7.71 0.890946
7.72 0.785651
7.73 0.674252
7.74 0.559062
7.75 0.443109
7.76 0.328893
7.77 0.218715
7.78 0.114563
7.79 0.018832
7.8 -0.0679898
7.81 -0.143044
7.82 -0.206963
7.83 -0.258287
7.84 -0.296834
7.85 -0.323373
7.86 -0.336738
7.87 -0.339323
7.88 -0.330695
7.89 -0.312892
7.9 -0.287158
7.91 -0.254831
7.92 -0.218228
7.93 -0.178773
7.94 -0.1388
7.95 -0.100175
7.96 -0.0649654
7.97 -0.0346038
7.98 -0.0115793
7.99 0.00378865
8 0.00939172
8.01 0.0051551
8.02 -0.00934353
8.03 -0.0346788
8.04 -0.069305
8.05 -0.113858
8.06 -0.1659
8.07 -0.224634
8.08 -0.288216
8.09 -0.354751
8.1 -0.422523
8.11 -0.489656
8.12 -0.554347
8.13 -0.61526
8.14 -0.671281
8.15 -0.721194
8.16 -0.765238
8.17 -0.802344
8.18 -0.833678
8.19 -0.859343
8.2 -0.880255
8.21 -0.897555
8.22 -0.911913
8.23 -0.92462
8.24 -0.93625
8.25 -0.947381
8.26 -0.95811
8.27 -0.968045
8.28 -0.976534
8.29 -0.981868
8.3 -0.982663
8.31 -0.976418
8.32 -0.96044
8.33 -0.932824
8.34 -0.888832
8.35 -0.828116
8.36 -0.746023
8.37 -0.641993
8.38 -0.514591
8.39 -0.361715
8.4 -0.186325
8.41 0.013973
8.42 0.23381
8.43 0.4717
8.44 0.723193
8.45 0.98318
8.46 1.24659
8.47 1.50736
8.48 1.7588
8.49 1.99515
8.5 2.21075
8.51 2.39819
8.52 2.55612
8.53 2.67519
8.54 2.7574
8.55 2.79807
8.56 2.79668
8.57 2.75613
8.58 2.67306
8.59 2.5558
8.6 2.40376
8.61 2.22399
8.62 2.02102
8.63 1.79956
8.64 1.56672
8.65 1.32697
8.66 1.08664
8.67 0.850536
8.68 0.623511
8.69 0.408486
8.7 0.210593
8.71 0.0296733
8.72 -0.130579
8.73 -0.27087
8.74 -0.391109
8.75 -0.490816
8.76 -0.573326
8.77 -0.637669
8.78 -0.688145
8.79 -0.72578
8.8 -0.753073
8.81 -0.772638
8.82 -0.785841
8.83 -0.795365
8.84 -0.80246
8.85 -0.808754
8.86 -0.815274
8.87 -0.822958
8.88 -0.832183
8.89 -0.843549
8.9 -0.856879
8.91 -0.872249
8.92 -0.889429
8.93 -0.908041
8.94 -0.927878
8.95 -0.948414
8.96 -0.969352
8.97 -0.990292
8.98 -1.01093
8.99 -1.03093
9 -1.05012
9.01 -1.06814
9.02 -1.08493
9.03 -1.10025
9.04 -1.11393
9.05 -1.1259
9.06 -1.13575
9.07 -1.1436
9.08 -1.14896
9.09 -1.15178
9.1 -1.15181
9.11 -1.14858
9.12 -1.14221
9.13 -1.13187
9.14 -1.11779
9.15 -1.09945
9.16 -1.07662
9.17 -1.04941
9.18 -1.01709
9.19 -0.980313
9.2 -0.938545
9.21 -0.892272
9.22 -0.841708
9.23 -0.787001
9.24 -0.729064
9.25 -0.668084
9.26 -0.605222
9.27 -0.541201
9.28 -0.477115
9.29 -0.413949
9.3 -0.353142
9.31 -0.295493
9.32 -0.242601
9.33 -0.195305
9.34 -0.154569
9.35 -0.121778
9.36 -0.0966873
9.37 -0.0810686
9.38 -0.0739339
9.39 -0.0758572
9.4 -0.0864375
9.41 -0.104592
9.42 -0.130354
9.43 -0.161632
9.44 -0.1978
9.45 -0.237037
9.46 -0.277962
9.47 -0.318993
9.48 -0.358799
9.49 -0.395696
9.5 -0.428906
9.51 -0.45728
9.52 -0.480146
9.53 -0.497541
9.54 -0.508692
9.55 -0.514722
9.56 -0.515562
9.57 -0.512405
9.58 -0.506168
9.59 -0.497921
9.6 -0.488979
9.61 -0.480579
9.62 -0.473798
9.63 -0.469745
9.64 -0.469335
9.65 -0.472926
9.66 -0.481539
9.67 -0.494647
9.68 -0.512751
9.69 -0.535222
9.7 -0.561636
9.71 -0.591548
9.72 -0.623906
9.73 -0.658205
9.74 -0.693354
9.75 -0.728596
9.76 -0.763024
9.77 -0.795955
9.78 -0.826275
9.79 -0.853583
9.8 -0.876657
9.81 -0.894855
9.82 -0.907257
9.83 -0.912244
9.84 -0.909474
9.85 -0.89606
9.86 -0.871672
9.87 -0.83374
9.88 -0.780145
9.89 -0.710015
9.9 -0.618697
9.91 -0.507208
9.92 -0.371177
9.93 -0.210705
9.94 -0.0248216
9.95 0.188572
9.96 0.426166
9.97 0.690632
9.98 0.976604
9.99 1.28283
10 1.60515
10.01 1.93833
10.02 2.27769
10.03 2.61658
10.04 2.94825
10.05 3.26606
10.06 3.56365
10.07 3.83229
10.08 4.06957
10.09 4.26432
10.1 4.41725
10.11 4.52198
10.12 4.57615
10.13 4.58212
10.14 4.53368
10.15 4.44005
10.16 4.2987
10.17 4.11717
10.18 3.90027
10.19 3.65241
10.2 3.38298
10.21 3.09619
10.22 2.80114
10.23 2.50374
10.24 2.2108
10.25 1.92711
10.26 1.65946
10.27 1.40931
10.28 1.18175
10.29 0.977132
10.3 0.796162
10.31 0.64012
10.32 0.505225
10.33 0.392811
10.34 0.297632
10.35 0.218168
10.36 0.15107
10.37 0.0927324
10.38 0.0409322
10.39 -0.00786431
10.4 -0.0557246
10.41 -0.104741
10.42 -0.156252
10.43 -0.211462
10.44 -0.270343
10.45 -0.333429
10.46 -0.399728
10.47 -0.468691
10.48 -0.539171
10.49 -0.60998
10.5 -0.679686
10.51 -0.74722
10.52 -0.811079
10.53 -0.870382
10.54 -0.924301
10.55 -0.971704
10.56 -1.01288
10.57 -1.04652
10.58 -1.07347
10.59 -1.09335
10.6 -1.10639
10.61 -1.11333
10.62 -1.11376
10.63 -1.10898
10.64 -1.09881
10.65 -1.08406
10.66 -1.06515
10.67 -1.04227
10.68 -1.01625
10.69 -0.987076
10.7 -0.955575
10.71 -0.92204
10.72 -0.887028
10.73 -0.851137
10.74 -0.814941
10.75 -0.779115
10.76 -0.744424
10.77 -0.711566
10.78 -0.681229
10.79 -0.654406
10.8 -0.631336
10.81 -0.613316
10.82 -0.600259
10.83 -0.592906
10.84 -0.591551
10.85 -0.595901
10.86 -0.606698
10.87 -0.622832
10.88 -0.644569
10.89 -0.670986
10.9 -0.701455
10.91 -0.735377
10.92 -0.771584
10.93 -0.809436
10.94 -0.847806
10.95 -0.885867
10.96 -0.9227
10.97 -0.9577
10.98 -0.989859
10.99 -1.01907
11 -1.04457
11.01 -1.06636
11.02 -1.08436
11.03 -1.0984
11.04 -1.10912
11.05 -1.11634
11.06 -1.12095
11.07 -1.12326
11.08 -1.12389
11.09 -1.12348
11.1 -1.12255
11.11 -1.12165
11.12 -1.12124
11.13 -1.12161
11.14 -1.12288
11.15 -1.12509
11.16 -1.12789
11.17 -1.13083
11.18 -1.13318
11.19 -1.13394
11.2 -1.1318
11.21 -1.12568
11.22 -1.11319
11.23 -1.09357
11.24 -1.06408
11.25 -1.02344
11.26 -0.970075
11.27 -0.901325
11.28 -0.817697
11.29 -0.715699
11.3 -0.596967
11.31 -0.460254
11.32 -0.305983
11.33 -0.136225
11.34 0.0494061
11.35 0.246601
11.36 0.453972
11.37 0.667461
11.38 0.88362
11.39 1.09811
11.4 1.30724
11.41 1.50536
11.42 1.68949
11.43 1.85479
11.44 1.99718
11.45 2.11531
11.46 2.20274
11.47 2.26194
11.48 2.2883
11.49 2.28354
11.5 2.24829
11.51 2.18192
11.52 2.08989
11.53 1.97123
11.54 1.83257
11.55 1.67624
11.56 1.50665
11.57 1.32852
11.58 1.14544
11.59 0.961945
11.6 0.781771
11.61 0.608141
11.62 0.443569
11.63 0.291096
11.64 0.150732
11.65 0.025355
11.66 -0.0866089
11.67 -0.184591
11.68 -0.269452
11.69 -0.343191
11.7 -0.405956
11.71 -0.460913
11.72 -0.508902
11.73 -0.552148
11.74 -0.592118
11.75 -0.630064
11.76 -0.667142
11.77 -0.703943
11.78 -0.740769
11.79 -0.777501
11.8 -0.813602
11.81 -0.848373
11.82 -0.880351
11.83 -0.908649
11.84 -0.931319
11.85 -0.947094
11.86 -0.954611
11.87 -0.951712
11.88 -0.93846
11.89 -0.912139
11.9 -0.873639
11.91 -0.821842
11.92 -0.756732
11.93 -0.679595
11.94 -0.589583
11.95 -0.489595
11.96 -0.379907
11.97 -0.262947
11.98 -0.140597
11.99 -0.0149152
12 0.111619
12.01 0.236527
12.02 0.357628
12.03 0.472479
12.04 0.578711
12.05 0.67516
12.06 0.758441
12.07 0.829035
12.08 0.884276
12.09 0.924302
12.1 0.948843
12.11 0.956789
12.12 0.950365
12.13 0.928113
12.14 0.892998
12.15 0.845487
12.16 0.787261
12.17 0.72066
12.18 0.646637
12.19 0.568098
12.2 0.486447
12.21 0.403802
12.22 0.321732
12.23 0.241946
12.24 0.165316
12.25 0.0933905
12.26 0.0262593
12.27 -0.035449
12.28 -0.0916692
12.29 -0.143
12.3 -0.189273
12.31 -0.231837
12.32 -0.271042
12.33 -0.307978
12.34 -0.343434
12.35 -0.378158
12.36 -0.412803
12.37 -0.447827
12.38 -0.483374
12.39 -0.519403
