# xPDFsuite Configuration #
[PDF]
wavelength = 0.1432
dataformat = twotheta
inputfile = 1_1Pd_CeO2_cycle-00419.chi
backgroundfile = background-00000.chi
mode = xray
bgscale = 1.007
composition = CeO2
outputtype = gr
qmaxinst = 28.8974762299
qmin = 0.5
qmax = 27.9
rmax = 50.0
rmin = 0.0
rstep = 0.01
rpoly = 1.8657

[Misc]
inputdir = G:/SankarDec16/1Pd/Chi
savedir = D:/DATA/APS_CeO2/1Pd
backgroundfilefull = G:/SankarDec16/Background/background-00000.chi

#### start data
#S 1
#L r($\AA$)  G($\AA^{-2}$)
0 0
0.01 -0.00568322
0.02 -0.0109389
0.03 -0.0153268
0.04 -0.0185153
0.05 -0.0203195
0.06 -0.0204425
0.07 -0.0190813
0.08 -0.0161397
0.09 -0.0119944
0.1 -0.00690562
0.11 -0.00127198
0.12 0.00447082
0.13 0.00983481
0.14 0.0144728
0.15 0.0179606
0.16 0.0200487
0.17 0.0206368
0.18 0.019521
0.19 0.0169903
0.2 0.013054
0.21 0.00815063
0.22 0.00260381
0.23 -0.00313913
0.24 -0.00866754
0.25 -0.0134558
0.26 -0.0172531
0.27 -0.0196713
0.28 -0.0205547
0.29 -0.0198921
0.3 -0.0175824
0.31 -0.0139932
0.32 -0.00923882
0.33 -0.00379966
0.34 0.00195273
0.35 0.00754286
0.36 0.0126044
0.37 0.0165988
0.38 0.0193831
0.39 0.0206235
0.4 0.0202657
0.41 0.0183881
0.42 0.0149974
0.43 0.0105228
0.44 0.00517815
0.45 -0.000536301
0.46 -0.00621857
0.47 -0.011387
0.48 -0.0157369
0.49 -0.018742
0.5 -0.020374
0.51 -0.0203695
0.52 -0.0187779
0.53 -0.0157641
0.54 -0.0114426
0.55 -0.00628398
0.56 -0.000592211
0.57 0.00513609
0.58 0.0104873
0.59 0.0149959
0.6 0.0184336
0.61 0.0203108
0.62 0.0207156
0.63 0.0194674
0.64 0.0167173
0.65 0.0127093
0.66 0.00766037
0.67 0.00206096
0.68 -0.00370938
0.69 -0.00918036
0.7 -0.0139464
0.71 -0.0175794
0.72 -0.0199381
0.73 -0.0205925
0.74 -0.0197426
0.75 -0.0172984
0.76 -0.0135055
0.77 -0.00867423
0.78 -0.00311299
0.79 0.00269181
0.8 0.00830508
0.81 0.0133056
0.82 0.0173166
0.83 0.0199694
0.84 0.0212164
0.85 0.0207102
0.86 0.0187512
0.87 0.015345
0.88 0.0108174
0.89 0.00552767
0.9 -0.000143243
0.91 -0.00574201
0.92 -0.0108074
0.93 -0.0149955
0.94 -0.0179879
0.95 -0.0195076
0.96 -0.0196109
0.97 -0.0180763
0.98 -0.0152933
0.99 -0.011386
1 -0.00675721
1.01 -0.00180418
1.02 0.0030133
1.03 0.00731065
1.04 0.0106029
1.05 0.0126597
1.06 0.0132434
1.07 0.0121991
1.08 0.0097205
1.09 0.00575099
1.1 0.000802237
1.11 -0.00483621
1.12 -0.01064
1.13 -0.0161362
1.14 -0.0207071
1.15 -0.0240207
1.16 -0.0254676
1.17 -0.0249065
1.18 -0.0221143
1.19 -0.0169804
1.2 -0.00984721
1.21 -0.000680891
1.22 0.0098089
1.23 0.0212411
1.24 0.0329406
1.25 0.044306
1.26 0.0545619
1.27 0.0632734
1.28 0.0696509
1.29 0.0734609
1.3 0.0743452
1.31 0.07203
1.32 0.0668368
1.33 0.0584467
1.34 0.0476379
1.35 0.0345887
1.36 0.0199293
1.37 0.00426133
1.38 -0.0118135
1.39 -0.0276596
1.4 -0.0426189
1.41 -0.0562266
1.42 -0.0680225
1.43 -0.0775531
1.44 -0.0848254
1.45 -0.0892868
1.46 -0.0913228
1.47 -0.0907478
1.48 -0.0877837
1.49 -0.0827042
1.5 -0.0755588
1.51 -0.0668671
1.52 -0.0567195
1.53 -0.0455492
1.54 -0.0335998
1.55 -0.0211554
1.56 -0.00851046
1.57 0.00406021
1.58 0.016305
1.59 0.0279295
1.6 0.0386618
1.61 0.0482883
1.62 0.0563801
1.63 0.0628839
1.64 0.0673139
1.65 0.0696295
1.66 0.0696054
1.67 0.0670258
1.68 0.0621099
1.69 0.0545082
1.7 0.0447685
1.71 0.0329301
1.72 0.0194373
1.73 0.00476694
1.74 -0.0106082
1.75 -0.0260535
1.76 -0.0409396
1.77 -0.0547073
1.78 -0.066815
1.79 -0.0766928
1.8 -0.0842584
1.81 -0.0888838
1.82 -0.0909749
1.83 -0.0904225
1.84 -0.0876375
1.85 -0.0831374
1.86 -0.0774189
1.87 -0.0712907
1.88 -0.0654858
1.89 -0.0607422
1.9 -0.057738
1.91 -0.0571852
1.92 -0.0592241
1.93 -0.06458
1.94 -0.0727798
1.95 -0.0838908
1.96 -0.097354
1.97 -0.112475
1.98 -0.128478
1.99 -0.144331
2 -0.15889
2.01 -0.171153
2.02 -0.180082
2.03 -0.184515
2.04 -0.184214
2.05 -0.177712
2.06 -0.165608
2.07 -0.147295
2.08 -0.123157
2.09 -0.0938329
2.1 -0.0594958
2.11 -0.0215583
2.12 0.019494
2.13 0.0623761
2.14 0.106229
2.15 0.150101
2.16 0.193301
2.17 0.235013
2.18 0.275036
2.19 0.312982
2.2 0.348851
2.21 0.382822
2.22 0.414935
2.23 0.445695
2.24 0.475224
2.25 0.503875
2.26 0.531749
2.27 0.558789
2.28 0.584894
2.29 0.609427
2.3 0.632005
2.31 0.651647
2.32 0.667416
2.33 0.678531
2.34 0.683286
2.35 0.681573
2.36 0.6716
2.37 0.653445
2.38 0.626569
2.39 0.59061
2.4 0.546794
2.41 0.494596
2.42 0.436325
2.43 0.37278
2.44 0.3059
2.45 0.23751
2.46 0.169643
2.47 0.104026
2.48 0.0428465
2.49 -0.0126864
2.5 -0.0612746
2.51 -0.101704
2.52 -0.134425
2.53 -0.158143
2.54 -0.174644
2.55 -0.184086
2.56 -0.187944
2.57 -0.187773
2.58 -0.184936
2.59 -0.181302
2.6 -0.178398
2.61 -0.177569
2.62 -0.179893
2.63 -0.186338
2.64 -0.196827
2.65 -0.212035
2.66 -0.230877
2.67 -0.252975
2.68 -0.277166
2.69 -0.302281
2.7 -0.326984
2.71 -0.350163
2.72 -0.370436
2.73 -0.387138
2.74 -0.399621
2.75 -0.407433
2.76 -0.411143
2.77 -0.410583
2.78 -0.407159
2.79 -0.401634
2.8 -0.395378
2.81 -0.389609
2.82 -0.385825
2.83 -0.384831
2.84 -0.387949
2.85 -0.395412
2.86 -0.40751
2.87 -0.424215
2.88 -0.444528
2.89 -0.46798
2.9 -0.492874
2.91 -0.517921
2.92 -0.541454
2.93 -0.562148
2.94 -0.578119
2.95 -0.588931
2.96 -0.593084
2.97 -0.590819
2.98 -0.58212
2.99 -0.567406
3 -0.548233
3.01 -0.525482
3.02 -0.501375
3.03 -0.47763
3.04 -0.456291
3.05 -0.438887
3.06 -0.427617
3.07 -0.422781
3.08 -0.425993
3.09 -0.436726
3.1 -0.454787
3.11 -0.479459
3.12 -0.50882
3.13 -0.541641
3.14 -0.575413
3.15 -0.608143
3.16 -0.637637
3.17 -0.662359
3.18 -0.680106
3.19 -0.690879
3.2 -0.693341
3.21 -0.688485
3.22 -0.676997
3.23 -0.660249
3.24 -0.640543
3.25 -0.620034
3.26 -0.601321
3.27 -0.587021
3.28 -0.579496
3.29 -0.580181
3.3 -0.59154
3.31 -0.612799
3.32 -0.645179
3.33 -0.686778
3.34 -0.736223
3.35 -0.791243
3.36 -0.848697
3.37 -0.905336
3.38 -0.957995
3.39 -1.00319
3.4 -1.03808
3.41 -1.06112
3.42 -1.06935
3.43 -1.06425
3.44 -1.04457
3.45 -1.01314
3.46 -0.972017
3.47 -0.924374
3.48 -0.874261
3.49 -0.825886
3.5 -0.782968
3.51 -0.749552
3.52 -0.728538
3.53 -0.721079
3.54 -0.729386
3.55 -0.750548
3.56 -0.783672
3.57 -0.823502
3.58 -0.864937
3.59 -0.900438
3.6 -0.923608
3.61 -0.922737
3.62 -0.892816
3.63 -0.82317
3.64 -0.706875
3.65 -0.540678
3.66 -0.314225
3.67 -0.0336407
3.68 0.307735
3.69 0.701368
3.7 1.1428
3.71 1.62473
3.72 2.13338
3.73 2.65888
3.74 3.18485
3.75 3.69672
3.76 4.17846
3.77 4.61805
3.78 4.99508
3.79 5.30644
3.8 5.533
3.81 5.67456
3.82 5.72542
3.83 5.68042
3.84 5.55124
3.85 5.3293
3.86 5.0356
3.87 4.67351
3.88 4.2575
3.89 3.80221
3.9 3.31915
3.91 2.82531
3.92 2.33359
3.93 1.85689
3.94 1.40593
3.95 0.992095
3.96 0.617932
3.97 0.295673
3.98 0.0203747
3.99 -0.203425
4 -0.378718
4.01 -0.510915
4.02 -0.600549
4.03 -0.65871
4.04 -0.687913
4.05 -0.69742
4.06 -0.69285
4.07 -0.680118
4.08 -0.664663
4.09 -0.650744
4.1 -0.64116
4.11 -0.638177
4.12 -0.64257
4.13 -0.65388
4.14 -0.67182
4.15 -0.693997
4.16 -0.718824
4.17 -0.743715
4.18 -0.766501
4.19 -0.784685
4.2 -0.797062
4.21 -0.800971
4.22 -0.79662
4.23 -0.782757
4.24 -0.759524
4.25 -0.727687
4.26 -0.687032
4.27 -0.6396
4.28 -0.585614
4.29 -0.526781
4.3 -0.464021
4.31 -0.398239
4.32 -0.330488
4.33 -0.261176
4.34 -0.191002
4.35 -0.120224
4.36 -0.0491284
4.37 0.0220694
4.38 0.0930981
4.39 0.16366
4.4 0.233187
4.41 0.301076
4.42 0.366487
4.43 0.428133
4.44 0.485304
4.45 0.535708
4.46 0.578905
4.47 0.612897
4.48 0.636501
4.49 0.649241
4.5 0.648938
4.51 0.636892
4.52 0.611491
4.53 0.574236
4.54 0.525674
4.55 0.466637
4.56 0.399623
4.57 0.325394
4.58 0.246998
4.59 0.166146
4.6 0.085173
4.61 0.00589882
4.62 -0.0694502
4.63 -0.140001
4.64 -0.203952
4.65 -0.261108
4.66 -0.31107
4.67 -0.353611
4.68 -0.389911
4.69 -0.41977
4.7 -0.445064
4.71 -0.466473
4.72 -0.485322
4.73 -0.502752
4.74 -0.519733
4.75 -0.53709
4.76 -0.555479
4.77 -0.575143
4.78 -0.596156
4.79 -0.618364
4.8 -0.641276
4.81 -0.664361
4.82 -0.686918
4.83 -0.708201
4.84 -0.72749
4.85 -0.744334
4.86 -0.757915
4.87 -0.768396
4.88 -0.775276
4.89 -0.778975
4.9 -0.779734
4.91 -0.777951
4.92 -0.774442
4.93 -0.769704
4.94 -0.76463
4.95 -0.759876
4.96 -0.75612
4.97 -0.753791
4.98 -0.753501
4.99 -0.755198
5 -0.759222
5.01 -0.765305
5.02 -0.77329
5.03 -0.782929
5.04 -0.793718
5.05 -0.805393
5.06 -0.817436
5.07 -0.829517
5.08 -0.841283
5.09 -0.852499
5.1 -0.862837
5.11 -0.87222
5.12 -0.880309
5.13 -0.886959
5.14 -0.891854
5.15 -0.89444
5.16 -0.894451
5.17 -0.890628
5.18 -0.882607
5.19 -0.868978
5.2 -0.84855
5.21 -0.820496
5.22 -0.782414
5.23 -0.734455
5.24 -0.674169
5.25 -0.601675
5.26 -0.516316
5.27 -0.417411
5.28 -0.306792
5.29 -0.183657
5.3 -0.0513625
5.31 0.0887224
5.32 0.233474
5.33 0.379715
5.34 0.523498
5.35 0.6615
5.36 0.788824
5.37 0.902311
5.38 0.998359
5.39 1.07257
5.4 1.12489
5.41 1.1495
5.42 1.14918
5.43 1.12161
5.44 1.06803
5.45 0.991227
5.46 0.89115
5.47 0.773867
5.48 0.640985
5.49 0.498023
5.5 0.34889
5.51 0.198137
5.52 0.0497162
5.53 -0.0916055
5.54 -0.22347
5.55 -0.342401
5.56 -0.446416
5.57 -0.535105
5.58 -0.605989
5.59 -0.661603
5.6 -0.700778
5.61 -0.726206
5.62 -0.739308
5.63 -0.741677
5.64 -0.736326
5.65 -0.72428
5.66 -0.708324
5.67 -0.689669
5.68 -0.669694
5.69 -0.649223
5.7 -0.62867
5.71 -0.608062
5.72 -0.587045
5.73 -0.565035
5.74 -0.541301
5.75 -0.514844
5.76 -0.485259
5.77 -0.451331
5.78 -0.413305
5.79 -0.370801
5.8 -0.324256
5.81 -0.27453
5.82 -0.222482
5.83 -0.169766
5.84 -0.118051
5.85 -0.0691777
5.86 -0.0249705
5.87 0.0122736
5.88 0.0417738
5.89 0.0606421
5.9 0.0693033
5.91 0.0663021
5.92 0.0516779
5.93 0.0263527
5.94 -0.0100544
5.95 -0.0548934
5.96 -0.107623
5.97 -0.165721
5.98 -0.227414
5.99 -0.290656
6 -0.353553
6.01 -0.414094
6.02 -0.471163
6.03 -0.523405
6.04 -0.57013
6.05 -0.611355
6.06 -0.646506
6.07 -0.67682
6.08 -0.702434
6.09 -0.724703
6.1 -0.744583
6.11 -0.76317
6.12 -0.781527
6.13 -0.800602
6.14 -0.820946
6.15 -0.843033
6.16 -0.866942
6.17 -0.892401
6.18 -0.919084
6.19 -0.946193
6.2 -0.972928
6.21 -0.998391
6.22 -1.02174
6.23 -1.04197
6.24 -1.05883
6.25 -1.07126
6.26 -1.07966
6.27 -1.08372
6.28 -1.08376
6.29 -1.08036
6.3 -1.07364
6.31 -1.06451
6.32 -1.05302
6.33 -1.03948
6.34 -1.02368
6.35 -1.0048
6.36 -0.982157
6.37 -0.95326
6.38 -0.916775
6.39 -0.869465
6.4 -0.808165
6.41 -0.730605
6.42 -0.630841
6.43 -0.50868
6.44 -0.358044
6.45 -0.17854
6.46 0.0317949
6.47 0.27541
6.48 0.548408
6.49 0.853772
6.5 1.18407
6.51 1.53708
6.52 1.90627
6.53 2.28452
6.54 2.66392
6.55 3.03609
6.56 3.3906
6.57 3.71921
6.58 4.01321
6.59 4.26147
6.6 4.46219
6.61 4.6006
6.62 4.68061
6.63 4.69475
6.64 4.643
6.65 4.52994
6.66 4.35138
6.67 4.12076
6.68 3.83806
6.69 3.51543
6.7 3.16073
6.71 2.78295
6.72 2.39348
6.73 2.00147
6.74 1.61658
6.75 1.2477
6.76 0.902707
6.77 0.585886
6.78 0.306125
6.79 0.0613884
6.8 -0.142173
6.81 -0.307654
6.82 -0.435891
6.83 -0.527704
6.84 -0.59014
6.85 -0.62306
6.86 -0.635044
6.87 -0.62901
6.88 -0.610247
6.89 -0.583404
6.9 -0.551867
6.91 -0.519317
6.92 -0.488213
6.93 -0.460274
6.94 -0.436503
6.95 -0.41757
6.96 -0.402832
6.97 -0.392365
6.98 -0.38479
6.99 -0.379455
7 -0.37538
7.01 -0.371841
7.02 -0.368368
7.03 -0.36481
7.04 -0.361357
7.05 -0.358548
7.06 -0.357149
7.07 -0.358379
7.08 -0.362984
7.09 -0.372815
7.1 -0.388206
7.11 -0.410402
7.12 -0.439868
7.13 -0.476315
7.14 -0.520282
7.15 -0.570049
7.16 -0.625161
7.17 -0.683634
7.18 -0.743821
7.19 -0.803627
7.2 -0.861272
7.21 -0.914223
7.22 -0.961387
7.23 -1.00094
7.24 -1.03189
7.25 -1.05426
7.26 -1.06694
7.27 -1.0717
7.28 -1.06852
7.29 -1.05939
7.3 -1.04575
7.31 -1.02933
7.32 -1.01205
7.33 -0.995596
7.34 -0.981237
7.35 -0.970078
7.36 -0.962597
7.37 -0.958519
7.38 -0.957515
7.39 -0.95798
7.4 -0.958265
7.41 -0.956088
7.42 -0.949085
7.43 -0.934022
7.44 -0.909377
7.45 -0.870815
7.46 -0.818101
7.47 -0.748589
7.48 -0.661465
7.49 -0.557565
7.5 -0.435457
7.51 -0.298983
7.52 -0.148611
7.53 0.0115595
7.54 0.178305
7.55 0.347536
7.56 0.515119
7.57 0.675871
7.58 0.826433
7.59 0.962136
7.6 1.07932
7.61 1.17639
7.62 1.24822
7.63 1.2969
7.64 1.31882
7.65 1.31619
7.66 1.28974
7.67 1.24005
7.68 1.17172
7.69 1.08482
7.7 0.984956
7.71 0.874317
7.72 0.756686
7.73 0.635459
7.74 0.513746
7.75 0.394312
7.76 0.280026
7.77 0.172696
7.78 0.0739448
7.79 -0.014321
7.8 -0.0924427
7.81 -0.158175
7.82 -0.212957
7.83 -0.255998
7.84 -0.287733
7.85 -0.309245
7.86 -0.319923
7.87 -0.321939
7.88 -0.315049
7.89 -0.30087
7.9 -0.280293
7.91 -0.254187
7.92 -0.224237
7.93 -0.191261
7.94 -0.157039
7.95 -0.122879
7.96 -0.0904098
7.97 -0.0609053
7.98 -0.0364554
7.99 -0.017715
8 -0.00673304
8.01 -0.00407045
8.02 -0.0105537
8.03 -0.0272862
8.04 -0.0533111
8.05 -0.0899245
8.06 -0.135155
8.07 -0.18876
8.08 -0.249289
8.09 -0.314948
8.1 -0.384424
8.11 -0.45544
8.12 -0.526271
8.13 -0.595076
8.14 -0.660346
8.15 -0.720375
8.16 -0.774805
8.17 -0.821985
8.18 -0.862597
8.19 -0.896233
8.2 -0.923425
8.21 -0.945183
8.22 -0.961796
8.23 -0.97486
8.24 -0.984844
8.25 -0.992719
8.26 -0.998881
8.27 -1.0033
8.28 -1.0058
8.29 -1.00508
8.3 -1.00014
8.31 -0.988819
8.32 -0.968686
8.33 -0.937909
8.34 -0.891918
8.35 -0.830136
8.36 -0.747849
8.37 -0.644167
8.38 -0.51736
8.39 -0.364946
8.4 -0.189572
8.41 0.0116013
8.42 0.233373
8.43 0.474536
8.44 0.730745
8.45 0.996806
8.46 1.26769
8.47 1.53693
8.48 1.79761
8.49 2.04348
8.5 2.26845
8.51 2.46451
8.52 2.62994
8.53 2.75466
8.54 2.8405
8.55 2.88229
8.56 2.8793
8.57 2.83448
8.58 2.74417
8.59 2.61729
8.6 2.45323
8.61 2.25965
8.62 2.04157
8.63 1.80423
8.64 1.55542
8.65 1.30027
8.66 1.04564
8.67 0.796968
8.68 0.559583
8.69 0.336604
8.7 0.133758
8.71 -0.0494204
8.72 -0.20892
8.73 -0.345819
8.74 -0.460264
8.75 -0.552052
8.76 -0.625158
8.77 -0.67894
8.78 -0.718382
8.79 -0.744991
8.8 -0.761812
8.81 -0.771835
8.82 -0.776978
8.83 -0.779993
8.84 -0.782515
8.85 -0.786112
8.86 -0.791791
8.87 -0.800453
8.88 -0.812077
8.89 -0.827163
8.9 -0.845019
8.91 -0.865418
8.92 -0.887713
8.93 -0.911192
8.94 -0.935239
8.95 -0.959164
8.96 -0.982361
8.97 -1.00439
8.98 -1.02491
8.99 -1.04358
9 -1.0605
9.01 -1.07536
9.02 -1.08851
9.03 -1.09995
9.04 -1.10985
9.05 -1.11844
9.06 -1.12567
9.07 -1.13178
9.08 -1.1366
9.09 -1.14007
9.1 -1.14198
9.11 -1.14185
9.12 -1.13951
9.13 -1.13402
9.14 -1.1252
9.15 -1.11222
9.16 -1.09446
9.17 -1.07171
9.18 -1.04275
9.19 -1.0081
9.2 -0.966846
9.21 -0.919434
9.22 -0.866034
9.23 -0.806767
9.24 -0.742892
9.25 -0.674683
9.26 -0.603828
9.27 -0.531414
9.28 -0.459048
9.29 -0.388151
9.3 -0.320777
9.31 -0.257975
9.32 -0.201885
9.33 -0.15348
9.34 -0.11386
9.35 -0.084558
9.36 -0.064954
9.37 -0.0568558
9.38 -0.0586371
9.39 -0.0705133
9.4 -0.0914826
9.41 -0.119903
9.42 -0.155111
9.43 -0.194591
9.44 -0.237049
9.45 -0.280381
9.46 -0.322946
9.47 -0.362866
9.48 -0.399139
9.49 -0.429897
9.5 -0.455027
9.51 -0.473686
9.52 -0.485821
9.53 -0.4921
9.54 -0.49245
9.55 -0.488568
9.56 -0.481105
9.57 -0.471663
9.58 -0.461513
9.59 -0.452126
9.6 -0.444564
9.61 -0.440342
9.62 -0.439906
9.63 -0.444109
9.64 -0.453268
9.65 -0.467089
9.66 -0.485916
9.67 -0.508585
9.68 -0.534873
9.69 -0.563686
9.7 -0.594218
9.71 -0.625602
9.72 -0.657007
9.73 -0.687655
9.74 -0.717083
9.75 -0.744813
9.76 -0.770571
9.77 -0.794352
9.78 -0.815799
9.79 -0.835161
9.8 -0.852023
9.81 -0.866228
9.82 -0.877265
9.83 -0.88398
9.84 -0.88575
9.85 -0.879992
9.86 -0.865639
9.87 -0.839781
9.88 -0.799551
9.89 -0.743273
9.9 -0.665362
9.91 -0.566049
9.92 -0.439938
9.93 -0.286488
9.94 -0.104154
9.95 0.10987
9.96 0.352014
9.97 0.625569
9.98 0.924354
9.99 1.24694
10 1.58842
10.01 1.94266
10.02 2.30417
10.03 2.66518
10.04 3.01792
10.05 3.35482
10.06 3.66873
10.07 3.94997
10.08 4.19605
10.09 4.39488
10.1 4.54766
10.11 4.64787
10.12 4.69352
10.13 4.68769
10.14 4.6245
10.15 4.5143
10.16 4.35516
10.17 4.15558
10.18 3.92105
10.19 3.6568
10.2 3.3726
10.21 3.07337
10.22 2.76819
10.23 2.46321
10.24 2.16519
10.25 1.87858
10.26 1.61013
10.27 1.36064
10.28 1.13494
10.29 0.932876
10.3 0.754766
10.31 0.601528
10.32 0.469141
10.33 0.358694
10.34 0.264932
10.35 0.186316
10.36 0.119613
10.37 0.0613989
10.38 0.00966184
10.39 -0.0388987
10.4 -0.0860962
10.41 -0.133848
10.42 -0.183367
10.43 -0.235733
10.44 -0.29103
10.45 -0.349784
10.46 -0.411279
10.47 -0.475169
10.48 -0.54063
10.49 -0.606752
10.5 -0.672513
10.51 -0.737012
10.52 -0.799097
10.53 -0.857964
10.54 -0.912844
10.55 -0.96265
10.56 -1.00738
10.57 -1.04564
10.58 -1.07784
10.59 -1.10325
10.6 -1.12165
10.61 -1.13342
10.62 -1.13762
10.63 -1.13538
10.64 -1.1261
10.65 -1.11054
10.66 -1.08907
10.67 -1.06188
10.68 -1.03019
10.69 -0.994102
10.7 -0.955002
10.71 -0.913586
10.72 -0.870945
10.73 -0.8281
10.74 -0.786238
10.75 -0.746219
10.76 -0.709282
10.77 -0.676174
10.78 -0.647619
10.79 -0.624638
10.8 -0.607038
10.81 -0.596002
10.82 -0.590826
10.83 -0.59184
10.84 -0.598774
10.85 -0.610877
10.86 -0.628273
10.87 -0.649631
10.88 -0.674735
10.89 -0.702589
10.9 -0.732516
10.91 -0.763869
10.92 -0.79589
10.93 -0.828024
10.94 -0.859736
10.95 -0.890572
10.96 -0.92014
10.97 -0.948266
10.98 -0.974497
10.99 -0.998946
11 -1.02128
11.01 -1.04157
11.02 -1.05979
11.03 -1.07579
11.04 -1.08987
11.05 -1.10178
11.06 -1.1119
11.07 -1.12022
11.08 -1.12693
11.09 -1.13233
11.1 -1.13648
11.11 -1.13979
11.12 -1.14241
11.13 -1.14459
11.14 -1.14648
11.15 -1.1481
11.16 -1.14943
11.17 -1.15014
11.18 -1.14986
11.19 -1.14786
11.2 -1.14317
11.21 -1.1349
11.22 -1.12095
11.23 -1.10058
11.24 -1.07118
11.25 -1.03136
11.26 -0.979407
11.27 -0.912459
11.28 -0.830728
11.29 -0.730393
11.3 -0.612788
11.31 -0.476333
11.32 -0.321157
11.33 -0.149227
11.34 0.0401593
11.35 0.242491
11.36 0.456466
11.37 0.677737
11.38 0.902592
11.39 1.12635
11.4 1.34488
11.41 1.55205
11.42 1.74447
11.43 1.91684
11.44 2.06466
11.45 2.18644
11.46 2.27524
11.47 2.33376
11.48 2.35716
11.49 2.34746
11.5 2.30547
11.51 2.23083
11.52 2.1295
11.53 2.00082
11.54 1.85194
11.55 1.68558
11.56 1.50658
11.57 1.31989
11.58 1.12951
11.59 0.939939
11.6 0.755134
11.61 0.578206
11.62 0.411569
11.63 0.258163
11.64 0.117679
11.65 -0.00714484
11.66 -0.118207
11.67 -0.215135
11.68 -0.299
11.69 -0.371932
11.7 -0.434209
11.71 -0.488981
11.72 -0.537094
11.73 -0.580669
11.74 -0.621058
11.75 -0.659354
11.76 -0.696578
11.77 -0.73312
11.78 -0.769205
11.79 -0.804596
11.8 -0.838709
11.81 -0.870902
11.82 -0.899698
11.83 -0.924408
11.84 -0.943192
11.85 -0.954995
11.86 -0.958634
11.87 -0.952175
11.88 -0.935798
11.89 -0.907001
11.9 -0.866681
11.91 -0.813782
11.92 -0.74825
11.93 -0.671234
11.94 -0.581794
11.95 -0.482579
11.96 -0.373667
11.97 -0.25725
11.98 -0.135015
11.99 -0.00879142
12 0.118984
12.01 0.246011
12.02 0.369991
12.03 0.488439
12.04 0.598806
12.05 0.699683
12.06 0.787393
12.07 0.862112
12.08 0.920798
12.09 0.963298
12.1 0.989089
12.11 0.996735
12.12 0.988514
12.13 0.962695
12.14 0.922524
12.15 0.868542
12.16 0.802717
12.17 0.727788
12.18 0.645079
12.19 0.557981
12.2 0.468385
12.21 0.378828
12.22 0.29123
12.23 0.207741
12.24 0.129209
12.25 0.0575579
12.26 -0.00742638
12.27 -0.0651577
12.28 -0.115872
12.29 -0.160619
12.3 -0.199595
12.31 -0.234729
12.32 -0.266878
12.33 -0.297623
12.34 -0.328149
12.35 -0.359685
12.36 -0.392905
12.37 -0.42867
12.38 -0.466844
12.39 -0.507354
