# xPDFsuite Configuration #
[PDF]
wavelength = 0.1432
dataformat = twotheta
inputfile = 1_1Pd_CeO2_cycle-00019.chi
backgroundfile = background-00000.chi
mode = xray
bgscale = 1.007
composition = CeO2
outputtype = gr
qmaxinst = 28.8974762299
qmin = 0.5
qmax = 27.9
rmax = 50.0
rmin = 0.0
rstep = 0.01
rpoly = 1.8657

[Misc]
inputdir = G:/SankarDec16/1Pd/Chi
savedir = D:/DATA/APS_CeO2/1Pd
backgroundfilefull = G:/SankarDec16/Background/background-00000.chi

#### start data
#S 1
#L r($\AA$)  G($\AA^{-2}$)
0 0
0.01 -0.00571964
0.02 -0.0110064
0.03 -0.0154149
0.04 -0.0186097
0.05 -0.0204049
0.06 -0.0205016
0.07 -0.0191009
0.08 -0.0161087
0.09 -0.0119081
0.1 -0.00676485
0.11 -0.001085
0.12 0.0046911
0.13 0.0100672
0.14 0.0146959
0.15 0.0181495
0.16 0.0201803
0.17 0.020692
0.18 0.019485
0.19 0.0168573
0.2 0.0128266
0.21 0.00784069
0.22 0.00223166
0.23 -0.00354422
0.24 -0.00907437
0.25 -0.0138246
0.26 -0.0175505
0.27 -0.0198641
0.28 -0.0206184
0.29 -0.0198113
0.3 -0.0173534
0.31 -0.0136242
0.32 -0.00875255
0.33 -0.00322844
0.34 0.00256694
0.35 0.00814998
0.36 0.0131572
0.37 0.0170437
0.38 0.0196808
0.39 0.0207404
0.4 0.0201834
0.41 0.0181031
0.42 0.0145243
0.43 0.00988944
0.44 0.00443192
0.45 -0.00134091
0.46 -0.00701837
0.47 -0.0121139
0.48 -0.0163322
0.49 -0.0191456
0.5 -0.0205478
0.51 -0.0202881
0.52 -0.0184374
0.53 -0.0151797
0.54 -0.0106539
0.55 -0.0053424
0.56 0.000428614
0.57 0.00616004
0.58 0.011433
0.59 0.0157828
0.6 0.0189976
0.61 0.0205947
0.62 0.0206905
0.63 0.0191247
0.64 0.0160755
0.65 0.0118081
0.66 0.00656861
0.67 0.000854696
0.68 -0.00493139
0.69 -0.0103244
0.7 -0.0149192
0.71 -0.0182968
0.72 -0.0203403
0.73 -0.0206365
0.74 -0.0194192
0.75 -0.0166264
0.76 -0.0125335
0.77 -0.00747297
0.78 -0.00178378
0.79 0.00404796
0.8 0.00956779
0.81 0.01437
0.82 0.0180876
0.83 0.0203727
0.84 0.0212108
0.85 0.0202865
0.86 0.0179376
0.87 0.0142081
0.88 0.00945732
0.89 0.00406567
0.9 -0.00155137
0.91 -0.00695195
0.92 -0.0116571
0.93 -0.0153522
0.94 -0.0177385
0.95 -0.0185733
0.96 -0.0179588
0.97 -0.0157224
0.98 -0.0123003
0.99 -0.00787085
1 -0.00288092
1.01 0.00224412
1.02 0.00699312
1.03 0.010997
1.04 0.0137355
1.05 0.0150118
1.06 0.0146017
1.07 0.012379
1.08 0.00859224
1.09 0.00321779
1.1 -0.00316677
1.11 -0.0102225
1.12 -0.0173696
1.13 -0.0240933
1.14 -0.0297146
1.15 -0.0338897
1.16 -0.0359517
1.17 -0.0357597
1.18 -0.0330696
1.19 -0.0277526
1.2 -0.0201774
1.21 -0.0102677
1.22 0.00121557
1.23 0.0139071
1.24 0.0271099
1.25 0.0401988
1.26 0.0523985
1.27 0.0632228
1.28 0.0718723
1.29 0.0780595
1.3 0.0813854
1.31 0.0815174
1.32 0.0787196
1.33 0.0725814
1.34 0.0638259
1.35 0.0525318
1.36 0.0392514
1.37 0.0245321
1.38 0.00885461
1.39 -0.00712248
1.4 -0.0228468
1.41 -0.0378014
1.42 -0.0515215
1.43 -0.0635162
1.44 -0.0736647
1.45 -0.0813577
1.46 -0.0867923
1.47 -0.0896461
1.48 -0.0899602
1.49 -0.0878592
1.5 -0.0831763
1.51 -0.076363
1.52 -0.0673073
1.53 -0.0564353
1.54 -0.043939
1.55 -0.0300926
1.56 -0.0153388
1.57 3.09508e-05
1.58 0.0154969
1.59 0.0306048
1.6 0.0448265
1.61 0.0577251
1.62 0.0685729
1.63 0.0771726
1.64 0.0827451
1.65 0.0851895
1.66 0.0841738
1.67 0.0794227
1.68 0.0713214
1.69 0.0594881
1.7 0.0448142
1.71 0.0275109
1.72 0.0083455
1.73 -0.0119139
1.74 -0.0324285
1.75 -0.0523423
1.76 -0.0706568
1.77 -0.0866953
1.78 -0.0997571
1.79 -0.109163
1.8 -0.115
1.81 -0.116558
1.82 -0.114635
1.83 -0.109289
1.84 -0.101289
1.85 -0.0914836
1.86 -0.0807539
1.87 -0.0701787
1.88 -0.0608693
1.89 -0.0537036
1.9 -0.0495159
1.91 -0.04911
1.92 -0.0524413
1.93 -0.0602545
1.94 -0.0716618
1.95 -0.086493
1.96 -0.103781
1.97 -0.122473
1.98 -0.141331
1.99 -0.159091
2 -0.174182
2.01 -0.185533
2.02 -0.191993
2.03 -0.19239
2.04 -0.186793
2.05 -0.173848
2.06 -0.154716
2.07 -0.129201
2.08 -0.098258
2.09 -0.0630074
2.1 -0.0243117
2.11 0.0161874
2.12 0.0573757
2.13 0.0979486
2.14 0.136914
2.15 0.173326
2.16 0.206992
2.17 0.237232
2.18 0.264705
2.19 0.2896
2.2 0.312759
2.21 0.335074
2.22 0.357587
2.23 0.381199
2.24 0.406982
2.25 0.435417
2.26 0.466899
2.27 0.501519
2.28 0.538567
2.29 0.577467
2.3 0.616678
2.31 0.654623
2.32 0.689293
2.33 0.718952
2.34 0.740676
2.35 0.753642
2.36 0.754834
2.37 0.743927
2.38 0.719836
2.39 0.681774
2.4 0.631497
2.41 0.568083
2.42 0.495096
2.43 0.413775
2.44 0.327174
2.45 0.23819
2.46 0.150056
2.47 0.0655124
2.48 -0.0119677
2.49 -0.0804866
2.5 -0.138013
2.51 -0.182679
2.52 -0.215249
2.53 -0.233795
2.54 -0.241213
2.55 -0.237906
2.56 -0.226341
2.57 -0.209086
2.58 -0.188543
2.59 -0.167696
2.6 -0.149239
2.61 -0.135331
2.62 -0.127821
2.63 -0.128394
2.64 -0.136824
2.65 -0.154459
2.66 -0.179305
2.67 -0.210839
2.68 -0.24705
2.69 -0.285873
2.7 -0.325067
2.71 -0.362485
2.72 -0.3957
2.73 -0.423273
2.74 -0.443845
2.75 -0.456292
2.76 -0.46129
2.77 -0.458063
2.78 -0.448814
2.79 -0.43444
2.8 -0.417075
2.81 -0.398747
2.82 -0.381782
2.83 -0.367912
2.84 -0.359411
2.85 -0.357199
2.86 -0.362199
2.87 -0.374972
2.88 -0.394401
2.89 -0.420539
2.9 -0.45095
2.91 -0.484194
2.92 -0.517897
2.93 -0.549999
2.94 -0.577856
2.95 -0.600219
2.96 -0.614741
2.97 -0.621085
2.98 -0.618706
2.99 -0.607545
3 -0.589308
3.01 -0.564482
3.02 -0.535972
3.03 -0.505684
3.04 -0.476306
3.05 -0.450014
3.06 -0.429687
3.07 -0.416273
3.08 -0.412085
3.09 -0.417006
3.1 -0.431208
3.11 -0.454256
3.12 -0.484004
3.13 -0.519371
3.14 -0.557209
3.15 -0.595214
3.16 -0.630575
3.17 -0.661195
3.18 -0.684207
3.19 -0.699204
3.2 -0.704261
3.21 -0.700217
3.22 -0.687605
3.23 -0.667773
3.24 -0.643426
3.25 -0.616885
3.26 -0.591455
3.27 -0.57027
3.28 -0.556375
3.29 -0.55174
3.3 -0.559571
3.31 -0.579261
3.32 -0.61258
3.33 -0.657493
3.34 -0.712564
3.35 -0.775261
3.36 -0.841779
3.37 -0.908356
3.38 -0.970942
3.39 -1.02526
3.4 -1.06762
3.41 -1.09589
3.42 -1.1062
3.43 -1.10008
3.44 -1.0757
3.45 -1.03633
3.46 -0.984305
3.47 -0.923381
3.48 -0.858628
3.49 -0.795209
3.5 -0.73804
3.51 -0.692398
3.52 -0.662355
3.53 -0.64983
3.54 -0.658382
3.55 -0.684878
3.56 -0.729293
3.57 -0.785653
3.58 -0.848429
3.59 -0.90925
3.6 -0.960185
3.61 -0.988212
3.62 -0.98648
3.63 -0.942514
3.64 -0.847568
3.65 -0.697122
3.66 -0.478618
3.67 -0.198229
3.68 0.15241
3.69 0.564118
3.7 1.03231
3.71 1.54913
3.72 2.09883
3.73 2.67064
3.74 3.24543
3.75 3.80666
3.76 4.33581
3.77 4.81883
3.78 5.23241
3.79 5.57256
3.8 5.81754
3.81 5.96695
3.82 6.0144
3.83 5.95426
3.84 5.79996
3.85 5.54248
3.86 5.20584
3.87 4.79464
3.88 4.32587
3.89 3.81649
3.9 3.28053
3.91 2.73698
3.92 2.20134
3.93 1.68777
3.94 1.2084
3.95 0.775938
3.96 0.392241
3.97 0.0709366
3.98 -0.19502
3.99 -0.401333
4 -0.552657
4.01 -0.656188
4.02 -0.713954
4.03 -0.739201
4.04 -0.736177
4.05 -0.715778
4.06 -0.684984
4.07 -0.651096
4.08 -0.619712
4.09 -0.596424
4.1 -0.583118
4.11 -0.582252
4.12 -0.593802
4.13 -0.616277
4.14 -0.648653
4.15 -0.687016
4.16 -0.728769
4.17 -0.770083
4.18 -0.807814
4.19 -0.83844
4.2 -0.860425
4.21 -0.870139
4.22 -0.868148
4.23 -0.852938
4.24 -0.825008
4.25 -0.785677
4.26 -0.735057
4.27 -0.676137
4.28 -0.609668
4.29 -0.538152
4.3 -0.463105
4.31 -0.386055
4.32 -0.308337
4.33 -0.230922
4.34 -0.154402
4.35 -0.0792169
4.36 -0.00551054
4.37 0.0667661
4.38 0.137469
4.39 0.206784
4.4 0.274365
4.41 0.339999
4.42 0.403105
4.43 0.462647
4.44 0.518038
4.45 0.567139
4.46 0.609453
4.47 0.642966
4.48 0.666368
4.49 0.679032
4.5 0.678596
4.51 0.6662
4.52 0.640027
4.53 0.601469
4.54 0.550972
4.55 0.489276
4.56 0.418953
4.57 0.340704
4.58 0.257765
4.59 0.171925
4.6 0.0856911
4.61 0.00104762
4.62 -0.0795965
4.63 -0.155223
4.64 -0.223842
4.65 -0.285163
4.66 -0.33868
4.67 -0.384053
4.68 -0.422495
4.69 -0.45366
4.7 -0.479537
4.71 -0.500749
4.72 -0.518658
4.73 -0.534466
4.74 -0.549099
4.75 -0.563511
4.76 -0.57832
4.77 -0.593875
4.78 -0.610293
4.79 -0.627485
4.8 -0.645092
4.81 -0.662666
4.82 -0.679684
4.83 -0.69556
4.84 -0.709779
4.85 -0.722061
4.86 -0.731886
4.87 -0.739505
4.88 -0.744726
4.89 -0.748025
4.9 -0.749759
4.91 -0.75043
4.92 -0.75067
4.93 -0.751067
4.94 -0.752129
4.95 -0.754339
4.96 -0.758003
4.97 -0.763182
4.98 -0.770034
4.99 -0.778165
5 -0.787414
5.01 -0.797256
5.02 -0.807261
5.03 -0.81691
5.04 -0.825857
5.05 -0.833607
5.06 -0.840128
5.07 -0.845261
5.08 -0.849137
5.09 -0.852027
5.1 -0.854187
5.11 -0.856066
5.12 -0.857995
5.13 -0.860234
5.14 -0.862869
5.15 -0.865745
5.16 -0.868436
5.17 -0.870018
5.18 -0.869515
5.19 -0.865308
5.2 -0.855571
5.21 -0.838802
5.22 -0.811803
5.23 -0.773998
5.24 -0.72199
5.25 -0.655302
5.26 -0.572669
5.27 -0.472758
5.28 -0.35756
5.29 -0.225631
5.3 -0.0811076
5.31 0.0745261
5.32 0.237402
5.33 0.403476
5.34 0.567918
5.35 0.726311
5.36 0.87261
5.37 1.0027
5.38 1.11206
5.39 1.19526
5.4 1.25219
5.41 1.27588
5.42 1.26982
5.43 1.23144
5.44 1.16256
5.45 1.0668
5.46 0.944691
5.47 0.803676
5.48 0.646305
5.49 0.479344
5.5 0.307738
5.51 0.137225
5.52 -0.0277717
5.53 -0.181231
5.54 -0.321015
5.55 -0.443145
5.56 -0.545842
5.57 -0.629244
5.58 -0.69104
5.59 -0.734972
5.6 -0.760428
5.61 -0.771228
5.62 -0.76965
5.63 -0.758267
5.64 -0.740693
5.65 -0.718917
5.66 -0.695817
5.67 -0.673051
5.68 -0.651971
5.69 -0.633083
5.7 -0.61671
5.71 -0.60204
5.72 -0.588292
5.73 -0.574053
5.74 -0.557936
5.75 -0.53818
5.76 -0.513938
5.77 -0.483227
5.78 -0.446255
5.79 -0.402298
5.8 -0.351838
5.81 -0.296016
5.82 -0.235789
5.83 -0.173509
5.84 -0.111215
5.85 -0.0514328
5.86 0.0034619
5.87 0.0505334
5.88 0.0886406
5.89 0.114232
5.9 0.127703
5.91 0.12728
5.92 0.113007
5.93 0.0860069
5.94 0.0458863
5.95 -0.00415282
5.96 -0.0633908
5.97 -0.128797
5.98 -0.198239
5.99 -0.269281
6 -0.339733
6.01 -0.40725
6.02 -0.470618
6.03 -0.528328
6.04 -0.579679
6.05 -0.62477
6.06 -0.663044
6.07 -0.695955
6.08 -0.723715
6.09 -0.747845
6.1 -0.769389
6.11 -0.789494
6.12 -0.809238
6.13 -0.829492
6.14 -0.85073
6.15 -0.873266
6.16 -0.897004
6.17 -0.921558
6.18 -0.946344
6.19 -0.970602
6.2 -0.993375
6.21 -1.01391
6.22 -1.03147
6.23 -1.04532
6.24 -1.05555
6.25 -1.06156
6.26 -1.06419
6.27 -1.0637
6.28 -1.06095
6.29 -1.05683
6.3 -1.05219
6.31 -1.04779
6.32 -1.04414
6.33 -1.04126
6.34 -1.03872
6.35 -1.03531
6.36 -1.02956
6.37 -1.01827
6.38 -0.999094
6.39 -0.967755
6.4 -0.919971
6.41 -0.852669
6.42 -0.758427
6.43 -0.636938
6.44 -0.480875
6.45 -0.289959
6.46 -0.0620999
6.47 0.205211
6.48 0.506933
6.49 0.845949
6.5 1.21307
6.51 1.60507
6.52 2.01382
6.53 2.43075
6.54 2.84606
6.55 3.25034
6.56 3.63123
6.57 3.97972
6.58 4.28619
6.59 4.53846
6.6 4.73539
6.61 4.86101
6.62 4.92091
6.63 4.90772
6.64 4.82263
6.65 4.6717
6.66 4.45179
6.67 4.17824
6.68 3.85243
6.69 3.48807
6.7 3.09434
6.71 2.68167
6.72 2.26193
6.73 1.84581
6.74 1.4426
6.75 1.06182
6.76 0.71115
6.77 0.394215
6.78 0.119965
6.79 -0.115082
6.8 -0.30511
6.81 -0.454452
6.82 -0.564781
6.83 -0.637813
6.84 -0.681426
6.85 -0.69627
6.86 -0.691392
6.87 -0.670216
6.88 -0.638302
6.89 -0.600299
6.9 -0.559831
6.91 -0.520162
6.92 -0.483766
6.93 -0.451942
6.94 -0.42543
6.95 -0.40463
6.96 -0.388554
6.97 -0.377102
6.98 -0.368673
6.99 -0.362517
7 -0.357605
7.01 -0.353227
7.02 -0.348992
7.03 -0.344838
7.04 -0.341114
7.05 -0.338475
7.06 -0.337808
7.07 -0.340469
7.08 -0.347185
7.09 -0.359931
7.1 -0.378891
7.11 -0.405273
7.12 -0.439385
7.13 -0.480748
7.14 -0.529702
7.15 -0.584306
7.16 -0.643858
7.17 -0.706189
7.18 -0.769484
7.19 -0.831453
7.2 -0.89034
7.21 -0.943421
7.22 -0.989777
7.23 -1.02758
7.24 -1.056
7.25 -1.07523
7.26 -1.08433
7.27 -1.08533
7.28 -1.0784
7.29 -1.06576
7.3 -1.04902
7.31 -1.03013
7.32 -1.01101
7.33 -0.993593
7.34 -0.979028
7.35 -0.968469
7.36 -0.962317
7.37 -0.960156
7.38 -0.961571
7.39 -0.964732
7.4 -0.967827
7.41 -0.96836
7.42 -0.963781
7.43 -0.950625
7.44 -0.927266
7.45 -0.889087
7.46 -0.835847
7.47 -0.764729
7.48 -0.674862
7.49 -0.567124
7.5 -0.439952
7.51 -0.297405
7.52 -0.139916
7.53 0.0282004
7.54 0.20357
7.55 0.381912
7.56 0.558825
7.57 0.728858
7.58 0.888371
7.59 1.03237
7.6 1.15686
7.61 1.26002
7.62 1.33623
7.63 1.38755
7.64 1.40991
7.65 1.40549
7.66 1.37488
7.67 1.31849
7.68 1.24121
7.69 1.1429
7.7 1.02969
7.71 0.903936
7.72 0.769853
7.73 0.631338
7.74 0.491992
7.75 0.355167
7.76 0.224373
7.77 0.101964
7.78 -0.00990619
7.79 -0.108659
7.8 -0.194536
7.81 -0.264481
7.82 -0.320194
7.83 -0.360558
7.84 -0.386116
7.85 -0.398341
7.86 -0.396606
7.87 -0.383952
7.88 -0.360434
7.89 -0.328488
7.9 -0.289652
7.91 -0.245572
7.92 -0.198542
7.93 -0.150275
7.94 -0.1029
7.95 -0.0583607
7.96 -0.0186443
7.97 0.0149637
7.98 0.0398951
7.99 0.056077
8 0.0613213
8.01 0.0556897
8.02 0.0387936
8.03 0.0100515
8.04 -0.0288323
8.05 -0.0785544
8.06 -0.136464
8.07 -0.2017
8.08 -0.27225
8.09 -0.346031
8.1 -0.421134
8.11 -0.495468
8.12 -0.566992
8.13 -0.634183
8.14 -0.695761
8.15 -0.750319
8.16 -0.798121
8.17 -0.837938
8.18 -0.871126
8.19 -0.897842
8.2 -0.919212
8.21 -0.936626
8.22 -0.951023
8.23 -0.963981
8.24 -0.97639
8.25 -0.989046
8.26 -1.00222
8.27 -1.01569
8.28 -1.02869
8.29 -1.03953
8.3 -1.04645
8.31 -1.04666
8.32 -1.03695
8.33 -1.01492
8.34 -0.975047
8.35 -0.916558
8.36 -0.833909
8.37 -0.726135
8.38 -0.591333
8.39 -0.426797
8.4 -0.235792
8.41 -0.0153078
8.42 0.22845
8.43 0.493829
8.44 0.775612
8.45 1.06773
8.46 1.36415
8.47 1.65758
8.48 1.93998
8.49 2.20436
8.5 2.44392
8.51 2.64973
8.52 2.82015
8.53 2.94403
8.54 3.02386
8.55 3.0542
8.56 3.0347
8.57 2.96907
8.58 2.85385
8.59 2.69927
8.6 2.50534
8.61 2.28091
8.62 2.03192
8.63 1.76478
8.64 1.488
8.65 1.208
8.66 0.931997
8.67 0.666252
8.68 0.416538
8.69 0.185901
8.7 -0.0192645
8.71 -0.200295
8.72 -0.352955
8.73 -0.479166
8.74 -0.579644
8.75 -0.654806
8.76 -0.709653
8.77 -0.744218
8.78 -0.764449
8.79 -0.772622
8.8 -0.77256
8.81 -0.767714
8.82 -0.760831
8.83 -0.754598
8.84 -0.751191
8.85 -0.751975
8.86 -0.757858
8.87 -0.769629
8.88 -0.786603
8.89 -0.809113
8.9 -0.835652
8.91 -0.865532
8.92 -0.897467
8.93 -0.930235
8.94 -0.9626
8.95 -0.993601
8.96 -1.02214
8.97 -1.04768
8.98 -1.06977
8.99 -1.08796
9 -1.10269
9.01 -1.11362
9.02 -1.12162
9.03 -1.12693
9.04 -1.13013
9.05 -1.13186
9.06 -1.13246
9.07 -1.13245
9.08 -1.13201
9.09 -1.13125
9.1 -1.13005
9.11 -1.12806
9.12 -1.12491
9.13 -1.1197
9.14 -1.11193
9.15 -1.10058
9.16 -1.08473
9.17 -1.0639
9.18 -1.03656
9.19 -1.00304
9.2 -0.962146
9.21 -0.914245
9.22 -0.859436
9.23 -0.797788
9.24 -0.730738
9.25 -0.658595
9.26 -0.583353
9.27 -0.506307
9.28 -0.429371
9.29 -0.354221
9.3 -0.283276
9.31 -0.21773
9.32 -0.16004
9.33 -0.111253
9.34 -0.0725452
9.35 -0.0455338
9.36 -0.0293795
9.37 -0.0259151
9.38 -0.0331531
9.39 -0.0511174
9.4 -0.0784829
9.41 -0.113308
9.42 -0.154576
9.43 -0.199545
9.44 -0.246594
9.45 -0.293479
9.46 -0.338433
9.47 -0.379446
9.48 -0.415674
9.49 -0.445166
9.5 -0.468122
9.51 -0.483834
9.52 -0.492523
9.53 -0.49513
9.54 -0.491862
9.55 -0.484653
9.56 -0.474415
9.57 -0.462895
9.58 -0.451468
9.59 -0.44171
9.6 -0.43456
9.61 -0.431563
9.62 -0.432913
9.63 -0.439315
9.64 -0.450845
9.65 -0.466988
9.66 -0.487824
9.67 -0.512043
9.68 -0.539215
9.69 -0.568199
9.7 -0.598175
9.71 -0.628302
9.72 -0.657958
9.73 -0.686527
9.74 -0.713869
9.75 -0.739819
9.76 -0.764475
9.77 -0.788098
9.78 -0.810817
9.79 -0.832928
9.8 -0.854378
9.81 -0.874957
9.82 -0.89411
9.83 -0.910589
9.84 -0.923304
9.85 -0.929366
9.86 -0.927038
9.87 -0.912797
9.88 -0.883003
9.89 -0.835389
9.9 -0.763295
9.91 -0.666699
9.92 -0.539218
9.93 -0.380114
9.94 -0.187569
9.95 0.0416237
9.96 0.303237
9.97 0.600887
9.98 0.927254
9.99 1.28043
10 1.6545
10.01 2.04224
10.02 2.43693
10.03 2.8297
10.04 3.21134
10.05 3.57327
10.06 3.90737
10.07 4.20263
10.08 4.45667
10.09 4.65589
10.1 4.80228
10.11 4.88892
10.12 4.91423
10.13 4.8823
10.14 4.78741
10.15 4.64167
10.16 4.44392
10.17 4.20417
10.18 3.92919
10.19 3.62561
10.2 3.30423
10.21 2.97154
10.22 2.63711
10.23 2.30812
10.24 1.99186
10.25 1.69269
10.26 1.41817
10.27 1.16802
10.28 0.94733
10.29 0.754953
10.3 0.590524
10.31 0.454275
10.32 0.340988
10.33 0.251061
10.34 0.178149
10.35 0.119928
10.36 0.072349
10.37 0.0315084
10.38 -0.00540829
10.39 -0.0416685
10.4 -0.0795879
10.41 -0.120929
10.42 -0.166817
10.43 -0.218287
10.44 -0.274845
10.45 -0.336957
10.46 -0.403237
10.47 -0.473035
10.48 -0.545069
10.49 -0.618038
10.5 -0.69056
10.51 -0.761465
10.52 -0.829315
10.53 -0.89317
10.54 -0.952154
10.55 -1.00505
10.56 -1.05196
10.57 -1.09137
10.58 -1.12384
10.59 -1.14867
10.6 -1.16569
10.61 -1.1754
10.62 -1.17682
10.63 -1.17125
10.64 -1.15805
10.65 -1.13806
10.66 -1.11171
10.67 -1.07919
10.68 -1.04181
10.69 -0.999702
10.7 -0.954376
10.71 -0.906614
10.72 -0.857647
10.73 -0.808626
10.74 -0.760945
10.75 -0.71558
10.76 -0.674006
10.77 -0.637104
10.78 -0.605736
10.79 -0.58113
10.8 -0.563044
10.81 -0.552898
10.82 -0.549819
10.83 -0.55417
10.84 -0.565573
10.85 -0.583069
10.86 -0.60669
10.87 -0.634771
10.88 -0.6669
10.89 -0.701782
10.9 -0.738489
10.91 -0.776069
10.92 -0.813611
10.93 -0.850223
10.94 -0.885337
10.95 -0.918319
10.96 -0.948714
10.97 -0.976432
10.98 -1.0009
10.99 -1.02253
11 -1.04099
11.01 -1.05662
11.02 -1.06959
11.03 -1.07998
11.04 -1.08835
11.05 -1.0947
11.06 -1.09964
11.07 -1.10342
11.08 -1.10643
11.09 -1.10908
11.1 -1.11173
11.11 -1.11472
11.12 -1.11839
11.13 -1.12295
11.14 -1.12851
11.15 -1.13513
11.16 -1.1425
11.17 -1.1503
11.18 -1.15782
11.19 -1.16415
11.2 -1.16798
11.21 -1.16813
11.22 -1.16209
11.23 -1.14882
11.24 -1.12523
11.25 -1.08964
11.26 -1.03998
11.27 -0.972938
11.28 -0.888741
11.29 -0.782982
11.3 -0.657254
11.31 -0.509789
11.32 -0.340828
11.33 -0.152726
11.34 0.0551688
11.35 0.277578
11.36 0.512814
11.37 0.755766
11.38 1.00205
11.39 1.2461
11.4 1.4832
11.41 1.70608
11.42 1.91101
11.43 2.09187
11.44 2.24361
11.45 2.36475
11.46 2.44749
11.47 2.49532
11.48 2.50306
11.49 2.47346
11.5 2.40791
11.51 2.30664
11.52 2.17677
11.53 2.01843
11.54 1.83995
11.55 1.64507
11.56 1.43971
11.57 1.22949
11.58 1.0197
11.59 0.814873
11.6 0.61986
11.61 0.437668
11.62 0.270662
11.63 0.12184
11.64 -0.0100885
11.65 -0.122465
11.66 -0.218456
11.67 -0.298373
11.68 -0.364315
11.69 -0.419332
11.7 -0.464745
11.71 -0.504342
11.72 -0.539875
11.73 -0.573854
11.74 -0.607929
11.75 -0.643576
11.76 -0.681338
11.77 -0.721823
11.78 -0.764406
11.79 -0.808464
11.8 -0.852676
11.81 -0.89563
11.82 -0.935067
11.83 -0.969602
11.84 -0.996604
11.85 -1.01451
11.86 -1.02175
11.87 -1.01586
11.88 -0.997248
11.89 -0.963014
11.9 -0.914629
11.91 -0.851188
11.92 -0.773117
11.93 -0.682186
11.94 -0.57793
11.95 -0.463711
11.96 -0.340191
11.97 -0.210119
11.98 -0.0756186
11.99 0.0609453
12 0.197095
12.01 0.330033
12.02 0.457699
12.03 0.57751
12.04 0.687058
12.05 0.785279
12.06 0.868535
12.07 0.937541
12.08 0.989418
12.09 1.02439
12.1 1.04221
12.11 1.04166
12.12 1.02522
12.13 0.991328
12.14 0.94331
12.15 0.881773
12.16 0.808719
12.17 0.72687
12.18 0.63759
12.19 0.544222
12.2 0.448703
12.21 0.353586
12.22 0.260839
12.23 0.17273
12.24 0.0901386
12.25 0.0152036
12.26 -0.0522635
12.27 -0.11152
12.28 -0.1627
12.29 -0.206879
12.3 -0.244091
12.31 -0.276475
12.32 -0.304871
12.33 -0.331087
12.34 -0.356513
12.35 -0.382627
12.36 -0.410408
12.37 -0.441056
12.38 -0.474704
12.39 -0.511588
12.4 -0.551293
12.41 -0.592871
