# xPDFsuite Configuration #
[PDF]
wavelength = 0.1432
dataformat = twotheta
inputfile = 1_1Pd_CeO2_cycle-00269.chi
backgroundfile = background-00000.chi
mode = xray
bgscale = 1.007
composition = CeO2
outputtype = gr
qmaxinst = 28.8974762299
qmin = 0.5
qmax = 27.9
rmax = 50.0
rmin = 0.0
rstep = 0.01
rpoly = 1.8657

[Misc]
inputdir = G:/SankarDec16/1Pd/Chi
savedir = D:/DATA/APS_CeO2/1Pd
backgroundfilefull = G:/SankarDec16/Background/background-00000.chi

#### start data
#S 1
#L r($\AA$)  G($\AA^{-2}$)
0 0
0.01 -0.00778717
0.02 -0.0149898
0.03 -0.0210057
0.04 -0.025381
0.05 -0.0278628
0.06 -0.0280439
0.07 -0.0261931
0.08 -0.0221775
0.09 -0.0165111
0.1 -0.00954881
0.11 -0.00183467
0.12 0.0060352
0.13 0.0133945
0.14 0.0197666
0.15 0.0245706
0.16 0.0274631
0.17 0.0283044
0.18 0.0268125
0.19 0.0233803
0.2 0.0180168
0.21 0.0113199
0.22 0.00373024
0.23 -0.00414194
0.24 -0.0117335
0.25 -0.0183265
0.26 -0.0235733
0.27 -0.0269408
0.28 -0.0282116
0.29 -0.0273657
0.3 -0.0242592
0.31 -0.0193915
0.32 -0.0129133
0.33 -0.00548014
0.34 0.00240187
0.35 0.0100831
0.36 0.017059
0.37 0.0225924
0.38 0.0264804
0.39 0.0282621
0.4 0.0278556
0.41 0.0253625
0.42 0.0207836
0.43 0.0147028
0.44 0.00740588
0.45 -0.00042321
0.46 -0.00823557
0.47 -0.0153712
0.48 -0.0214072
0.49 -0.0256204
0.5 -0.0279623
0.51 -0.0280652
0.52 -0.0259873
0.53 -0.0219471
0.54 -0.0160912
0.55 -0.00906175
0.56 -0.00126713
0.57 0.0066106
0.58 0.0140048
0.59 0.0202744
0.6 0.025098
0.61 0.0277991
0.62 0.0284863
0.63 0.0269023
0.64 0.0232433
0.65 0.0178355
0.66 0.0109654
0.67 0.00330462
0.68 -0.00463395
0.69 -0.0122007
0.7 -0.0188369
0.71 -0.0239492
0.72 -0.0273327
0.73 -0.0283882
0.74 -0.0273765
0.75 -0.0241625
0.76 -0.0190716
0.77 -0.0125223
0.78 -0.00492746
0.79 0.00304278
0.8 0.0107962
0.81 0.0177459
0.82 0.0233685
0.83 0.0271472
0.84 0.0290034
0.85 0.0284461
0.86 0.0258755
0.87 0.021286
0.88 0.0151163
0.89 0.00785613
0.9 2.30261e-05
0.91 -0.00775061
0.92 -0.0148275
0.93 -0.0207182
0.94 -0.0249697
0.95 -0.0271792
0.96 -0.0274073
0.97 -0.0253186
0.98 -0.0214394
0.99 -0.0159169
1 -0.00929625
1.01 -0.00212354
1.02 0.004977
1.03 0.0114518
1.04 0.016626
1.05 0.0201474
1.06 0.0216584
1.07 0.0209028
1.08 0.0181104
1.09 0.0131395
1.1 0.00666801
1.11 -0.000964052
1.12 -0.00907041
1.13 -0.0170202
1.14 -0.0240184
1.15 -0.0295793
1.16 -0.0329068
1.17 -0.0337642
1.18 -0.0318309
1.19 -0.0269243
1.2 -0.0194479
1.21 -0.00931773
1.22 0.00258
1.23 0.0157926
1.24 0.0294812
1.25 0.0428959
1.26 0.0550924
1.27 0.0655178
1.28 0.0732266
1.29 0.0779348
1.3 0.0792312
1.31 0.0768249
1.32 0.0711255
1.33 0.0618366
1.34 0.0499085
1.35 0.0356324
1.36 0.0197997
1.37 0.00314304
1.38 -0.0135683
1.39 -0.0296469
1.4 -0.0443074
1.41 -0.0571098
1.42 -0.0676019
1.43 -0.0753896
1.44 -0.0806233
1.45 -0.0828684
1.46 -0.0827057
1.47 -0.0801305
1.48 -0.0755513
1.49 -0.0693745
1.5 -0.0618537
1.51 -0.0534989
1.52 -0.0445384
1.53 -0.0353082
1.54 -0.0260011
1.55 -0.0167832
1.56 -0.00773441
1.57 0.00104906
1.58 0.0095733
1.59 0.0177841
1.6 0.0256442
1.61 0.0331014
1.62 0.039982
1.63 0.0462079
1.64 0.051467
1.65 0.0555933
1.66 0.0583028
1.67 0.0592457
1.68 0.0583804
1.69 0.0551687
1.7 0.0498426
1.71 0.0421726
1.72 0.0323246
1.73 0.0205781
1.74 0.00710438
1.75 -0.00746351
1.76 -0.0227201
1.77 -0.0380029
1.78 -0.0527451
1.79 -0.0662809
1.8 -0.0782643
1.81 -0.0879387
1.82 -0.0953611
1.83 -0.10018
1.84 -0.10251
1.85 -0.102641
1.86 -0.100754
1.87 -0.0975798
1.88 -0.0935808
1.89 -0.089508
1.9 -0.0859807
1.91 -0.083693
1.92 -0.0829747
1.93 -0.0845125
1.94 -0.0881457
1.95 -0.0940498
1.96 -0.101901
1.97 -0.111213
1.98 -0.12143
1.99 -0.131707
2 -0.141131
2.01 -0.148839
2.02 -0.153954
2.03 -0.155488
2.04 -0.153209
2.05 -0.145909
2.06 -0.134074
2.07 -0.117239
2.08 -0.0957654
2.09 -0.0702254
2.1 -0.0408562
2.11 -0.00883512
2.12 0.0253566
2.13 0.0606928
2.14 0.0964961
2.15 0.132078
2.16 0.16703
2.17 0.200916
2.18 0.233814
2.19 0.265749
2.2 0.297063
2.21 0.328166
2.22 0.359594
2.23 0.391766
2.24 0.425219
2.25 0.460106
2.26 0.496501
2.27 0.534202
2.28 0.5726
2.29 0.610831
2.3 0.64777
2.31 0.681896
2.32 0.71155
2.33 0.735357
2.34 0.750726
2.35 0.75725
2.36 0.752282
2.37 0.735797
2.38 0.706971
2.39 0.66526
2.4 0.612411
2.41 0.547728
2.42 0.474545
2.43 0.394097
2.44 0.309241
2.45 0.222659
2.46 0.137409
2.47 0.0559623
2.48 -0.0183961
2.49 -0.0839568
2.5 -0.138827
2.51 -0.181259
2.52 -0.212023
2.53 -0.229271
2.54 -0.235792
2.55 -0.23196
2.56 -0.22014
2.57 -0.202796
2.58 -0.18224
2.59 -0.161361
2.6 -0.142787
2.61 -0.128642
2.62 -0.120767
2.63 -0.12087
2.64 -0.128784
2.65 -0.145935
2.66 -0.170415
2.67 -0.201808
2.68 -0.238195
2.69 -0.277571
2.7 -0.317798
2.71 -0.35669
2.72 -0.391867
2.73 -0.421801
2.74 -0.445066
2.75 -0.460428
2.76 -0.468419
2.77 -0.468108
2.78 -0.461558
2.79 -0.449506
2.8 -0.433959
2.81 -0.416877
2.82 -0.400449
2.83 -0.386475
2.84 -0.377158
2.85 -0.373538
2.86 -0.376609
2.87 -0.38704
2.88 -0.40388
2.89 -0.427303
2.9 -0.455031
2.91 -0.485754
2.92 -0.517208
2.93 -0.547389
2.94 -0.57374
2.95 -0.594964
2.96 -0.608735
2.97 -0.614621
2.98 -0.61201
2.99 -0.60075
3 -0.582444
3.01 -0.557487
3.02 -0.52872
3.03 -0.497996
3.04 -0.467993
3.05 -0.440919
3.06 -0.419699
3.07 -0.405385
3.08 -0.400412
3.09 -0.404791
3.1 -0.418832
3.11 -0.442261
3.12 -0.472973
3.13 -0.510079
3.14 -0.550347
3.15 -0.591521
3.16 -0.630691
3.17 -0.665613
3.18 -0.693272
3.19 -0.713003
3.2 -0.722627
3.21 -0.722721
3.22 -0.713556
3.23 -0.696181
3.24 -0.673216
3.25 -0.646628
3.26 -0.619848
3.27 -0.595882
3.28 -0.577897
3.29 -0.568067
3.3 -0.569741
3.31 -0.582722
3.32 -0.609072
3.33 -0.647171
3.34 -0.695947
3.35 -0.7533
3.36 -0.815623
3.37 -0.879653
3.38 -0.941291
3.39 -0.996495
3.4 -1.04154
3.41 -1.0741
3.42 -1.09027
3.43 -1.09108
3.44 -1.07448
3.45 -1.04322
3.46 -0.999227
3.47 -0.945757
3.48 -0.887553
3.49 -0.829193
3.5 -0.775499
3.51 -0.731385
3.52 -0.700837
3.53 -0.685851
3.54 -0.68987
3.55 -0.710214
3.56 -0.74694
3.57 -0.794579
3.58 -0.847969
3.59 -0.899204
3.6 -0.940782
3.61 -0.960216
3.62 -0.950937
3.63 -0.900897
3.64 -0.801596
3.65 -0.648595
3.66 -0.429635
3.67 -0.150603
3.68 0.196727
3.69 0.60353
3.7 1.06542
3.71 1.57483
3.72 2.11641
3.73 2.67969
3.74 3.24594
3.75 3.79896
3.76 4.32053
3.77 4.79682
3.78 5.20483
3.79 5.54058
3.8 5.78255
3.81 5.93025
3.82 5.9773
3.83 5.91802
3.84 5.7656
3.85 5.511
3.86 5.17795
3.87 4.77088
3.88 4.30656
3.89 3.80176
3.9 3.27032
3.91 2.73105
3.92 2.19927
3.93 1.68904
3.94 1.21238
3.95 0.781893
3.96 0.399467
3.97 0.0785978
3.98 -0.187624
3.99 -0.394922
4 -0.547853
4.01 -0.653491
4.02 -0.713779
4.03 -0.74177
4.04 -0.741572
4.05 -0.723895
4.06 -0.695554
4.07 -0.663648
4.08 -0.633682
4.09 -0.610998
4.1 -0.597493
4.11 -0.595486
4.12 -0.604948
4.13 -0.624456
4.14 -0.652972
4.15 -0.686823
4.16 -0.723508
4.17 -0.759476
4.18 -0.791813
4.19 -0.817298
4.2 -0.834621
4.21 -0.840541
4.22 -0.835744
4.23 -0.819004
4.24 -0.790951
4.25 -0.752912
4.26 -0.705168
4.27 -0.650428
4.28 -0.589452
4.29 -0.524391
4.3 -0.456499
4.31 -0.386952
4.32 -0.316707
4.33 -0.246284
4.34 -0.175969
4.35 -0.105794
4.36 -0.0356192
4.37 0.0347273
4.38 0.105428
4.39 0.176432
4.4 0.247535
4.41 0.318177
4.42 0.387542
4.43 0.454253
4.44 0.517257
4.45 0.573977
4.46 0.62346
4.47 0.663227
4.48 0.691566
4.49 0.707626
4.5 0.708609
4.51 0.695808
4.52 0.667168
4.53 0.624378
4.54 0.568069
4.55 0.49928
4.56 0.421087
4.57 0.334591
4.58 0.243571
4.59 0.150306
4.6 0.057779
4.61 -0.0317273
4.62 -0.115294
4.63 -0.191978
4.64 -0.25947
4.65 -0.317718
4.66 -0.366351
4.67 -0.405272
4.68 -0.436204
4.69 -0.459146
4.7 -0.476685
4.71 -0.489934
4.72 -0.500777
4.73 -0.510772
4.74 -0.521403
4.75 -0.533626
4.76 -0.548445
4.77 -0.566037
4.78 -0.586444
4.79 -0.6094
4.8 -0.634051
4.81 -0.659674
4.82 -0.685118
4.83 -0.709326
4.84 -0.731231
4.85 -0.750148
4.86 -0.764966
4.87 -0.775846
4.88 -0.782144
4.89 -0.784422
4.9 -0.783035
4.91 -0.778567
4.92 -0.772106
4.93 -0.764402
4.94 -0.756603
4.95 -0.749608
4.96 -0.744283
4.97 -0.741131
4.98 -0.740911
4.99 -0.74343
5 -0.749033
5.01 -0.757235
5.02 -0.767711
5.03 -0.779996
5.04 -0.793379
5.05 -0.807371
5.06 -0.821342
5.07 -0.834837
5.08 -0.847476
5.09 -0.859086
5.1 -0.869392
5.11 -0.878523
5.12 -0.886311
5.13 -0.892834
5.14 -0.897971
5.15 -0.90138
5.16 -0.902847
5.17 -0.901279
5.18 -0.896164
5.19 -0.886027
5.2 -0.869432
5.21 -0.845266
5.22 -0.810717
5.23 -0.765605
5.24 -0.706954
5.25 -0.634574
5.26 -0.547471
5.27 -0.444595
5.28 -0.32789
5.29 -0.1962
5.3 -0.0533755
5.31 0.0990935
5.32 0.257574
5.33 0.418312
5.34 0.576703
5.35 0.728732
5.36 0.868663
5.37 0.992722
5.38 1.09669
5.39 1.17546
5.4 1.22901
5.41 1.25075
5.42 1.24403
5.43 1.20642
5.44 1.13966
5.45 1.04717
5.46 0.929395
5.47 0.793414
5.48 0.641566
5.49 0.480252
5.5 0.314119
5.51 0.148547
5.52 -0.0122434
5.53 -0.162632
5.54 -0.30051
5.55 -0.422115
5.56 -0.525691
5.57 -0.611271
5.58 -0.676563
5.59 -0.724947
5.6 -0.755659
5.61 -0.772122
5.62 -0.776284
5.63 -0.770303
5.64 -0.757492
5.65 -0.739341
5.66 -0.71859
5.67 -0.696565
5.68 -0.674494
5.69 -0.652933
5.7 -0.632076
5.71 -0.611517
5.72 -0.59058
5.73 -0.568342
5.74 -0.543819
5.75 -0.515783
5.76 -0.48384
5.77 -0.446684
5.78 -0.40482
5.79 -0.358049
5.8 -0.307148
5.81 -0.253304
5.82 -0.19782
5.83 -0.142581
5.84 -0.0896659
5.85 -0.041006
5.86 0.00148413
5.87 0.0354903
5.88 0.0605566
5.89 0.073941
5.9 0.0766208
5.91 0.0675693
5.92 0.0473885
5.93 0.0174411
5.94 -0.0220089
5.95 -0.06817
5.96 -0.120021
5.97 -0.175125
5.98 -0.231761
5.99 -0.288075
6 -0.342763
6.01 -0.394254
6.02 -0.442235
6.03 -0.486073
6.04 -0.525886
6.05 -0.562249
6.06 -0.59552
6.07 -0.626947
6.08 -0.657299
6.09 -0.687644
6.1 -0.718748
6.11 -0.751322
6.12 -0.785492
6.13 -0.821498
6.14 -0.858713
6.15 -0.89655
6.16 -0.933937
6.17 -0.969825
6.18 -1.00256
6.19 -1.03137
6.2 -1.05454
6.21 -1.07158
6.22 -1.08188
6.23 -1.08495
6.24 -1.0818
6.25 -1.07227
6.26 -1.05839
6.27 -1.04126
6.28 -1.02276
6.29 -1.00457
6.3 -0.988654
6.31 -0.976004
6.32 -0.968004
6.33 -0.964595
6.34 -0.965397
6.35 -0.969164
6.36 -0.973597
6.37 -0.975326
6.38 -0.970838
6.39 -0.955185
6.4 -0.923107
6.41 -0.870744
6.42 -0.78967
6.43 -0.679179
6.44 -0.531127
6.45 -0.345125
6.46 -0.118932
6.47 0.15004
6.48 0.45615
6.49 0.802235
6.5 1.17817
6.51 1.58021
6.52 1.99944
6.53 2.42664
6.54 2.85122
6.55 3.26338
6.56 3.65012
6.57 4.00231
6.58 4.3102
6.59 4.56154
6.6 4.75566
6.61 4.87667
6.62 4.93084
6.63 4.91124
6.64 4.81965
6.65 4.66263
6.66 4.43764
6.67 4.16024
6.68 3.83225
6.69 3.46741
6.7 3.07487
6.71 2.66504
6.72 2.24933
6.73 1.83823
6.74 1.44046
6.75 1.0651
6.76 0.719329
6.77 0.406418
6.78 0.134806
6.79 -0.0990324
6.8 -0.289592
6.81 -0.441058
6.82 -0.554979
6.83 -0.63285
6.84 -0.682076
6.85 -0.702928
6.86 -0.70391
6.87 -0.687956
6.88 -0.660134
6.89 -0.624803
6.9 -0.58508
6.91 -0.544331
6.92 -0.50477
6.93 -0.467977
6.94 -0.434913
6.95 -0.406307
6.96 -0.381731
6.97 -0.361572
6.98 -0.344815
6.99 -0.331268
7 -0.320425
7.01 -0.311862
7.02 -0.305736
7.03 -0.301821
7.04 -0.30074
7.05 -0.302812
7.06 -0.308677
7.07 -0.319336
7.08 -0.334907
7.09 -0.356878
7.1 -0.384812
7.11 -0.419356
7.12 -0.460292
7.13 -0.506853
7.14 -0.558848
7.15 -0.614491
7.16 -0.672826
7.17 -0.732008
7.18 -0.790463
7.19 -0.846243
7.2 -0.898161
7.21 -0.94395
7.22 -0.983255
7.23 -1.01475
7.24 -1.03805
7.25 -1.05361
7.26 -1.06089
7.27 -1.06175
7.28 -1.05654
7.29 -1.04711
7.3 -1.03484
7.31 -1.02128
7.32 -1.00787
7.33 -0.996037
7.34 -0.986506
7.35 -0.97997
7.36 -0.976477
7.37 -0.975479
7.38 -0.976248
7.39 -0.977221
7.4 -0.976556
7.41 -0.972162
7.42 -0.961832
7.43 -0.942558
7.44 -0.913194
7.45 -0.869693
7.46 -0.812174
7.47 -0.738275
7.48 -0.647413
7.49 -0.540509
7.5 -0.416262
7.51 -0.278333
7.52 -0.127111
7.53 0.0335974
7.54 0.200841
7.55 0.370883
7.56 0.539835
7.57 0.702901
7.58 0.856784
7.59 0.996975
7.6 1.11975
7.61 1.2233
7.62 1.30226
7.63 1.3582
7.64 1.38699
7.65 1.39024
7.66 1.36807
7.67 1.3203
7.68 1.25128
7.69 1.16018
7.7 1.05278
7.71 0.930946
7.72 0.798626
7.73 0.65973
7.74 0.517624
7.75 0.376166
7.76 0.238969
7.77 0.108989
7.78 -0.0111285
7.79 -0.118184
7.8 -0.211868
7.81 -0.288405
7.82 -0.34916
7.83 -0.392516
7.84 -0.418758
7.85 -0.429397
7.86 -0.423579
7.87 -0.404891
7.88 -0.37351
7.89 -0.332511
7.9 -0.283954
7.91 -0.230143
7.92 -0.173945
7.93 -0.117842
7.94 -0.064311
7.95 -0.0158331
7.96 0.0253199
7.97 0.0578924
7.98 0.079037
7.99 0.0892455
8 0.0864113
8.01 0.071245
8.02 0.0438798
8.03 0.00438262
8.04 -0.044925
8.05 -0.103985
8.06 -0.16973
8.07 -0.240736
8.08 -0.314649
8.09 -0.389355
8.1 -0.462595
8.11 -0.532781
8.12 -0.597865
8.13 -0.656914
8.14 -0.709105
8.15 -0.753598
8.16 -0.791277
8.17 -0.821568
8.18 -0.846297
8.19 -0.866156
8.2 -0.882649
8.21 -0.897263
8.22 -0.91132
8.23 -0.92602
8.24 -0.942334
8.25 -0.960592
8.26 -0.980712
8.27 -1.00203
8.28 -1.02323
8.29 -1.04212
8.3 -1.05648
8.31 -1.06308
8.32 -1.05835
8.33 -1.03976
8.34 -1.00145
8.35 -0.942897
8.36 -0.858461
8.37 -0.747514
8.38 -0.608412
8.39 -0.438775
8.4 -0.242302
8.41 -0.0163607
8.42 0.232471
8.43 0.502192
8.44 0.7873
8.45 1.08161
8.46 1.37884
8.47 1.67185
8.48 1.95255
8.49 2.2142
8.5 2.45019
8.51 2.65185
8.52 2.81788
8.53 2.93743
8.54 3.01328
8.55 3.04027
8.56 3.01826
8.57 2.95106
8.58 2.83542
8.59 2.68145
8.6 2.48919
8.61 2.26732
8.62 2.02161
8.63 1.75825
8.64 1.48551
8.65 1.20958
8.66 0.937395
8.67 0.675017
8.68 0.428018
8.69 0.199355
8.7 -0.00477787
8.71 -0.185621
8.72 -0.339026
8.73 -0.46678
8.74 -0.569499
8.75 -0.647481
8.76 -0.705509
8.77 -0.743473
8.78 -0.767106
8.79 -0.778513
8.8 -0.781345
8.81 -0.77895
8.82 -0.773893
8.83 -0.768875
8.84 -0.765955
8.85 -0.766541
8.86 -0.771558
8.87 -0.781813
8.88 -0.796756
8.89 -0.816739
8.9 -0.840423
8.91 -0.867201
8.92 -0.895913
8.93 -0.925444
8.94 -0.954683
8.95 -0.982748
8.96 -1.00866
8.97 -1.03195
8.98 -1.05223
8.99 -1.06914
9 -1.08311
9.01 -1.09392
9.02 -1.10236
9.03 -1.10871
9.04 -1.11355
9.05 -1.11742
9.06 -1.12069
9.07 -1.12373
9.08 -1.12668
9.09 -1.1295
9.1 -1.13198
9.11 -1.1336
9.12 -1.1339
9.13 -1.13179
9.14 -1.12667
9.15 -1.1174
9.16 -1.10294
9.17 -1.08279
9.18 -1.05528
9.19 -1.02083
9.2 -0.978194
9.21 -0.927855
9.22 -0.870005
9.23 -0.804821
9.24 -0.733939
9.25 -0.657819
9.26 -0.578666
9.27 -0.497964
9.28 -0.417827
9.29 -0.340054
9.3 -0.267301
9.31 -0.200746
9.32 -0.143013
9.33 -0.0950985
9.34 -0.0581499
9.35 -0.0337512
9.36 -0.0208565
9.37 -0.0212218
9.38 -0.0325936
9.39 -0.0548123
9.4 -0.0863112
9.41 -0.124958
9.42 -0.169459
9.43 -0.216981
9.44 -0.26567
9.45 -0.313236
9.46 -0.357864
9.47 -0.397477
9.48 -0.431396
9.49 -0.457639
9.5 -0.476673
9.51 -0.48792
9.52 -0.491835
9.53 -0.489586
9.54 -0.48164
9.55 -0.470124
9.56 -0.456216
9.57 -0.441811
9.58 -0.42842
9.59 -0.417786
9.6 -0.410775
9.61 -0.40909
9.62 -0.412718
9.63 -0.422333
9.64 -0.437844
9.65 -0.458518
9.66 -0.484263
9.67 -0.5135
9.68 -0.545565
9.69 -0.579086
9.7 -0.613042
9.71 -0.64635
9.72 -0.678338
9.73 -0.708135
9.74 -0.735682
9.75 -0.760731
9.76 -0.783433
9.77 -0.804195
9.78 -0.823177
9.79 -0.840959
9.8 -0.857616
9.81 -0.873197
9.82 -0.887356
9.83 -0.899091
9.84 -0.907471
9.85 -0.909875
9.86 -0.904632
9.87 -0.888375
9.88 -0.857532
9.89 -0.80979
9.9 -0.73858
9.91 -0.643672
9.92 -0.518665
9.93 -0.362614
9.94 -0.173543
9.95 0.0519357
9.96 0.309795
9.97 0.603846
9.98 0.92692
9.99 1.27727
10 1.64909
10.01 2.03519
10.02 2.42895
10.03 2.82141
10.04 3.20338
10.05 3.56613
10.06 3.90145
10.07 4.1982
10.08 4.45382
10.09 4.65458
10.1 4.80233
10.11 4.89004
10.12 4.91602
10.13 4.88434
10.14 4.78919
10.15 4.64279
10.16 4.44396
10.17 4.20287
10.18 3.92636
10.19 3.62123
10.2 3.29838
10.21 2.9645
10.22 2.62925
10.23 2.2999
10.24 1.98384
10.25 1.68539
10.26 1.41218
10.27 1.16378
10.28 0.945229
10.29 0.755197
10.3 0.593163
10.31 0.459152
10.32 0.347789
10.33 0.259215
10.34 0.187001
10.35 0.128653
10.36 0.0800426
10.37 0.0373038
10.38 -0.00245539
10.39 -0.0422772
10.4 -0.0844068
10.41 -0.130348
10.42 -0.180996
10.43 -0.237092
10.44 -0.2979
10.45 -0.363517
10.46 -0.432399
10.47 -0.503628
10.48 -0.575758
10.49 -0.647497
10.5 -0.717265
10.51 -0.784169
10.52 -0.846769
10.53 -0.904431
10.54 -0.956538
10.55 -1.0022
10.56 -1.04186
10.57 -1.07442
10.58 -1.10074
10.59 -1.12046
10.6 -1.13372
10.61 -1.14109
10.62 -1.14193
10.63 -1.13731
10.64 -1.12674
10.65 -1.11079
10.66 -1.08968
10.67 -1.06335
10.68 -1.03271
10.69 -0.997563
10.7 -0.959018
10.71 -0.917498
10.72 -0.873882
10.73 -0.829135
10.74 -0.78427
10.75 -0.740346
10.76 -0.698634
10.77 -0.660166
10.78 -0.625926
10.79 -0.597283
10.8 -0.574363
10.81 -0.558796
10.82 -0.55011
10.83 -0.548975
10.84 -0.555353
10.85 -0.568505
10.86 -0.588821
10.87 -0.614648
10.88 -0.645802
10.89 -0.680926
10.9 -0.719044
10.91 -0.759149
10.92 -0.800045
10.93 -0.840728
10.94 -0.880291
10.95 -0.917875
10.96 -0.952739
10.97 -0.984591
10.98 -1.01257
10.99 -1.03702
11 -1.05742
11.01 -1.07409
11.02 -1.08722
11.03 -1.09688
11.04 -1.10382
11.05 -1.10808
11.06 -1.11051
11.07 -1.11149
11.08 -1.11162
11.09 -1.11143
11.1 -1.11148
11.11 -1.11217
11.12 -1.11396
11.13 -1.11708
11.14 -1.12164
11.15 -1.12769
11.16 -1.13484
11.17 -1.14273
11.18 -1.15051
11.19 -1.1572
11.2 -1.16139
11.21 -1.16184
11.22 -1.15595
11.23 -1.14267
11.24 -1.1189
11.25 -1.08296
11.26 -1.03284
11.27 -0.965268
11.28 -0.880556
11.29 -0.774382
11.3 -0.648405
11.31 -0.50094
11.32 -0.33229
11.33 -0.144823
11.34 0.062046
11.35 0.283104
11.36 0.516659
11.37 0.757681
11.38 1.00186
11.39 1.24372
11.4 1.47865
11.41 1.69951
11.42 1.90263
11.43 2.082
11.44 2.23266
11.45 2.35314
11.46 2.43573
11.47 2.48385
11.48 2.49235
11.49 2.46391
11.5 2.39985
11.51 2.30034
11.52 2.17237
11.53 2.016
11.54 1.83946
11.55 1.64639
11.56 1.44262
11.57 1.23374
11.58 1.02495
11.59 0.820779
11.6 0.626052
11.61 0.4438
11.62 0.27641
11.63 0.126896
11.64 -0.00595245
11.65 -0.119457
11.66 -0.216699
11.67 -0.297946
11.68 -0.365234
11.69 -0.421567
11.7 -0.468207
11.71 -0.508916
11.72 -0.5454
11.73 -0.580151
11.74 -0.614802
11.75 -0.6508
11.76 -0.68871
11.77 -0.729105
11.78 -0.771395
11.79 -0.814953
11.8 -0.858478
11.81 -0.900588
11.82 -0.939038
11.83 -0.972496
11.84 -0.998363
11.85 -1.01513
11.86 -1.02126
11.87 -1.01438
11.88 -0.994917
11.89 -0.960049
11.9 -0.911273
11.91 -0.847732
11.92 -0.769884
11.93 -0.679485
11.94 -0.57611
11.95 -0.463051
11.96 -0.340959
11.97 -0.212504
11.98 -0.0797406
11.99 0.0550584
12 0.189506
12.01 0.320926
12.02 0.447334
12.03 0.566249
12.04 0.675346
12.05 0.773579
12.06 0.857412
12.07 0.927484
12.08 0.98095
12.09 1.01795
12.1 1.03814
12.11 1.04023
12.12 1.02657
12.13 0.99545
12.14 0.95007
12.15 0.890906
12.16 0.819832
12.17 0.739511
12.18 0.651162
12.19 0.558173
12.2 0.46241
12.21 0.366491
12.22 0.27244
12.23 0.182584
12.24 0.09795
12.25 0.0207629
12.26 -0.0490141
12.27 -0.110524
12.28 -0.163779
12.29 -0.209783
12.3 -0.248455
12.31 -0.281947
12.32 -0.311047
12.33 -0.33761
12.34 -0.363072
12.35 -0.388969
12.36 -0.416387
12.37 -0.446607
12.38 -0.479864
12.39 -0.516476
12.4 -0.556099
12.41 -0.597809
