# xPDFsuite Configuration #
[PDF]
wavelength = 0.1432
dataformat = twotheta
inputfile = 1_1Pd_CeO2_cycle-00166.chi
backgroundfile = background-00000.chi
mode = xray
bgscale = 1.007
composition = CeO2
outputtype = gr
qmaxinst = 28.8974762299
qmin = 0.5
qmax = 27.9
rmax = 50.0
rmin = 0.0
rstep = 0.01
rpoly = 1.8657

[Misc]
inputdir = G:/SankarDec16/1Pd/Chi
savedir = D:/DATA/APS_CeO2/1Pd
backgroundfilefull = G:/SankarDec16/Background/background-00000.chi

#### start data
#S 1
#L r($\AA$)  G($\AA^{-2}$)
0 0
0.01 -0.00747448
0.02 -0.0143868
0.03 -0.0201582
0.04 -0.0243524
0.05 -0.0267265
0.06 -0.0268897
0.07 -0.0251012
0.08 -0.0212344
0.09 -0.0157844
0.1 -0.0090931
0.11 -0.00168475
0.12 0.00586775
0.13 0.0129229
0.14 0.0190238
0.15 0.0236127
0.16 0.0263613
0.17 0.0271373
0.18 0.0256721
0.19 0.0223458
0.2 0.01717
0.21 0.0107216
0.22 0.00342567
0.23 -0.00412939
0.24 -0.0114033
0.25 -0.0177049
0.26 -0.0227036
0.27 -0.0258886
0.28 -0.0270549
0.29 -0.0261872
0.3 -0.0231518
0.31 -0.0184322
0.32 -0.0121782
0.33 -0.00502191
0.34 0.00254798
0.35 0.00990578
0.36 0.0165691
0.37 0.0218289
0.38 0.0254965
0.39 0.0271323
0.4 0.0266638
0.41 0.0241941
0.42 0.0197311
0.43 0.0138397
0.44 0.00680118
0.45 -0.000725855
0.46 -0.00821198
0.47 -0.0150226
0.48 -0.0207561
0.49 -0.0247186
0.5 -0.0268723
0.51 -0.0268694
0.52 -0.0247745
0.53 -0.0208043
0.54 -0.015109
0.55 -0.00830878
0.56 -0.00080397
0.57 0.00675053
0.58 0.0138093
0.59 0.0197579
0.6 0.0242947
0.61 0.0267735
0.62 0.0273097
0.63 0.0256643
0.64 0.0220361
0.65 0.0167465
0.66 0.0100815
0.67 0.00268837
0.68 -0.00493206
0.69 -0.0121586
0.7 -0.0184553
0.71 -0.0232564
0.72 -0.0263749
0.73 -0.0272422
0.74 -0.0261221
0.75 -0.0228957
0.76 -0.0178871
0.77 -0.0115067
0.78 -0.00416284
0.79 0.00350112
0.8 0.0109088
0.81 0.0175024
0.82 0.0227828
0.83 0.0262613
0.84 0.027875
0.85 0.0271636
0.86 0.024526
0.87 0.0199705
0.88 0.0139309
0.89 0.00688571
0.9 -0.000655586
0.91 -0.00808915
0.92 -0.0147963
0.93 -0.0203168
0.94 -0.024222
0.95 -0.0261362
0.96 -0.026133
0.97 -0.0239054
0.98 -0.0199741
0.99 -0.0144968
1 -0.0080097
1.01 -0.00104476
1.02 0.00578598
1.03 0.0119572
1.04 0.0168153
1.05 0.0200347
1.06 0.0212802
1.07 0.0203186
1.08 0.0173875
1.09 0.0123664
1.1 0.00592122
1.11 -0.00160621
1.12 -0.00954606
1.13 -0.0172873
1.14 -0.0240573
1.15 -0.0293979
1.16 -0.0325431
1.17 -0.0332791
1.18 -0.0313076
1.19 -0.0264671
1.2 -0.0191585
1.21 -0.00931633
1.22 0.00219972
1.23 0.0149446
1.24 0.0281092
1.25 0.0409746
1.26 0.0526348
1.27 0.062571
1.28 0.0698841
1.29 0.0743171
1.3 0.0754888
1.31 0.0731361
1.32 0.0676604
1.33 0.0587945
1.34 0.0474471
1.35 0.0339026
1.36 0.0189128
1.37 0.00316899
1.38 -0.0126044
1.39 -0.0277687
1.4 -0.0415932
1.41 -0.0536764
1.42 -0.0636052
1.43 -0.0710225
1.44 -0.076075
1.45 -0.0783665
1.46 -0.0784353
1.47 -0.0762742
1.48 -0.0722513
1.49 -0.066729
1.5 -0.0599159
1.51 -0.052266
1.52 -0.0439515
1.53 -0.035263
1.54 -0.0263501
1.55 -0.0173373
1.56 -0.00830429
1.57 0.000694512
1.58 0.00962425
1.59 0.0184294
1.6 0.0270317
1.61 0.0353329
1.62 0.043111
1.63 0.0502275
1.64 0.0563075
1.65 0.061133
1.66 0.0643691
1.67 0.0656137
1.68 0.0648203
1.69 0.0613909
1.7 0.0555982
1.71 0.0471993
1.72 0.0363948
1.73 0.0235071
1.74 0.0087407
1.75 -0.00720146
1.76 -0.0238645
1.77 -0.0405241
1.78 -0.0565612
1.79 -0.0712541
1.8 -0.0842352
1.81 -0.0946877
1.82 -0.102685
1.83 -0.107852
1.84 -0.110318
1.85 -0.110398
1.86 -0.108286
1.87 -0.10477
1.88 -0.100336
1.89 -0.0957864
1.9 -0.0917781
1.91 -0.0890453
1.92 -0.0879415
1.93 -0.0891897
1.94 -0.0926285
1.95 -0.0984463
1.96 -0.10631
1.97 -0.115717
1.98 -0.126092
1.99 -0.136557
2 -0.146165
2.01 -0.15402
2.02 -0.159206
2.03 -0.160697
2.04 -0.158244
2.05 -0.150589
2.06 -0.138226
2.07 -0.120665
2.08 -0.0982689
2.09 -0.0716251
2.1 -0.040968
2.11 -0.00752031
2.12 0.0282237
2.13 0.0651889
2.14 0.10266
2.15 0.1399
2.16 0.176458
2.17 0.21183
2.18 0.246063
2.19 0.27912
2.2 0.311298
2.21 0.342981
2.22 0.374633
2.23 0.406692
2.24 0.439629
2.25 0.473622
2.26 0.508739
2.27 0.544781
2.28 0.5812
2.29 0.617128
2.3 0.651542
2.31 0.682964
2.32 0.709828
2.33 0.730838
2.34 0.743513
2.35 0.74752
2.36 0.740335
2.37 0.722
2.38 0.691771
2.39 0.649191
2.4 0.595993
2.41 0.531594
2.42 0.459231
2.43 0.380164
2.44 0.297172
2.45 0.212844
2.46 0.130162
2.47 0.0514424
2.48 -0.0201513
2.49 -0.0830589
2.5 -0.135523
2.51 -0.175952
2.52 -0.205181
2.53 -0.221547
2.54 -0.227807
2.55 -0.224423
2.56 -0.213732
2.57 -0.198126
2.58 -0.179887
2.59 -0.161716
2.6 -0.146134
2.61 -0.135061
2.62 -0.130164
2.63 -0.132934
2.64 -0.143067
2.65 -0.16172
2.66 -0.186951
2.67 -0.218166
2.68 -0.253404
2.69 -0.290689
2.7 -0.327817
2.71 -0.362818
2.72 -0.393347
2.73 -0.418127
2.74 -0.43592
2.75 -0.445743
2.76 -0.448359
2.77 -0.443152
2.78 -0.432349
2.79 -0.416957
2.8 -0.399149
2.81 -0.380955
2.82 -0.364782
2.83 -0.35227
2.84 -0.345747
2.85 -0.346036
2.86 -0.354017
2.87 -0.370187
2.88 -0.393306
2.89 -0.423354
2.9 -0.457743
2.91 -0.494912
2.92 -0.532337
2.93 -0.567835
2.94 -0.598569
2.95 -0.62323
2.96 -0.63927
2.97 -0.64632
2.98 -0.643756
2.99 -0.631448
3 -0.611204
3.01 -0.583425
3.02 -0.551247
3.03 -0.516642
3.04 -0.482502
3.05 -0.451213
3.06 -0.425883
3.07 -0.407687
3.08 -0.399219
3.09 -0.400547
3.1 -0.412041
3.11 -0.433474
3.12 -0.462678
3.13 -0.498807
3.14 -0.538501
3.15 -0.579475
3.16 -0.618728
3.17 -0.653936
3.18 -0.682027
3.19 -0.702263
3.2 -0.712424
3.21 -0.713056
3.22 -0.704417
3.23 -0.687558
3.24 -0.665114
3.25 -0.639079
3.26 -0.612904
3.27 -0.589632
3.28 -0.572446
3.29 -0.563531
3.3 -0.566244
3.31 -0.58036
3.32 -0.607921
3.33 -0.647253
3.34 -0.697231
3.35 -0.755678
3.36 -0.818936
3.37 -0.883638
3.38 -0.945661
3.39 -1.00089
3.4 -1.04558
3.41 -1.07742
3.42 -1.09247
3.43 -1.09186
3.44 -1.07357
3.45 -1.04047
3.46 -0.994585
3.47 -0.9393
3.48 -0.879464
3.49 -0.819821
3.5 -0.765251
3.51 -0.720793
3.52 -0.690489
3.53 -0.676336
3.54 -0.681837
3.55 -0.704191
3.56 -0.743442
3.57 -0.793963
3.58 -0.850471
3.59 -0.904895
3.6 -0.949574
3.61 -0.971814
3.62 -0.964931
3.63 -0.916702
3.64 -0.818524
3.65 -0.665919
3.66 -0.446513
3.67 -0.166315
3.68 0.182932
3.69 0.592234
3.7 1.05708
3.71 1.56974
3.72 2.11465
3.73 2.68113
3.74 3.25027
3.75 3.80567
3.76 4.32895
3.77 4.80621
3.78 5.21428
3.79 5.54928
3.8 5.78962
3.81 5.93497
3.82 5.97907
3.83 5.91642
3.84 5.76042
3.85 5.50228
3.86 5.16594
3.87 4.75609
3.88 4.28972
3.89 3.78369
3.9 3.25209
3.91 2.71366
3.92 2.18384
3.93 1.67656
3.94 1.20372
3.95 0.777779
3.96 0.400356
3.97 0.0847274
3.98 -0.176322
3.99 -0.378795
4 -0.527532
4.01 -0.629797
4.02 -0.687857
4.03 -0.714751
4.04 -0.714827
4.05 -0.698694
4.06 -0.673139
4.07 -0.645179
4.08 -0.620032
4.09 -0.602919
4.1 -0.595353
4.11 -0.599397
4.12 -0.614686
4.13 -0.639539
4.14 -0.672554
4.15 -0.709955
4.16 -0.748934
4.17 -0.78593
4.18 -0.81797
4.19 -0.841809
4.2 -0.856365
4.21 -0.858399
4.22 -0.848968
4.23 -0.827033
4.24 -0.793538
4.25 -0.750088
4.26 -0.697289
4.27 -0.638049
4.28 -0.573433
4.29 -0.5057
4.3 -0.436229
4.31 -0.366301
4.32 -0.296737
4.33 -0.228153
4.34 -0.160539
4.35 -0.093834
4.36 -0.0276523
4.37 0.0384129
4.38 0.104782
4.39 0.171631
4.4 0.238995
4.41 0.306466
4.42 0.373367
4.43 0.438452
4.44 0.500615
4.45 0.5574
4.46 0.607671
4.47 0.648918
4.48 0.679278
4.49 0.697738
4.5 0.701364
4.51 0.691271
4.52 0.665255
4.53 0.624883
4.54 0.57069
4.55 0.503626
4.56 0.426776
4.57 0.341175
4.58 0.250693
4.59 0.157628
4.6 0.0650431
4.61 -0.0246949
4.62 -0.108597
4.63 -0.185638
4.64 -0.253449
4.65 -0.311938
4.66 -0.360715
4.67 -0.39968
4.68 -0.430588
4.69 -0.453473
4.7 -0.470978
4.71 -0.484277
4.72 -0.495314
4.73 -0.505683
4.74 -0.516924
4.75 -0.529975
4.76 -0.545852
4.77 -0.564671
4.78 -0.586416
4.79 -0.610728
4.8 -0.636658
4.81 -0.663345
4.82 -0.689556
4.83 -0.714114
4.84 -0.735874
4.85 -0.754133
4.86 -0.767703
4.87 -0.776852
4.88 -0.78095
4.89 -0.780715
4.9 -0.77664
4.91 -0.769501
4.92 -0.760565
4.93 -0.750843
4.94 -0.741611
4.95 -0.733986
4.96 -0.728956
4.97 -0.727052
4.98 -0.729168
4.99 -0.734922
5 -0.744657
5.01 -0.757631
5.02 -0.773306
5.03 -0.790927
5.04 -0.809487
5.05 -0.828112
5.06 -0.845937
5.07 -0.862168
5.08 -0.876202
5.09 -0.887784
5.1 -0.896381
5.11 -0.902353
5.12 -0.905452
5.13 -0.906084
5.14 -0.904368
5.15 -0.900302
5.16 -0.894093
5.17 -0.885092
5.18 -0.873174
5.19 -0.857305
5.2 -0.836403
5.21 -0.809529
5.22 -0.774273
5.23 -0.730256
5.24 -0.674702
5.25 -0.607105
5.26 -0.526257
5.27 -0.430796
5.28 -0.32217
5.29 -0.19881
5.3 -0.064058
5.31 0.081075
5.32 0.233401
5.33 0.389428
5.34 0.545029
5.35 0.696082
5.36 0.83713
5.37 0.964142
5.38 1.07274
5.39 1.15757
5.4 1.21811
5.41 1.24741
5.42 1.24829
5.43 1.21785
5.44 1.15736
5.45 1.06995
5.46 0.95558
5.47 0.821374
5.48 0.669375
5.49 0.506188
5.5 0.336581
5.51 0.166149
5.52 -0.000428967
5.53 -0.157228
5.54 -0.301618
5.55 -0.429419
5.56 -0.538439
5.57 -0.628434
5.58 -0.696679
5.59 -0.746592
5.6 -0.777164
5.61 -0.792009
5.62 -0.79321
5.63 -0.783148
5.64 -0.765556
5.65 -0.742248
5.66 -0.716417
5.67 -0.689787
5.68 -0.663964
5.69 -0.639725
5.7 -0.617628
5.71 -0.597168
5.72 -0.577836
5.73 -0.558455
5.74 -0.537847
5.75 -0.514487
5.76 -0.48756
5.77 -0.455345
5.78 -0.41794
5.79 -0.374724
5.8 -0.326126
5.81 -0.27317
5.82 -0.216818
5.83 -0.159166
5.84 -0.102188
5.85 -0.048173
5.86 0.000681647
5.87 0.0416569
5.88 0.0738117
5.89 0.0938647
5.9 0.102368
5.91 0.0977931
5.92 0.080369
5.93 0.0513106
5.94 0.0104967
5.95 -0.0389779
5.96 -0.0961982
5.97 -0.158276
5.98 -0.223141
5.99 -0.288458
6 -0.352343
6.01 -0.412602
6.02 -0.468419
6.03 -0.518586
6.04 -0.562782
6.05 -0.601404
6.06 -0.634359
6.07 -0.663225
6.08 -0.688625
6.09 -0.712119
6.1 -0.734843
6.11 -0.758013
6.12 -0.782404
6.13 -0.8089
6.14 -0.837452
6.15 -0.868091
6.16 -0.900235
6.17 -0.933052
6.18 -0.965393
6.19 -0.996161
6.2 -1.02384
6.21 -1.04744
6.22 -1.06601
6.23 -1.07855
6.24 -1.08541
6.25 -1.08581
6.26 -1.08114
6.27 -1.0719
6.28 -1.05946
6.29 -1.04525
6.3 -1.03071
6.31 -1.01711
6.32 -1.00562
6.33 -0.996642
6.34 -0.990107
6.35 -0.985219
6.36 -0.980323
6.37 -0.972606
6.38 -0.959157
6.39 -0.935593
6.4 -0.897138
6.41 -0.840166
6.42 -0.756716
6.43 -0.645846
6.44 -0.49959
6.45 -0.317166
6.46 -0.0960347
6.47 0.166795
6.48 0.466242
6.49 0.805638
6.5 1.17536
6.51 1.57214
6.52 1.98745
6.53 2.41222
6.54 2.83621
6.55 3.24933
6.56 3.63868
6.57 3.99471
6.58 4.30735
6.59 4.56392
6.6 4.76326
6.61 4.88895
6.62 4.94691
6.63 4.92976
6.64 4.83903
6.65 4.6812
6.66 4.45352
6.67 4.17191
6.68 3.83823
6.69 3.46669
6.7 3.06687
6.71 2.64965
6.72 2.22694
6.73 1.80982
6.74 1.40732
6.75 1.02897
6.76 0.682168
6.77 0.370183
6.78 0.101665
6.79 -0.127363
6.8 -0.311473
6.81 -0.455387
6.82 -0.561082
6.83 -0.630587
6.84 -0.671792
6.85 -0.685578
6.86 -0.680744
6.87 -0.660645
6.88 -0.630559
6.89 -0.594819
6.9 -0.556716
6.91 -0.519174
6.92 -0.484302
6.93 -0.453169
6.94 -0.426328
6.95 -0.404011
6.96 -0.385364
6.97 -0.370239
6.98 -0.357397
6.99 -0.346318
7 -0.336377
7.01 -0.327233
7.02 -0.318998
7.03 -0.311876
7.04 -0.306692
7.05 -0.304247
7.06 -0.30558
7.07 -0.31217
7.08 -0.324443
7.09 -0.344384
7.1 -0.371612
7.11 -0.406994
7.12 -0.450277
7.13 -0.500483
7.14 -0.557289
7.15 -0.61841
7.16 -0.682522
7.17 -0.747261
7.18 -0.810604
7.19 -0.870067
7.2 -0.924254
7.21 -0.970354
7.22 -1.00813
7.23 -1.0361
7.24 -1.05407
7.25 -1.06284
7.26 -1.06216
7.27 -1.05454
7.28 -1.04083
7.29 -1.02354
7.3 -1.00458
7.31 -0.986124
7.32 -0.96982
7.33 -0.957732
7.34 -0.950348
7.35 -0.948507
7.36 -0.951984
7.37 -0.959755
7.38 -0.970717
7.39 -0.982514
7.4 -0.992658
7.41 -0.99831
7.42 -0.996615
7.43 -0.983803
7.44 -0.958523
7.45 -0.915963
7.46 -0.856517
7.47 -0.777646
7.48 -0.679072
7.49 -0.56226
7.5 -0.426304
7.51 -0.275785
7.52 -0.111794
7.53 0.0610069
7.54 0.238934
7.55 0.417397
7.56 0.592241
7.57 0.757808
7.58 0.911057
7.59 1.04725
7.6 1.16294
7.61 1.25687
7.62 1.32405
7.63 1.36703
7.64 1.38238
7.65 1.37261
7.66 1.33863
7.67 1.28113
7.68 1.20481
7.69 1.10974
7.7 1.00149
7.71 0.882204
7.72 0.755592
7.73 0.625033
7.74 0.493589
7.75 0.36413
7.76 0.239621
7.77 0.1221
7.78 0.0134543
7.79 -0.0839988
7.8 -0.170309
7.81 -0.242576
7.82 -0.302016
7.83 -0.347296
7.84 -0.3785
7.85 -0.396645
7.86 -0.400603
7.87 -0.393022
7.88 -0.373471
7.89 -0.344144
7.9 -0.306378
7.91 -0.261632
7.92 -0.212423
7.93 -0.160394
7.94 -0.10815
7.95 -0.0578973
7.96 -0.0120875
7.97 0.0275602
7.98 0.0579494
7.99 0.0786835
8 0.0870852
8.01 0.0830332
8.02 0.0659741
8.03 0.0351763
8.04 -0.0073785
8.05 -0.0624272
8.06 -0.126794
8.07 -0.199325
8.08 -0.27751
8.09 -0.358808
8.1 -0.440749
8.11 -0.520912
8.12 -0.596734
8.13 -0.666502
8.14 -0.728756
8.15 -0.781912
8.16 -0.82652
8.17 -0.861262
8.18 -0.888038
8.19 -0.907269
8.2 -0.920571
8.21 -0.929801
8.22 -0.93643
8.23 -0.94241
8.24 -0.949139
8.25 -0.957647
8.26 -0.968419
8.27 -0.981445
8.28 -0.995734
8.29 -1.00975
8.3 -1.02126
8.31 -1.02727
8.32 -1.02417
8.33 -1.00915
8.34 -0.976243
8.35 -0.924322
8.36 -0.847421
8.37 -0.744336
8.38 -0.612967
8.39 -0.450408
8.4 -0.260069
8.41 -0.0388092
8.42 0.206818
8.43 0.475023
8.44 0.760282
8.45 1.05621
8.46 1.35648
8.47 1.65351
8.48 1.93898
8.49 2.20574
8.5 2.44687
8.51 2.65333
8.52 2.82363
8.53 2.94659
8.54 3.02497
8.55 3.0535
8.56 3.03207
8.57 2.96463
8.58 2.84799
8.59 2.69254
8.6 2.49848
8.61 2.27473
8.62 2.02724
8.63 1.7624
8.64 1.48854
8.65 1.21199
8.66 0.939634
8.67 0.677521
8.68 0.431122
8.69 0.203258
8.7 -2.27276e-05
8.71 -0.180122
8.72 -0.333063
8.73 -0.460751
8.74 -0.563895
8.75 -0.642883
8.76 -0.70244
8.77 -0.742488
8.78 -0.768595
8.79 -0.782764
8.8 -0.788466
8.81 -0.788879
8.82 -0.786349
8.83 -0.783452
8.84 -0.782045
8.85 -0.783466
8.86 -0.78858
8.87 -0.798137
8.88 -0.811714
8.89 -0.829653
8.9 -0.850839
8.91 -0.874786
8.92 -0.900533
8.93 -0.927142
8.94 -0.953704
8.95 -0.979449
8.96 -1.00356
8.97 -1.02559
8.98 -1.04519
8.99 -1.062
9 -1.07631
9.01 -1.08785
9.02 -1.09722
9.03 -1.10456
9.04 -1.11028
9.05 -1.11481
9.06 -1.11834
9.07 -1.12125
9.08 -1.12359
9.09 -1.12538
9.1 -1.12649
9.11 -1.12652
9.12 -1.12519
9.13 -1.12159
9.14 -1.11533
9.15 -1.10546
9.16 -1.09112
9.17 -1.07187
9.18 -1.04624
9.19 -1.01453
9.2 -0.975515
9.21 -0.929478
9.22 -0.876424
9.23 -0.816273
9.24 -0.75036
9.25 -0.678774
9.26 -0.603448
9.27 -0.525522
9.28 -0.44683
9.29 -0.369074
9.3 -0.294582
9.31 -0.224749
9.32 -0.162079
9.33 -0.107861
9.34 -0.0634854
9.35 -0.0308488
9.36 -0.00936316
9.37 -0.00122518
9.38 -0.0046309
9.39 -0.0198912
9.4 -0.0458748
9.41 -0.0806663
9.42 -0.123486
9.43 -0.171344
9.44 -0.22267
9.45 -0.274931
9.46 -0.326127
9.47 -0.373957
9.48 -0.417204
9.49 -0.453546
9.5 -0.482849
9.51 -0.504049
9.52 -0.51706
9.53 -0.522697
9.54 -0.520825
9.55 -0.513543
9.56 -0.501611
9.57 -0.487008
9.58 -0.471291
9.59 -0.456256
9.6 -0.443242
9.61 -0.434092
9.62 -0.429403
9.63 -0.43023
9.64 -0.436995
9.65 -0.449376
9.66 -0.46782
9.67 -0.490944
9.68 -0.518514
9.69 -0.549232
9.7 -0.58215
9.71 -0.616265
9.72 -0.65059
9.73 -0.684264
9.74 -0.716748
9.75 -0.747548
9.76 -0.776415
9.77 -0.803395
9.78 -0.828246
9.79 -0.851287
9.8 -0.872242
9.81 -0.891014
9.82 -0.907134
9.83 -0.91947
9.84 -0.927273
9.85 -0.92785
9.86 -0.919858
9.87 -0.900079
9.88 -0.86522
9.89 -0.813247
9.9 -0.737874
9.91 -0.639105
9.92 -0.510804
9.93 -0.352175
9.94 -0.161357
9.95 0.064912
9.96 0.322708
9.97 0.615767
9.98 0.937147
9.99 1.28519
10 1.6543
10.01 2.0375
10.02 2.42836
10.03 2.81812
10.04 3.19777
10.05 3.55873
10.06 3.89284
10.07 4.1891
10.08 4.44485
10.09 4.6464
10.1 4.79545
10.11 4.88485
10.12 4.91275
10.13 4.88304
10.14 4.78974
10.15 4.6449
10.16 4.44718
10.17 4.20663
10.18 3.93003
10.19 3.62411
10.2 3.29985
10.21 2.96392
10.22 2.62616
10.23 2.29397
10.24 1.97492
10.25 1.67353
10.26 1.39766
10.27 1.14704
10.28 0.926937
10.29 0.736149
10.3 0.574247
10.31 0.441379
10.32 0.33206
10.33 0.246514
10.34 0.178076
10.35 0.124147
10.36 0.0803738
10.37 0.0426477
10.38 0.00780643
10.39 -0.0274297
10.4 -0.0656044
10.41 -0.108416
10.42 -0.156932
10.43 -0.212109
10.44 -0.27314
10.45 -0.340314
10.46 -0.411856
10.47 -0.4868
10.48 -0.563495
10.49 -0.640374
10.5 -0.715625
10.51 -0.788021
10.52 -0.855813
10.53 -0.918087
10.54 -0.973986
10.55 -1.02232
10.56 -1.06354
10.57 -1.09626
10.58 -1.1215
10.59 -1.13888
10.6 -1.1487
10.61 -1.15178
10.62 -1.14764
10.63 -1.13775
10.64 -1.12186
10.65 -1.1009
10.66 -1.07532
10.67 -1.04541
10.68 -1.01214
10.69 -0.975619
10.7 -0.936864
10.71 -0.896358
10.72 -0.854878
10.73 -0.813171
10.74 -0.772124
10.75 -0.73244
10.76 -0.695146
10.77 -0.660955
10.78 -0.630596
10.79 -0.605132
10.8 -0.584588
10.81 -0.570315
10.82 -0.561912
10.83 -0.559988
10.84 -0.564599
10.85 -0.575207
10.86 -0.592333
10.87 -0.614653
10.88 -0.642226
10.89 -0.673991
10.9 -0.709216
10.91 -0.747182
10.92 -0.786769
10.93 -0.827234
10.94 -0.867572
10.95 -0.90696
10.96 -0.944539
10.97 -0.979798
10.98 -1.01172
10.99 -1.0403
11 -1.06477
11.01 -1.08515
11.02 -1.10139
11.03 -1.11328
11.04 -1.12151
11.05 -1.12587
11.06 -1.12735
11.07 -1.1263
11.08 -1.12347
11.09 -1.11964
11.1 -1.11555
11.11 -1.11194
11.12 -1.10956
11.13 -1.1089
11.14 -1.1103
11.15 -1.1141
11.16 -1.11991
11.17 -1.12759
11.18 -1.13613
11.19 -1.14452
11.2 -1.15116
11.21 -1.15456
11.22 -1.15188
11.23 -1.14177
11.24 -1.12082
11.25 -1.0871
11.26 -1.03842
11.27 -0.971281
11.28 -0.886048
11.29 -0.778271
11.3 -0.649849
11.31 -0.499222
11.32 -0.326974
11.33 -0.135779
11.34 0.0745779
11.35 0.29859
11.36 0.534175
11.37 0.776075
11.38 1.0198
11.39 1.25966
11.4 1.49121
11.41 1.7072
11.42 1.90436
11.43 2.07688
11.44 2.22022
11.45 2.33333
11.46 2.40903
11.47 2.45109
11.48 2.45491
11.49 2.42342
11.5 2.35821
11.51 2.25971
11.52 2.13471
11.53 1.98342
11.54 1.81359
11.55 1.62861
11.56 1.43383
11.57 1.23432
11.58 1.03468
11.59 0.838983
11.6 0.65143
11.61 0.474687
11.62 0.310847
11.63 0.162566
11.64 0.0288427
11.65 -0.087875
11.66 -0.190149
11.67 -0.278015
11.68 -0.353004
11.69 -0.417559
11.7 -0.472354
11.71 -0.520608
11.72 -0.563408
11.73 -0.602844
11.74 -0.640235
11.75 -0.67666
11.76 -0.71289
11.77 -0.749278
11.78 -0.785769
11.79 -0.821995
11.8 -0.857192
11.81 -0.890565
11.82 -0.92051
11.83 -0.94625
11.84 -0.965855
11.85 -0.978229
11.86 -0.982157
11.87 -0.975653
11.88 -0.95891
11.89 -0.929343
11.9 -0.887854
11.91 -0.833308
11.92 -0.765577
11.93 -0.68578
11.94 -0.592797
11.95 -0.489311
11.96 -0.375246
11.97 -0.25281
11.98 -0.12369
11.99 0.0102963
12 0.14652
12.01 0.282615
12.02 0.415982
12.03 0.543891
12.04 0.663432
12.05 0.772887
12.06 0.868048
12.07 0.948873
12.08 1.01178
12.09 1.05638
12.1 1.08192
12.11 1.0866
12.12 1.07293
12.13 1.03884
12.14 0.988063
12.15 0.921269
12.16 0.840841
12.17 0.750082
12.18 0.650786
12.19 0.547041
12.2 0.441378
12.21 0.336958
12.22 0.23623
12.23 0.142034
12.24 0.0553071
12.25 -0.0213299
12.26 -0.0883472
12.27 -0.144994
12.28 -0.191687
12.29 -0.229968
12.3 -0.260194
12.31 -0.285143
12.32 -0.306132
12.33 -0.325496
12.34 -0.345033
12.35 -0.3667
12.36 -0.391547
12.37 -0.421165
12.38 -0.45547
12.39 -0.494693
12.4 -0.538177
12.41 -0.584584
