# xPDFsuite Configuration #
[PDF]
wavelength = 0.1432
dataformat = twotheta
inputfile = 1_1Pd_CeO2_cycle-00002.chi
backgroundfile = background-00000.chi
mode = xray
bgscale = 1.007
composition = CeO2
outputtype = gr
qmaxinst = 28.8974762299
qmin = 0.5
qmax = 27.9
rmax = 50.0
rmin = 0.0
rstep = 0.01
rpoly = 1.8657

[Misc]
inputdir = G:/SankarDec16/1Pd/Chi
savedir = D:/DATA/APS_CeO2/1Pd
backgroundfilefull = G:/SankarDec16/Background/background-00000.chi

#### start data
#S 1
#L r($\AA$)  G($\AA^{-2}$)
0 0
0.01 -0.0072827
0.02 -0.0140163
0.03 -0.0196355
0.04 -0.0237144
0.05 -0.0260164
0.06 -0.0261607
0.07 -0.0244014
0.08 -0.0206165
0.09 -0.0152905
0.1 -0.00875891
0.11 -0.00153491
0.12 0.00582221
0.13 0.0126846
0.14 0.0186082
0.15 0.0230489
0.16 0.0256889
0.17 0.0264016
0.18 0.0249284
0.19 0.0216433
0.2 0.0165624
0.21 0.0102508
0.22 0.00312661
0.23 -0.00423382
0.24 -0.0113044
0.25 -0.0174086
0.26 -0.0222288
0.27 -0.0252687
0.28 -0.0263333
0.29 -0.0254129
0.3 -0.0223837
0.31 -0.0177219
0.32 -0.0115809
0.33 -0.00458002
0.34 0.00280066
0.35 0.00994866
0.36 0.0163966
0.37 0.0214521
0.38 0.0249392
0.39 0.0264335
0.4 0.0258729
0.41 0.0233651
0.42 0.0189276
0.43 0.0131162
0.44 0.0062148
0.45 -0.00113285
0.46 -0.00840753
0.47 -0.0149899
0.48 -0.0204943
0.49 -0.0242458
0.5 -0.026219
0.51 -0.0260825
0.52 -0.0239104
0.53 -0.0199233
0.54 -0.01428
0.55 -0.00758946
0.56 -0.00025244
0.57 0.00709315
0.58 0.0139143
0.59 0.0196143
0.6 0.0239086
0.61 0.0261722
0.62 0.0265324
0.63 0.0247674
0.64 0.0210844
0.65 0.015807
0.66 0.00922833
0.67 0.00198141
0.68 -0.00543497
0.69 -0.0124194
0.7 -0.0184511
0.71 -0.0229847
0.72 -0.0258507
0.73 -0.0265049
0.74 -0.0252212
0.75 -0.0218982
0.76 -0.0168666
0.77 -0.0105369
0.78 -0.00332167
0.79 0.00415315
0.8 0.0113168
0.81 0.0176345
0.82 0.022625
0.83 0.0258227
0.84 0.0271829
0.85 0.026272
0.86 0.0234965
0.87 0.0188822
0.88 0.0128666
0.89 0.0059248
0.9 -0.00143257
0.91 -0.00862338
0.92 -0.015039
0.93 -0.0202456
0.94 -0.0238353
0.95 -0.0254593
0.96 -0.0252083
0.97 -0.022806
0.98 -0.0187768
0.99 -0.0132958
1 -0.00689966
1.01 -0.000113451
1.02 0.00645303
1.03 0.0123005
1.04 0.0167893
1.05 0.0196231
1.06 0.0204907
1.07 0.0191875
1.08 0.0159684
1.09 0.0107449
1.1 0.00418399
1.11 -0.00335612
1.12 -0.0112078
1.13 -0.0187693
1.14 -0.0252725
1.15 -0.0302875
1.16 -0.0330634
1.17 -0.0334156
1.18 -0.031069
1.19 -0.0258879
1.2 -0.0182878
1.21 -0.00822868
1.22 0.00343259
1.23 0.0162423
1.24 0.0293995
1.25 0.0421993
1.26 0.05375
1.27 0.063559
1.28 0.0707512
1.29 0.0750945
1.3 0.0762306
1.31 0.0739197
1.32 0.0685676
1.33 0.0599286
1.34 0.0488939
1.35 0.0357461
1.36 0.0212145
1.37 0.00596419
1.38 -0.00931312
1.39 -0.0240128
1.4 -0.0374486
1.41 -0.04925
1.42 -0.0590386
1.43 -0.0664936
1.44 -0.0717625
1.45 -0.074493
1.46 -0.0751919
1.47 -0.0738623
1.48 -0.0708461
1.49 -0.0664736
1.5 -0.060929
1.51 -0.0546129
1.52 -0.0476598
1.53 -0.0403117
1.54 -0.0326765
1.55 -0.0248319
1.56 -0.0168373
1.57 -0.00869191
1.58 -0.000437129
1.59 0.0079026
1.6 0.0162497
1.61 0.0244974
1.62 0.0324389
1.63 0.0398981
1.64 0.0465108
1.65 0.0520263
1.66 0.056099
1.67 0.0583145
1.68 0.058599
1.69 0.0563558
1.7 0.0518268
1.71 0.0447616
1.72 0.0353406
1.73 0.0238673
1.74 0.0105244
1.75 -0.00401024
1.76 -0.0193149
1.77 -0.0346945
1.78 -0.0495657
1.79 -0.0632521
1.8 -0.0754026
1.81 -0.0852698
1.82 -0.0929193
1.83 -0.09802
1.84 -0.100705
1.85 -0.101278
1.86 -0.0999436
1.87 -0.0974262
1.88 -0.0941977
1.89 -0.0909842
1.9 -0.0883826
1.91 -0.0870486
1.92 -0.087268
1.93 -0.0896646
1.94 -0.0940353
1.95 -0.100491
1.96 -0.108664
1.97 -0.118043
1.98 -0.128018
1.99 -0.137782
2 -0.146396
2.01 -0.15306
2.02 -0.156936
2.03 -0.1571
2.04 -0.153402
2.05 -0.144714
2.06 -0.131599
2.07 -0.11367
2.08 -0.0913477
2.09 -0.0652312
2.1 -0.0356084
2.11 -0.00360944
2.12 0.0302793
2.13 0.0651131
2.14 0.100279
2.15 0.135181
2.16 0.169501
2.17 0.202917
2.18 0.235571
2.19 0.267575
2.2 0.299311
2.21 0.331187
2.22 0.363757
2.23 0.397341
2.24 0.432422
2.25 0.469016
2.26 0.507067
2.27 0.54621
2.28 0.58572
2.29 0.624517
2.3 0.66144
2.31 0.694826
2.32 0.722992
2.33 0.744597
2.34 0.757038
2.35 0.760106
2.36 0.751248
2.37 0.730686
2.38 0.697809
2.39 0.652346
2.4 0.596235
2.41 0.529131
2.42 0.454438
2.43 0.373627
2.44 0.289621
2.45 0.205066
2.46 0.123085
2.47 0.0458661
2.48 -0.0233933
2.49 -0.0833356
2.5 -0.132351
2.51 -0.169063
2.52 -0.194544
2.53 -0.207411
2.54 -0.210623
2.55 -0.204901
2.56 -0.192761
2.57 -0.176684
2.58 -0.159148
2.59 -0.14272
2.6 -0.130009
2.61 -0.122719
2.62 -0.12238
2.63 -0.130273
2.64 -0.145815
2.65 -0.169902
2.66 -0.20032
2.67 -0.236198
2.68 -0.275344
2.69 -0.315639
2.7 -0.354632
2.71 -0.390429
2.72 -0.42053
2.73 -0.44382
2.74 -0.459141
2.75 -0.465648
2.76 -0.464371
2.77 -0.45485
2.78 -0.439613
2.79 -0.41988
2.8 -0.398059
2.81 -0.376337
2.82 -0.357342
2.83 -0.34272
2.84 -0.33495
2.85 -0.334779
2.86 -0.343065
2.87 -0.360237
2.88 -0.384877
2.89 -0.416889
2.9 -0.453468
2.91 -0.492918
2.92 -0.532554
2.93 -0.570078
2.94 -0.60251
2.95 -0.628512
2.96 -0.645436
2.97 -0.652939
2.98 -0.650395
2.99 -0.637694
3 -0.616733
3.01 -0.587928
3.02 -0.554525
3.03 -0.518539
3.04 -0.482928
3.05 -0.450125
3.06 -0.423276
3.07 -0.403582
3.08 -0.393657
3.09 -0.393577
3.1 -0.403725
3.11 -0.423892
3.12 -0.451922
3.13 -0.487025
3.14 -0.525865
3.15 -0.566233
3.16 -0.605203
3.17 -0.640509
3.18 -0.669216
3.19 -0.690591
3.2 -0.702552
3.21 -0.705629
3.22 -0.700103
3.23 -0.687022
3.24 -0.668886
3.25 -0.647646
3.26 -0.626523
3.27 -0.608382
3.28 -0.596154
3.29 -0.591798
3.3 -0.59833
3.31 -0.615383
3.32 -0.64464
3.33 -0.684346
3.34 -0.73323
3.35 -0.788992
3.36 -0.848159
3.37 -0.907249
3.38 -0.962549
3.39 -1.01011
3.4 -1.04655
3.41 -1.06996
3.42 -1.07684
3.43 -1.06869
3.44 -1.04397
3.45 -1.00585
3.46 -0.956653
3.47 -0.900073
3.48 -0.840851
3.49 -0.784062
3.5 -0.734156
3.51 -0.696129
3.52 -0.673646
3.53 -0.668288
3.54 -0.683161
3.55 -0.714937
3.56 -0.763159
3.57 -0.821765
3.58 -0.885072
3.59 -0.944585
3.6 -0.992605
3.61 -1.01599
3.62 -1.00835
3.63 -0.957377
3.64 -0.854729
3.65 -0.696265
3.66 -0.469854
3.67 -0.182028
3.68 0.175114
3.69 0.592135
3.7 1.06417
3.71 1.58311
3.72 2.13328
3.73 2.70364
3.74 3.27543
3.75 3.83216
3.76 4.35561
3.77 4.83209
3.78 5.23861
3.79 5.57164
3.8 5.80984
3.81 5.95315
3.82 5.99552
3.83 5.93164
3.84 5.77499
3.85 5.51686
3.86 5.18108
3.87 4.77225
3.88 4.30716
3.89 3.80248
3.9 3.27202
3.91 2.73433
3.92 2.20456
3.93 1.69654
3.94 1.22206
3.95 0.793473
3.96 0.412561
3.97 0.0925958
3.98 -0.17332
3.99 -0.380985
4 -0.534906
4.01 -0.642056
4.02 -0.704308
4.03 -0.734523
4.04 -0.736689
4.05 -0.721356
4.06 -0.695221
4.07 -0.665273
4.08 -0.636991
4.09 -0.615651
4.1 -0.603223
4.11 -0.602063
4.12 -0.61224
4.13 -0.632434
4.14 -0.661724
4.15 -0.696518
4.16 -0.734413
4.17 -0.771872
4.18 -0.805982
4.19 -0.833474
4.2 -0.85292
4.21 -0.860939
4.22 -0.858042
4.23 -0.842795
4.24 -0.81562
4.25 -0.777709
4.26 -0.729083
4.27 -0.672488
4.28 -0.608517
4.29 -0.539457
4.3 -0.466651
4.31 -0.391444
4.32 -0.315108
4.33 -0.238448
4.34 -0.162121
4.35 -0.0865378
4.36 -0.0119269
4.37 0.0616405
4.38 0.133914
4.39 0.2049
4.4 0.274105
4.41 0.341171
4.42 0.405395
4.43 0.465624
4.44 0.521265
4.45 0.57009
4.46 0.611706
4.47 0.644129
4.48 0.666166
4.49 0.677319
4.5 0.675369
4.51 0.661592
4.52 0.634328
4.53 0.59506
4.54 0.544313
4.55 0.482895
4.56 0.413321
4.57 0.33632
4.58 0.254975
4.59 0.170987
4.6 0.0867007
4.61 0.00395324
4.62 -0.0750348
4.63 -0.149353
4.64 -0.217187
4.65 -0.278295
4.66 -0.332223
4.67 -0.37866
4.68 -0.418702
4.69 -0.451985
4.7 -0.480283
4.71 -0.504081
4.72 -0.524532
4.73 -0.542662
4.74 -0.559156
4.75 -0.574876
4.76 -0.590232
4.77 -0.605549
4.78 -0.620909
4.79 -0.636216
4.8 -0.651275
4.81 -0.665685
4.82 -0.679192
4.83 -0.691388
4.84 -0.702013
4.85 -0.710993
4.86 -0.718095
4.87 -0.723668
4.88 -0.727764
4.89 -0.730876
4.9 -0.733401
4.91 -0.735852
4.92 -0.738666
4.93 -0.742393
4.94 -0.747236
4.95 -0.753489
4.96 -0.761186
4.97 -0.770163
4.98 -0.780283
4.99 -0.791038
5 -0.802022
5.01 -0.812686
5.02 -0.822554
5.03 -0.831101
5.04 -0.838168
5.05 -0.843302
5.06 -0.846767
5.07 -0.848585
5.08 -0.849148
5.09 -0.848941
5.1 -0.848488
5.11 -0.848341
5.12 -0.849042
5.13 -0.85086
5.14 -0.853901
5.15 -0.857991
5.16 -0.862515
5.17 -0.866471
5.18 -0.868609
5.19 -0.867115
5.2 -0.859919
5.21 -0.84533
5.22 -0.819892
5.23 -0.782976
5.24 -0.730999
5.25 -0.663521
5.26 -0.579296
5.27 -0.477057
5.28 -0.359009
5.29 -0.22384
5.3 -0.0759683
5.31 0.0828957
5.32 0.248627
5.33 0.417
5.34 0.582906
5.35 0.741912
5.36 0.887781
5.37 1.01647
5.38 1.1235
5.39 1.20353
5.4 1.25668
5.41 1.27615
5.42 1.26573
5.43 1.22309
5.44 1.15033
5.45 1.05127
5.46 0.926702
5.47 0.784111
5.48 0.62624
5.49 0.459785
5.5 0.289657
5.51 0.121515
5.52 -0.0404607
5.53 -0.190376
5.54 -0.326398
5.55 -0.444764
5.56 -0.543947
5.57 -0.624264
5.58 -0.683649
5.59 -0.725865
5.6 -0.750457
5.61 -0.761174
5.62 -0.76025
5.63 -0.750163
5.64 -0.734315
5.65 -0.714551
5.66 -0.693499
5.67 -0.672618
5.68 -0.653055
5.69 -0.63519
5.7 -0.619154
5.71 -0.604167
5.72 -0.589362
5.73 -0.573446
5.74 -0.555131
5.75 -0.532816
5.76 -0.505874
5.77 -0.47255
5.78 -0.433272
5.79 -0.387555
5.8 -0.336079
5.81 -0.280082
5.82 -0.220727
5.83 -0.160253
5.84 -0.100781
5.85 -0.0446452
5.86 0.0059283
5.87 0.0482169
5.88 0.0813642
5.89 0.102111
5.9 0.111123
5.91 0.106929
5.92 0.0898195
5.93 0.0610455
5.94 0.0204911
5.95 -0.0287655
5.96 -0.0858648
5.97 -0.147981
5.98 -0.213124
5.99 -0.279059
6 -0.343931
6.01 -0.405666
6.02 -0.463398
6.03 -0.515936
6.04 -0.562884
6.05 -0.604525
6.06 -0.64063
6.07 -0.672597
6.08 -0.700837
6.09 -0.726723
6.1 -0.751208
6.11 -0.775297
6.12 -0.799745
6.13 -0.825221
6.14 -0.851824
6.15 -0.879572
6.16 -0.908048
6.17 -0.936639
6.18 -0.964415
6.19 -0.990595
6.2 -1.01397
6.21 -1.03386
6.22 -1.04956
6.23 -1.06036
6.24 -1.06666
6.25 -1.06794
6.26 -1.06541
6.27 -1.05957
6.28 -1.05157
6.29 -1.04258
6.3 -1.03375
6.31 -1.02595
6.32 -1.01998
6.33 -1.01587
6.34 -1.01326
6.35 -1.01101
6.36 -1.00742
6.37 -0.999362
6.38 -0.984159
6.39 -0.957421
6.4 -0.914619
6.41 -0.852455
6.42 -0.763267
6.43 -0.646558
6.44 -0.494768
6.45 -0.307488
6.46 -0.082503
6.47 0.182832
6.48 0.483422
6.49 0.822302
6.5 1.19012
6.51 1.58365
6.52 1.99466
6.53 2.41445
6.54 2.83316
6.55 3.24116
6.56 3.62601
6.57 3.97855
6.58 4.28905
6.59 4.54519
6.6 4.74577
6.61 4.87469
6.62 4.93752
6.63 4.92679
6.64 4.84367
6.65 4.69422
6.66 4.47521
6.67 4.20205
6.68 3.87605
6.69 3.51097
6.7 3.11599
6.71 2.70156
6.72 2.2796
6.73 1.86079
6.74 1.45452
6.75 1.07033
6.76 0.715976
6.77 0.395176
6.78 0.116956
6.79 -0.122059
6.8 -0.31594
6.81 -0.46891
6.82 -0.582529
6.83 -0.658365
6.84 -0.704245
6.85 -0.720617
6.86 -0.716541
6.87 -0.695317
6.88 -0.662469
6.89 -0.622684
6.9 -0.579501
6.91 -0.536358
6.92 -0.495722
6.93 -0.459076
6.94 -0.427296
6.95 -0.400955
6.96 -0.379272
6.97 -0.362377
6.98 -0.348862
6.99 -0.338211
7 -0.329602
7.01 -0.322437
7.02 -0.316601
7.03 -0.311967
7.04 -0.309081
7.05 -0.308498
7.06 -0.311067
7.07 -0.318085
7.08 -0.330015
7.09 -0.34874
7.1 -0.3741
7.11 -0.407073
7.12 -0.447656
7.13 -0.495119
7.14 -0.54944
7.15 -0.608544
7.16 -0.6714
7.17 -0.735766
7.18 -0.799724
7.19 -0.860874
7.2 -0.917651
7.21 -0.967237
7.22 -1.00907
7.23 -1.04145
7.24 -1.06385
7.25 -1.07677
7.26 -1.07959
7.27 -1.07464
7.28 -1.06244
7.29 -1.04541
7.3 -1.02541
7.31 -1.00458
7.32 -0.984815
7.33 -0.968248
7.34 -0.955787
7.35 -0.948559
7.36 -0.946749
7.37 -0.94967
7.38 -0.956689
7.39 -0.965624
7.4 -0.974378
7.41 -0.980165
7.42 -0.980191
7.43 -0.970717
7.44 -0.950069
7.45 -0.91336
7.46 -0.860477
7.47 -0.788547
7.48 -0.69681
7.49 -0.586331
7.5 -0.455649
7.51 -0.309131
7.52 -0.147386
7.53 0.0250115
7.54 0.204489
7.55 0.386547
7.56 0.56669
7.57 0.739269
7.58 0.900673
7.59 1.04585
7.6 1.17084
7.61 1.27394
7.62 1.34956
7.63 1.39995
7.64 1.42112
7.65 1.41539
7.66 1.38348
7.67 1.32584
7.68 1.24745
7.69 1.14821
7.7 1.0342
7.71 0.907758
7.72 0.77304
7.73 0.633869
7.74 0.493756
7.75 0.356
7.76 0.224031
7.77 0.100189
7.78 -0.0133736
7.79 -0.114053
7.8 -0.201999
7.81 -0.274058
7.82 -0.33179
7.83 -0.373921
7.84 -0.40082
7.85 -0.413842
7.86 -0.412135
7.87 -0.398743
7.88 -0.37356
7.89 -0.339082
7.9 -0.296885
7.91 -0.248691
7.92 -0.197026
7.93 -0.143761
7.94 -0.0913263
7.95 -0.0419312
7.96 0.00213174
7.97 0.039362
7.98 0.0668238
7.99 0.0844126
8 0.0896666
8.01 0.0826965
8.02 0.0631326
8.03 0.0304426
8.04 -0.0133581
8.05 -0.0688346
8.06 -0.132915
8.07 -0.204436
8.08 -0.281
8.09 -0.360226
8.1 -0.439775
8.11 -0.51745
8.12 -0.590878
8.13 -0.658541
8.14 -0.719142
8.15 -0.771289
8.16 -0.815562
8.17 -0.85083
8.18 -0.878897
8.19 -0.900213
8.2 -0.916301
8.21 -0.928861
8.22 -0.93925
8.23 -0.949172
8.24 -0.959829
8.25 -0.972017
8.26 -0.986014
8.27 -1.00156
8.28 -1.01757
8.29 -1.03224
8.3 -1.04338
8.31 -1.0479
8.32 -1.0422
8.33 -1.02362
8.34 -0.986226
8.35 -0.929195
8.36 -0.846722
8.37 -0.737906
8.38 -0.600906
8.39 -0.433137
8.4 -0.238205
8.41 -0.0133377
8.42 0.234841
8.43 0.504324
8.44 0.789513
8.45 1.0841
8.46 1.38166
8.47 1.67492
8.48 1.95566
8.49 2.21707
8.5 2.45249
8.51 2.65323
8.52 2.81811
8.53 2.93635
8.54 3.01092
8.55 3.03682
8.56 3.01415
8.57 2.94683
8.58 2.83187
8.59 2.67935
8.6 2.48946
8.61 2.27075
8.62 2.02889
8.63 1.7699
8.64 1.50173
8.65 1.23023
8.66 0.962017
8.67 0.702743
8.68 0.457622
8.69 0.229423
8.7 0.0239092
8.71 -0.160014
8.72 -0.31841
8.73 -0.452795
8.74 -0.563557
8.75 -0.650668
8.76 -0.71837
8.77 -0.766043
8.78 -0.798843
8.79 -0.818279
8.8 -0.827429
8.81 -0.829333
8.82 -0.825887
8.83 -0.819962
8.84 -0.813242
8.85 -0.807457
8.86 -0.803778
8.87 -0.80335
8.88 -0.806346
8.89 -0.813642
8.9 -0.824705
8.91 -0.839627
8.92 -0.857984
8.93 -0.87912
8.94 -0.902738
8.95 -0.927897
8.96 -0.954128
8.97 -0.980696
8.98 -1.00705
8.99 -1.03258
9 -1.05694
9.01 -1.07948
9.02 -1.10013
9.03 -1.11847
9.04 -1.13432
9.05 -1.1477
9.06 -1.15817
9.07 -1.16605
9.08 -1.17096
9.09 -1.17303
9.1 -1.17217
9.11 -1.16806
9.12 -1.1609
9.13 -1.14997
9.14 -1.13549
9.15 -1.1169
9.16 -1.09386
9.17 -1.06633
9.18 -1.03336
9.19 -0.995421
9.2 -0.951697
9.21 -0.90251
9.22 -0.847921
9.23 -0.787902
9.24 -0.723491
9.25 -0.65478
9.26 -0.583276
9.27 -0.509919
9.28 -0.43622
9.29 -0.363597
9.3 -0.294097
9.31 -0.228922
9.32 -0.170352
9.33 -0.119587
9.34 -0.0779484
9.35 -0.047267
9.36 -0.0270608
9.37 -0.0194795
9.38 -0.022889
9.39 -0.037645
9.4 -0.0627137
9.41 -0.0962766
9.42 -0.137584
9.43 -0.183726
9.44 -0.233135
9.45 -0.283297
9.46 -0.332214
9.47 -0.377567
9.48 -0.418162
9.49 -0.451667
9.5 -0.478008
9.51 -0.496176
9.52 -0.506187
9.53 -0.508963
9.54 -0.504553
9.55 -0.495168
9.56 -0.481793
9.57 -0.466525
9.58 -0.451047
9.59 -0.437317
9.6 -0.426599
9.61 -0.420874
9.62 -0.420506
9.63 -0.426465
9.64 -0.438927
9.65 -0.45728
9.66 -0.481635
9.67 -0.510288
9.68 -0.542592
9.69 -0.576959
9.7 -0.612176
9.71 -0.646917
9.72 -0.680263
9.73 -0.711074
9.74 -0.739139
9.75 -0.76405
9.76 -0.785895
9.77 -0.805148
9.78 -0.822002
9.79 -0.837294
9.8 -0.851303
9.81 -0.864383
9.82 -0.876463
9.83 -0.886884
9.84 -0.894857
9.85 -0.898108
9.86 -0.894905
9.87 -0.881965
9.88 -0.855598
9.89 -0.813228
9.9 -0.748064
9.91 -0.659422
9.92 -0.540488
9.93 -0.389861
9.94 -0.205158
9.95 0.017509
9.96 0.274227
9.97 0.56931
9.98 0.895399
9.99 1.25083
10 1.62961
10.01 2.02411
10.02 2.42746
10.03 2.83001
10.04 3.22205
10.05 3.59426
10.06 3.93787
10.07 4.24114
10.08 4.50133
10.09 4.70407
10.1 4.85143
10.11 4.9362
10.12 4.95692
10.13 4.91808
10.14 4.81416
10.15 4.65812
10.16 4.44929
10.17 4.19851
10.18 3.9132
10.19 3.60079
10.2 3.27244
10.21 2.93543
10.22 2.59927
10.23 2.27139
10.24 1.959
10.25 1.66599
10.26 1.39973
10.27 1.15909
10.28 0.948611
10.29 0.766328
10.3 0.611199
10.31 0.482649
10.32 0.375114
10.33 0.288194
10.34 0.215625
10.35 0.154824
10.36 0.10188
10.37 0.0533478
10.38 0.00663399
10.39 -0.0406516
10.4 -0.0902542
10.41 -0.143106
10.42 -0.19964
10.43 -0.260059
10.44 -0.32352
10.45 -0.389662
10.46 -0.457176
10.47 -0.525132
10.48 -0.592366
10.49 -0.658028
10.5 -0.720908
10.51 -0.780722
10.52 -0.836557
10.53 -0.888295
10.54 -0.935739
10.55 -0.978478
10.56 -1.01699
10.57 -1.05056
10.58 -1.07973
10.59 -1.10408
10.6 -1.12341
10.61 -1.1378
10.62 -1.1462
10.63 -1.14908
10.64 -1.1454
10.65 -1.13526
10.66 -1.11847
10.67 -1.09454
10.68 -1.06443
10.69 -1.02758
10.7 -0.9855
10.71 -0.938704
10.72 -0.888465
10.73 -0.836244
10.74 -0.783518
10.75 -0.731914
10.76 -0.683255
10.77 -0.639013
10.78 -0.600529
10.79 -0.569572
10.8 -0.54618
10.81 -0.532275
10.82 -0.526978
10.83 -0.530818
10.84 -0.543346
10.85 -0.563337
10.86 -0.590705
10.87 -0.623279
10.88 -0.660342
10.89 -0.700155
10.9 -0.741438
10.91 -0.782846
10.92 -0.823317
10.93 -0.861632
10.94 -0.89731
10.95 -0.92968
10.96 -0.958433
10.97 -0.983747
10.98 -1.00527
10.99 -1.02379
11 -1.03931
11.01 -1.05249
11.02 -1.06375
11.03 -1.07347
11.04 -1.08219
11.05 -1.09014
11.06 -1.09768
11.07 -1.10499
11.08 -1.11221
11.09 -1.11942
11.1 -1.12663
11.11 -1.13384
11.12 -1.14101
11.13 -1.14804
11.14 -1.15483
11.15 -1.16115
11.16 -1.16684
11.17 -1.17136
11.18 -1.17434
11.19 -1.175
11.2 -1.17236
11.21 -1.16563
11.22 -1.15269
11.23 -1.13289
11.24 -1.10357
11.25 -1.06335
11.26 -1.01041
11.27 -0.941729
11.28 -0.857424
11.29 -0.753311
11.3 -0.630649
11.31 -0.487565
11.32 -0.323993
11.33 -0.141916
11.34 0.0596477
11.35 0.275822
11.36 0.505293
11.37 0.743251
11.38 0.985543
11.39 1.22688
11.4 1.46247
11.41 1.68528
11.42 1.89129
11.43 2.07432
11.44 2.22911
11.45 2.35387
11.46 2.44058
11.47 2.4924
11.48 2.50388
11.49 2.47754
11.5 2.41463
11.51 2.31519
11.52 2.18638
11.53 2.02823
11.54 1.84926
11.55 1.65327
11.56 1.44637
11.57 1.23439
11.58 1.0228
11.59 0.816332
11.6 0.620026
11.61 0.437006
11.62 0.269715
11.63 0.121229
11.64 -0.0098279
11.65 -0.120787
11.66 -0.214993
11.67 -0.292873
11.68 -0.356707
11.69 -0.409706
11.7 -0.453403
11.71 -0.491691
11.72 -0.526499
11.73 -0.560396
11.74 -0.595074
11.75 -0.632059
11.76 -0.671779
11.77 -0.71485
11.78 -0.760462
11.79 -0.807894
11.8 -0.855666
11.81 -0.902217
11.82 -0.945132
11.83 -0.982918
11.84 -1.01281
11.85 -1.03318
11.86 -1.0424
11.87 -1.03796
11.88 -1.02032
11.89 -0.986511
11.9 -0.938106
11.91 -0.874205
11.92 -0.795277
11.93 -0.70315
11.94 -0.597348
11.95 -0.4813
11.96 -0.355647
11.97 -0.223158
11.98 -0.0859635
11.99 0.0535921
12 0.192989
12.01 0.329447
12.02 0.460834
12.03 0.584522
12.04 0.698015
12.05 0.800147
12.06 0.887131
12.07 0.959569
12.08 1.01439
12.09 1.0517
12.1 1.07109
12.11 1.07119
12.12 1.0545
12.13 1.01924
12.14 0.968871
12.15 0.903998
12.16 0.826726
12.17 0.739975
12.18 0.645237
12.19 0.546156
12.2 0.444901
12.21 0.344301
12.22 0.246563
12.23 0.154253
12.24 0.0683422
12.25 -0.00872854
12.26 -0.0772001
12.27 -0.136235
12.28 -0.186012
12.29 -0.227785
12.3 -0.261635
12.31 -0.290041
12.32 -0.314021
12.33 -0.33569
12.34 -0.356683
12.35 -0.378768
12.36 -0.403076
12.37 -0.431082
12.38 -0.462934
12.39 -0.498971
12.4 -0.538763
12.41 -0.581229
12.42 -0.625178
