# xPDFsuite Configuration #
[PDF]
wavelength = 0.1432
dataformat = twotheta
inputfile = 1_1Pd_CeO2_cycle-00452.chi
backgroundfile = background-00000.chi
mode = xray
bgscale = 1.007
composition = CeO2
outputtype = gr
qmaxinst = 28.8974762299
qmin = 0.5
qmax = 27.9
rmax = 50.0
rmin = 0.0
rstep = 0.01
rpoly = 1.8657

[Misc]
inputdir = G:/SankarDec16/1Pd/Chi
savedir = D:/DATA/APS_CeO2/1Pd
backgroundfilefull = G:/SankarDec16/Background/background-00000.chi

#### start data
#S 1
#L r($\AA$)  G($\AA^{-2}$)
0 0
0.01 -0.00334409
0.02 -0.00643697
0.03 -0.00901992
0.04 -0.0108979
0.05 -0.0119624
0.06 -0.0120384
0.07 -0.0112417
0.08 -0.00951529
0.09 -0.00708028
0.1 -0.00408926
0.11 -0.000776181
0.12 0.00260289
0.13 0.00576156
0.14 0.00849533
0.15 0.0105548
0.16 0.0117929
0.17 0.01215
0.18 0.0115055
0.19 0.0100285
0.2 0.0077235
0.21 0.00484774
0.22 0.00159064
0.23 -0.00178544
0.24 -0.00503896
0.25 -0.00786152
0.26 -0.0101047
0.27 -0.01154
0.28 -0.0120748
0.29 -0.0117016
0.3 -0.0103594
0.31 -0.00826331
0.32 -0.00547896
0.33 -0.00228799
0.34 0.00109205
0.35 0.00438228
0.36 0.00736685
0.37 0.00972956
0.38 0.0113848
0.39 0.0121355
0.4 0.0119482
0.41 0.0108673
0.42 0.00889475
0.43 0.0062816
0.44 0.00315163
0.45 -0.000201823
0.46 -0.00354325
0.47 -0.0065899
0.48 -0.00916168
0.49 -0.0109492
0.5 -0.0119335
0.51 -0.0119585
0.52 -0.0110508
0.53 -0.00930544
0.54 -0.00678709
0.55 -0.00377126
0.56 -0.000434223
0.57 0.00293232
0.58 0.00608584
0.59 0.00875259
0.6 0.0107966
0.61 0.0119297
0.62 0.0122004
0.63 0.0115008
0.64 0.00991675
0.65 0.00758947
0.66 0.00464363
0.67 0.00136668
0.68 -0.00202053
0.69 -0.00524104
0.7 -0.00805627
0.71 -0.0102135
0.72 -0.011627
0.73 -0.012042
0.74 -0.0115722
0.75 -0.0101616
0.76 -0.0079508
0.77 -0.00511986
0.78 -0.00184625
0.79 0.00158385
0.8 0.00491704
0.81 0.0079034
0.82 0.0103199
0.83 0.0119462
0.84 0.0127493
0.85 0.0125187
0.86 0.0114246
0.87 0.0094618
0.88 0.00681409
0.89 0.00368649
0.9 0.000291518
0.91 -0.00310466
0.92 -0.00624212
0.93 -0.00891678
0.94 -0.0109438
0.95 -0.0121604
0.96 -0.0125906
0.97 -0.0121038
0.98 -0.0109118
0.99 -0.00907734
1 -0.006819
1.01 -0.00435272
1.02 -0.00192201
1.03 0.000264068
1.04 0.00195652
1.05 0.00303871
1.06 0.00340013
1.07 0.00298422
1.08 0.00190902
1.09 0.000198465
1.1 -0.0018658
1.11 -0.00407981
1.12 -0.00613857
1.13 -0.00777759
1.14 -0.0086247
1.15 -0.00854009
1.16 -0.00717813
1.17 -0.00452301
1.18 -0.000498132
1.19 0.00488321
1.2 0.0113482
1.21 0.0187963
1.22 0.0267472
1.23 0.0348521
1.24 0.0426223
1.25 0.0496398
1.26 0.0552978
1.27 0.0593692
1.28 0.061246
1.29 0.0608431
1.3 0.0579316
1.31 0.0523601
1.32 0.0444532
1.33 0.0340227
1.34 0.0217485
1.35 0.00784588
1.36 -0.00711303
1.37 -0.0225901
1.38 -0.0379869
1.39 -0.052772
1.4 -0.0662733
1.41 -0.0780897
1.42 -0.087767
1.43 -0.0948491
1.44 -0.0993797
1.45 -0.100762
1.46 -0.0994448
1.47 -0.0952429
1.48 -0.088437
1.49 -0.0793735
1.5 -0.0681959
1.51 -0.0555431
1.52 -0.0416655
1.53 -0.0271361
1.54 -0.0123604
1.55 0.00218655
1.56 0.0161601
1.57 0.0290283
1.58 0.0406297
1.59 0.0505637
1.6 0.0586372
1.61 0.0647703
1.62 0.0686307
1.63 0.070463
1.64 0.0699953
1.65 0.067503
1.66 0.0630423
1.67 0.0567282
1.68 0.0489381
1.69 0.0397096
1.7 0.0295414
1.71 0.0186479
1.72 0.00740129
1.73 -0.00388335
1.74 -0.0148471
1.75 -0.0252543
1.76 -0.034755
1.77 -0.0432175
1.78 -0.0504761
1.79 -0.0564013
1.8 -0.0611249
1.81 -0.0645238
1.82 -0.0669413
1.83 -0.0684908
1.84 -0.069483
1.85 -0.070217
1.86 -0.0710287
1.87 -0.0722035
1.88 -0.0740955
1.89 -0.076884
1.9 -0.0807492
1.91 -0.0858192
1.92 -0.0919566
1.93 -0.0992044
1.94 -0.107172
1.95 -0.115612
1.96 -0.124073
1.97 -0.132128
1.98 -0.139158
1.99 -0.14481
2 -0.148367
2.01 -0.149553
2.02 -0.147945
2.03 -0.14312
2.04 -0.135238
2.05 -0.123687
2.06 -0.109052
2.07 -0.0911753
2.08 -0.070395
2.09 -0.0471025
2.1 -0.0214084
2.11 0.00604944
2.12 0.0351596
2.13 0.0654711
2.14 0.0967939
2.15 0.128986
2.16 0.161879
2.17 0.195574
2.18 0.22999
2.19 0.26527
2.2 0.301468
2.21 0.338588
2.22 0.376702
2.23 0.415567
2.24 0.455011
2.25 0.494558
2.26 0.533663
2.27 0.571483
2.28 0.607347
2.29 0.639741
2.3 0.668078
2.31 0.690842
2.32 0.706986
2.33 0.715853
2.34 0.715663
2.35 0.706987
2.36 0.688277
2.37 0.660382
2.38 0.623356
2.39 0.577569
2.4 0.524792
2.41 0.46531
2.42 0.401645
2.43 0.335097
2.44 0.26772
2.45 0.201234
2.46 0.137749
2.47 0.0783704
2.48 0.0250685
2.49 -0.0216544
2.5 -0.0610413
2.51 -0.0925446
2.52 -0.117113
2.53 -0.134185
2.54 -0.145738
2.55 -0.152381
2.56 -0.155688
2.57 -0.157113
2.58 -0.158078
2.59 -0.159894
2.6 -0.163882
2.61 -0.170751
2.62 -0.181098
2.63 -0.195292
2.64 -0.212819
2.65 -0.233711
2.66 -0.256719
2.67 -0.281081
2.68 -0.305557
2.69 -0.329077
2.7 -0.350266
2.71 -0.368508
2.72 -0.382609
2.73 -0.392456
2.74 -0.397823
2.75 -0.398765
2.76 -0.396221
2.77 -0.390565
2.78 -0.383329
2.79 -0.375588
2.8 -0.368766
2.81 -0.363988
2.82 -0.362776
2.83 -0.365517
2.84 -0.37338
2.85 -0.386154
2.86 -0.403799
2.87 -0.425894
2.88 -0.451167
2.89 -0.478756
2.9 -0.50689
2.91 -0.534077
2.92 -0.558645
2.93 -0.579368
2.94 -0.594397
2.95 -0.603602
2.96 -0.60564
2.97 -0.60106
2.98 -0.590083
2.99 -0.573384
3 -0.552661
3.01 -0.529022
3.02 -0.50466
3.03 -0.481348
3.04 -0.461038
3.05 -0.445115
3.06 -0.435627
3.07 -0.432643
3.08 -0.437553
3.09 -0.44963
3.1 -0.468504
3.11 -0.493285
3.12 -0.522051
3.13 -0.553441
3.14 -0.585123
3.15 -0.615161
3.16 -0.641564
3.17 -0.663018
3.18 -0.677574
3.19 -0.68546
3.2 -0.685629
3.21 -0.67923
3.22 -0.667106
3.23 -0.65076
3.24 -0.632399
3.25 -0.614263
3.26 -0.598666
3.27 -0.588092
3.28 -0.584615
3.29 -0.589395
3.3 -0.604558
3.31 -0.629097
3.32 -0.663892
3.33 -0.706901
3.34 -0.7566
3.35 -0.810602
3.36 -0.865917
3.37 -0.919227
3.38 -0.967719
3.39 -1.00808
3.4 -1.03779
3.41 -1.05561
3.42 -1.05895
3.43 -1.04953
3.44 -1.02644
3.45 -0.992647
3.46 -0.950335
3.47 -0.902761
3.48 -0.853802
3.49 -0.807694
3.5 -0.767783
3.51 -0.737914
3.52 -0.72064
3.53 -0.716806
3.54 -0.728244
3.55 -0.751837
3.56 -0.786353
3.57 -0.826459
3.58 -0.866963
3.59 -0.900298
3.6 -0.920299
3.61 -0.915322
3.62 -0.880778
3.63 -0.806283
3.64 -0.685336
3.65 -0.515039
3.66 -0.285542
3.67 -0.00316177
3.68 0.338293
3.69 0.730223
3.7 1.16803
3.71 1.64434
3.72 2.14567
3.73 2.66212
3.74 3.17785
3.75 3.67859
3.76 4.14881
3.77 4.57696
3.78 4.94319
3.79 5.24478
3.8 5.4632
3.81 5.59848
3.82 5.64527
3.83 5.5987
3.84 5.47029
3.85 5.25184
3.86 4.96384
3.87 4.60965
3.88 4.20339
3.89 3.75927
3.9 3.28849
3.91 2.80747
3.92 2.32874
3.93 1.86469
3.94 1.42568
3.95 1.02264
3.96 0.657974
3.97 0.343395
3.98 0.07405
3.99 -0.145779
4 -0.319078
4.01 -0.451132
4.02 -0.542577
4.03 -0.604109
4.04 -0.638244
4.05 -0.653874
4.06 -0.656402
4.07 -0.65148
4.08 -0.644218
4.09 -0.638618
4.1 -0.637188
4.11 -0.641921
4.12 -0.653346
4.13 -0.670839
4.14 -0.693809
4.15 -0.71988
4.16 -0.747208
4.17 -0.773265
4.18 -0.79585
4.19 -0.812452
4.2 -0.822092
4.21 -0.822071
4.22 -0.812949
4.23 -0.793614
4.24 -0.764495
4.25 -0.726625
4.26 -0.680096
4.27 -0.627191
4.28 -0.568464
4.29 -0.505806
4.3 -0.440338
4.31 -0.373177
4.32 -0.305313
4.33 -0.237393
4.34 -0.169854
4.35 -0.102952
4.36 -0.0367568
4.37 0.0287781
4.38 0.0936052
4.39 0.157785
4.4 0.221059
4.41 0.283137
4.42 0.343465
4.43 0.40107
4.44 0.455321
4.45 0.504276
4.46 0.547358
4.47 0.582686
4.48 0.608964
4.49 0.625518
4.5 0.630066
4.51 0.623529
4.52 0.604077
4.53 0.572853
4.54 0.530116
4.55 0.47636
4.56 0.413906
4.57 0.34315
4.58 0.267137
4.59 0.187394
4.6 0.106252
4.61 0.0256347
4.62 -0.052249
4.63 -0.126215
4.64 -0.19436
4.65 -0.256179
4.66 -0.311037
4.67 -0.358428
4.68 -0.399311
4.69 -0.433184
4.7 -0.461812
4.71 -0.485666
4.72 -0.505981
4.73 -0.523899
4.74 -0.540272
4.75 -0.556116
4.76 -0.57206
4.77 -0.588555
4.78 -0.605805
4.79 -0.623821
4.8 -0.642321
4.81 -0.660942
4.82 -0.679171
4.83 -0.69643
4.84 -0.712154
4.85 -0.725983
4.86 -0.737278
4.87 -0.746177
4.88 -0.752322
4.89 -0.756087
4.9 -0.757724
4.91 -0.757637
4.92 -0.756511
4.93 -0.754878
4.94 -0.753436
4.95 -0.75278
4.96 -0.75344
4.97 -0.7557
4.98 -0.760015
4.99 -0.76618
5 -0.77434
5.01 -0.784085
5.02 -0.7951
5.03 -0.806948
5.04 -0.819098
5.05 -0.831037
5.06 -0.842337
5.07 -0.852558
5.08 -0.861388
5.09 -0.868707
5.1 -0.874197
5.11 -0.878055
5.12 -0.880054
5.13 -0.880331
5.14 -0.878797
5.15 -0.875186
5.16 -0.869443
5.17 -0.860662
5.18 -0.848587
5.19 -0.832065
5.2 -0.81003
5.21 -0.781664
5.22 -0.744741
5.23 -0.699178
5.24 -0.642582
5.25 -0.574805
5.26 -0.49502
5.27 -0.40232
5.28 -0.298241
5.29 -0.181733
5.3 -0.0558841
5.31 0.0781857
5.32 0.217568
5.33 0.359203
5.34 0.499368
5.35 0.634667
5.36 0.760336
5.37 0.873089
5.38 0.969266
5.39 1.04438
5.4 1.09817
5.41 1.12474
5.42 1.12667
5.43 1.1015
5.44 1.05036
5.45 0.975945
5.46 0.87814
5.47 0.763004
5.48 0.632134
5.49 0.491099
5.5 0.343856
5.51 0.195031
5.52 0.0486339
5.53 -0.0904845
5.54 -0.219948
5.55 -0.336245
5.56 -0.437411
5.57 -0.523086
5.58 -0.590861
5.59 -0.643384
5.6 -0.679627
5.61 -0.70242
5.62 -0.713328
5.63 -0.71413
5.64 -0.707886
5.65 -0.695849
5.66 -0.680741
5.67 -0.663866
5.68 -0.64656
5.69 -0.629537
5.7 -0.613174
5.71 -0.597254
5.72 -0.5813
5.73 -0.564487
5.74 -0.545894
5.75 -0.524294
5.76 -0.499144
5.77 -0.468979
5.78 -0.434015
5.79 -0.393732
5.8 -0.34854
5.81 -0.299347
5.82 -0.24696
5.83 -0.193225
5.84 -0.139827
5.85 -0.0887823
5.86 -0.0420268
5.87 -0.00197604
5.88 0.0304595
5.89 0.0523034
5.9 0.0638991
5.91 0.063735
5.92 0.0518156
5.93 0.0290554
5.94 -0.0049483
5.95 -0.0475214
5.96 -0.0981385
5.97 -0.154271
5.98 -0.214164
5.99 -0.275816
6 -0.337355
6.01 -0.396881
6.02 -0.453309
6.03 -0.505391
6.04 -0.552514
6.05 -0.594721
6.06 -0.631555
6.07 -0.664166
6.08 -0.692733
6.09 -0.718479
6.1 -0.742248
6.11 -0.764966
6.12 -0.787483
6.13 -0.810485
6.14 -0.834302
6.15 -0.859133
6.16 -0.884819
6.17 -0.910971
6.18 -0.936979
6.19 -0.962167
6.2 -0.985596
6.21 -1.00658
6.22 -1.02445
6.23 -1.03844
6.24 -1.04868
6.25 -1.05447
6.26 -1.05662
6.27 -1.05524
6.28 -1.05102
6.29 -1.04477
6.3 -1.03704
6.31 -1.02859
6.32 -1.01971
6.33 -1.01043
6.34 -1.00034
6.35 -0.988314
6.36 -0.973159
6.37 -0.951932
6.38 -0.922761
6.39 -0.881883
6.4 -0.825651
6.41 -0.751526
6.42 -0.65306
6.43 -0.530234
6.44 -0.376747
6.45 -0.192573
6.46 0.0239446
6.47 0.2748
6.48 0.555452
6.49 0.86821
6.5 1.205
6.51 1.56286
6.52 1.93468
6.53 2.31301
6.54 2.68928
6.55 3.05542
6.56 3.40073
6.57 3.71752
6.58 3.99754
6.59 4.2303
6.6 4.41494
6.61 4.53763
6.62 4.60323
6.63 4.60527
6.64 4.54465
6.65 4.42644
6.66 4.24751
6.67 4.02092
6.68 3.74725
6.69 3.43799
6.7 3.10059
6.71 2.74336
6.72 2.37648
6.73 2.00815
6.74 1.6467
6.75 1.29982
6.76 0.974152
6.77 0.673208
6.78 0.404516
6.79 0.166157
6.8 -0.0366092
6.81 -0.206412
6.82 -0.343823
6.83 -0.44922
6.84 -0.528389
6.85 -0.580509
6.86 -0.612637
6.87 -0.626567
6.88 -0.626285
6.89 -0.615526
6.9 -0.596329
6.91 -0.572232
6.92 -0.544779
6.93 -0.515951
6.94 -0.486902
6.95 -0.458619
6.96 -0.431574
6.97 -0.406427
6.98 -0.383202
6.99 -0.362278
7 -0.343889
7.01 -0.328168
7.02 -0.315896
7.03 -0.307065
7.04 -0.302699
7.05 -0.303085
7.06 -0.308826
7.07 -0.320802
7.08 -0.338713
7.09 -0.36379
7.1 -0.395067
7.11 -0.432779
7.12 -0.476248
7.13 -0.524401
7.14 -0.576584
7.15 -0.631013
7.16 -0.686464
7.17 -0.741259
7.18 -0.793961
7.19 -0.842851
7.2 -0.887195
7.21 -0.925099
7.22 -0.956724
7.23 -0.981225
7.24 -0.998698
7.25 -1.00987
7.26 -1.01475
7.27 -1.0151
7.28 -1.01157
7.29 -1.00576
7.3 -0.998868
7.31 -0.992166
7.32 -0.986544
7.33 -0.982999
7.34 -0.981627
7.35 -0.982571
7.36 -0.985318
7.37 -0.988982
7.38 -0.992236
7.39 -0.993619
7.4 -0.990963
7.41 -0.982476
7.42 -0.966191
7.43 -0.939476
7.44 -0.901852
7.45 -0.849882
7.46 -0.78443
7.47 -0.703889
7.48 -0.608421
7.49 -0.499391
7.5 -0.376381
7.51 -0.242911
7.52 -0.0999261
7.53 0.049122
7.54 0.201523
7.55 0.353917
7.56 0.503341
7.57 0.645643
7.58 0.778654
7.59 0.898856
7.6 1.00365
7.61 1.09199
7.62 1.15992
7.63 1.20912
7.64 1.23659
7.65 1.24384
7.66 1.2311
7.67 1.19824
7.68 1.14862
7.69 1.08135
7.7 1.00074
7.71 0.907828
7.72 0.8053
7.73 0.695917
7.74 0.58164
7.75 0.465486
7.76 0.349711
7.77 0.236697
7.78 0.128488
7.79 0.0275785
7.8 -0.0652067
7.81 -0.146801
7.82 -0.217407
7.83 -0.275212
7.84 -0.319622
7.85 -0.351114
7.86 -0.368044
7.87 -0.372762
7.88 -0.364477
7.89 -0.345293
7.9 -0.316469
7.91 -0.279401
7.92 -0.236791
7.93 -0.190205
7.94 -0.142494
7.95 -0.0958786
7.96 -0.0528846
7.97 -0.0153046
7.98 0.0138727
7.99 0.0341756
8 0.0430978
8.01 0.0405318
8.02 0.0260009
8.03 -0.00111027
8.04 -0.0389364
8.05 -0.0880949
8.06 -0.145674
8.07 -0.210627
8.08 -0.280721
8.09 -0.353723
8.1 -0.427537
8.11 -0.500071
8.12 -0.569208
8.13 -0.633517
8.14 -0.691801
8.15 -0.742774
8.16 -0.786867
8.17 -0.822994
8.18 -0.852638
8.19 -0.876054
8.2 -0.894416
8.21 -0.909092
8.22 -0.920986
8.23 -0.931543
8.24 -0.941519
8.25 -0.95155
8.26 -0.961771
8.27 -0.971803
8.28 -0.980873
8.29 -0.987232
8.3 -0.9893
8.31 -0.98445
8.32 -0.969815
8.33 -0.943355
8.34 -0.900154
8.35 -0.839811
8.36 -0.757539
8.37 -0.652775
8.38 -0.524077
8.39 -0.369338
8.4 -0.191631
8.41 0.0114223
8.42 0.234302
8.43 0.475446
8.44 0.730291
8.45 0.993635
8.46 1.26031
8.47 1.52418
8.48 1.7785
8.49 2.01745
8.5 2.23535
8.51 2.42473
8.52 2.58424
8.53 2.70445
8.54 2.78739
8.55 2.8283
8.56 2.82663
8.57 2.78524
8.58 2.70066
8.59 2.58128
8.6 2.42637
8.61 2.24305
8.62 2.03585
8.63 1.80948
8.64 1.57121
8.65 1.32557
8.66 1.07909
8.67 0.836768
8.68 0.603702
8.69 0.383021
8.7 0.180194
8.71 -0.0048069
8.72 -0.167954
8.73 -0.30985
8.74 -0.43028
8.75 -0.528616
8.76 -0.608372
8.77 -0.668457
8.78 -0.713533
8.79 -0.74477
8.8 -0.764998
8.81 -0.77718
8.82 -0.78306
8.83 -0.785668
8.84 -0.786671
8.85 -0.787967
8.86 -0.790824
8.87 -0.796457
8.88 -0.805146
8.89 -0.817725
8.9 -0.833682
8.91 -0.853006
8.92 -0.875155
8.93 -0.899385
8.94 -0.925139
8.95 -0.951473
8.96 -0.977682
8.97 -1.00304
8.98 -1.02697
8.99 -1.04884
9 -1.06855
9.01 -1.08547
9.02 -1.09988
9.03 -1.11161
9.04 -1.12079
9.05 -1.12772
9.06 -1.13236
9.07 -1.1352
9.08 -1.13619
9.09 -1.13558
9.1 -1.13337
9.11 -1.12938
9.12 -1.12362
9.13 -1.11545
9.14 -1.10479
9.15 -1.09096
9.16 -1.07339
9.17 -1.05181
9.18 -1.02506
9.19 -0.993406
9.2 -0.955861
9.21 -0.912622
9.22 -0.863662
9.23 -0.80887
9.24 -0.749307
9.25 -0.684995
9.26 -0.617509
9.27 -0.547763
9.28 -0.477271
9.29 -0.407458
9.3 -0.340267
9.31 -0.276905
9.32 -0.219498
9.33 -0.16918
9.34 -0.127167
9.35 -0.0951246
9.36 -0.0726059
9.37 -0.0615565
9.38 -0.0604953
9.39 -0.0697665
9.4 -0.0884823
9.41 -0.115054
9.42 -0.148939
9.43 -0.18758
9.44 -0.229751
9.45 -0.273291
9.46 -0.316524
9.47 -0.357536
9.48 -0.395211
9.49 -0.427634
9.5 -0.454564
9.51 -0.475072
9.52 -0.488997
9.53 -0.496926
9.54 -0.498666
9.55 -0.495876
9.56 -0.489106
9.57 -0.47994
9.58 -0.469625
9.59 -0.459599
9.6 -0.450995
9.61 -0.445308
9.62 -0.4431
9.63 -0.445277
9.64 -0.452262
9.65 -0.463862
9.66 -0.480537
9.67 -0.501215
9.68 -0.525793
9.69 -0.553242
9.7 -0.582813
9.71 -0.613702
9.72 -0.645031
9.73 -0.676059
9.74 -0.706207
9.75 -0.734938
9.76 -0.761854
9.77 -0.786825
9.78 -0.80934
9.79 -0.829536
9.8 -0.846836
9.81 -0.861
9.82 -0.871447
9.83 -0.876947
9.84 -0.876956
9.85 -0.868863
9.86 -0.851782
9.87 -0.822919
9.88 -0.779615
9.89 -0.720395
9.9 -0.639966
9.91 -0.53873
9.92 -0.411603
9.93 -0.258197
9.94 -0.0771224
9.95 0.134225
9.96 0.372384
9.97 0.640461
9.98 0.932554
9.99 1.2473
10 1.58005
10.01 1.92498
10.02 2.27686
10.03 2.62833
10.04 2.97196
10.05 3.30054
10.06 3.60719
10.07 3.8826
10.08 4.12434
10.09 4.32069
10.1 4.4727
10.11 4.57396
10.12 4.62239
10.13 4.62084
10.14 4.5634
10.15 4.45998
10.16 4.30852
10.17 4.11714
10.18 3.89111
10.19 3.63535
10.2 3.35944
10.21 3.06804
10.22 2.77015
10.23 2.47178
10.24 2.17962
10.25 1.89816
10.26 1.63406
10.27 1.38826
10.28 1.16557
10.29 0.965932
10.3 0.789709
10.31 0.637826
10.32 0.50634
10.33 0.396273
10.34 0.302423
10.35 0.223193
10.36 0.155316
10.37 0.0953803
10.38 0.0412754
10.39 -0.0102075
10.4 -0.0609211
10.41 -0.112678
10.42 -0.166598
10.43 -0.223636
10.44 -0.283689
10.45 -0.347078
10.46 -0.412887
10.47 -0.480538
10.48 -0.54898
10.49 -0.617192
10.5 -0.683866
10.51 -0.748181
10.52 -0.808825
10.53 -0.865127
10.54 -0.916429
10.55 -0.961792
10.56 -1.00154
10.57 -1.03453
10.58 -1.06154
10.59 -1.0822
10.6 -1.09664
10.61 -1.10548
10.62 -1.1082
10.63 -1.10591
10.64 -1.09829
10.65 -1.08599
10.66 -1.0693
10.67 -1.04829
10.68 -1.02375
10.69 -0.995556
10.7 -0.964591
10.71 -0.931141
10.72 -0.895817
10.73 -0.859307
10.74 -0.822237
10.75 -0.7854
10.76 -0.749628
10.77 -0.715698
10.78 -0.684348
10.79 -0.656611
10.8 -0.632726
10.81 -0.613992
10.82 -0.60028
10.83 -0.592292
10.84 -0.590266
10.85 -0.593865
10.86 -0.603767
10.87 -0.618853
10.88 -0.639356
10.89 -0.664377
10.9 -0.693323
10.91 -0.725655
10.92 -0.760287
10.93 -0.796697
10.94 -0.833853
10.95 -0.871053
10.96 -0.907497
10.97 -0.942631
10.98 -0.975596
10.99 -1.00622
11 -1.03383
11.01 -1.05833
11.02 -1.07955
11.03 -1.09724
11.04 -1.11184
11.05 -1.12303
11.06 -1.13148
11.07 -1.13732
11.08 -1.14097
11.09 -1.14296
11.1 -1.14357
11.11 -1.1434
11.12 -1.14275
11.13 -1.14199
11.14 -1.14132
11.15 -1.14082
11.16 -1.14038
11.17 -1.13967
11.18 -1.1382
11.19 -1.13518
11.2 -1.12953
11.21 -1.12031
11.22 -1.10536
11.23 -1.08394
11.24 -1.05348
11.25 -1.01265
11.26 -0.959828
11.27 -0.892317
11.28 -0.810422
11.29 -0.710553
11.3 -0.59411
11.31 -0.459671
11.32 -0.307457
11.33 -0.139406
11.34 0.0450739
11.35 0.241685
11.36 0.449156
11.37 0.66338
11.38 0.880857
11.39 1.09718
11.4 1.30847
11.41 1.50893
11.42 1.69541
11.43 1.86287
11.44 2.00705
11.45 2.12652
11.46 2.21462
11.47 2.27388
11.48 2.29961
11.49 2.29363
11.5 2.25663
11.51 2.18814
11.52 2.09379
11.53 1.97281
11.54 1.83203
11.55 1.67395
11.56 1.50319
11.57 1.32452
11.58 1.1417
11.59 0.959174
11.6 0.780708
11.61 0.609366
11.62 0.447508
11.63 0.297971
11.64 0.160523
11.65 0.0377558
11.66 -0.0721184
11.67 -0.168784
11.68 -0.253306
11.69 -0.327736
11.7 -0.392438
11.71 -0.450392
11.72 -0.50247
11.73 -0.55065
11.74 -0.596175
11.75 -0.640008
11.76 -0.682967
11.77 -0.725252
11.78 -0.766864
11.79 -0.807335
11.8 -0.845834
11.81 -0.881577
11.82 -0.912765
11.83 -0.938742
11.84 -0.957455
11.85 -0.967925
11.86 -0.96904
11.87 -0.958944
11.88 -0.938147
11.89 -0.904344
11.9 -0.858846
11.91 -0.800952
11.92 -0.731032
11.93 -0.650532
11.94 -0.559032
11.95 -0.459246
11.96 -0.351625
11.97 -0.238341
11.98 -0.121044
11.99 -0.00152228
12 0.11823
12.01 0.236121
12.02 0.350455
12.03 0.459222
12.04 0.560483
12.05 0.653292
12.06 0.73472
12.07 0.805118
12.08 0.862033
12.09 0.90538
12.1 0.934682
12.11 0.948586
12.12 0.94883
12.13 0.933589
12.14 0.905327
12.15 0.864072
12.16 0.811056
12.17 0.748386
12.18 0.676533
12.19 0.598507
12.2 0.515478
12.21 0.429757
12.22 0.343102
12.23 0.257432
12.24 0.174102
12.25 0.0949906
12.26 0.0206913
12.27 -0.0477487
12.28 -0.109826
12.29 -0.165898
12.3 -0.21534
12.31 -0.259577
12.32 -0.298734
12.33 -0.334077
12.34 -0.366564
12.35 -0.397142
12.36 -0.426905
12.37 -0.456623
