# xPDFsuite Configuration #
[PDF]
wavelength = 0.1432
dataformat = twotheta
inputfile = 1_1Pd_CeO2_cycle-00158.chi
backgroundfile = background-00000.chi
mode = xray
bgscale = 1.007
composition = CeO2
outputtype = gr
qmaxinst = 28.8974762299
qmin = 0.5
qmax = 27.9
rmax = 50.0
rmin = 0.0
rstep = 0.01
rpoly = 1.8657

[Misc]
inputdir = G:/SankarDec16/1Pd/Chi
savedir = D:/DATA/APS_CeO2/1Pd
backgroundfilefull = G:/SankarDec16/Background/background-00000.chi

#### start data
#S 1
#L r($\AA$)  G($\AA^{-2}$)
0 0
0.01 -0.00805106
0.02 -0.0154981
0.03 -0.0217191
0.04 -0.026245
0.05 -0.0288141
0.06 -0.0290056
0.07 -0.027097
0.08 -0.0229504
0.09 -0.0170968
0.1 -0.00990218
0.11 -0.00192858
0.12 0.00620801
0.13 0.0138194
0.14 0.0204125
0.15 0.0253869
0.16 0.0283869
0.17 0.0292673
0.18 0.0277357
0.19 0.0241973
0.2 0.0186601
0.21 0.0117417
0.22 0.0038966
0.23 -0.0042449
0.24 -0.0121003
0.25 -0.0189277
0.26 -0.0243665
0.27 -0.0278649
0.28 -0.0291963
0.29 -0.028339
0.3 -0.0251421
0.31 -0.020121
0.32 -0.0134295
0.33 -0.00574496
0.34 0.00240996
0.35 0.0103637
0.36 0.0175936
0.37 0.0233367
0.38 0.0273811
0.39 0.0292484
0.4 0.0288518
0.41 0.0262941
0.42 0.0215737
0.43 0.0152936
0.44 0.00774693
0.45 -0.000358417
0.46 -0.00845492
0.47 -0.0158592
0.48 -0.0221316
0.49 -0.0265227
0.5 -0.0289789
0.51 -0.0291172
0.52 -0.0269949
0.53 -0.0228357
0.54 -0.0167882
0.55 -0.00951668
0.56 -0.0014416
0.57 0.00672989
0.58 0.0144106
0.59 0.0209351
0.6 0.0259677
0.61 0.0288051
0.62 0.029556
0.63 0.0279505
0.64 0.0241883
0.65 0.0186053
0.66 0.0114948
0.67 0.00355354
0.68 -0.0046888
0.69 -0.0125566
0.7 -0.0194691
0.71 -0.0248081
0.72 -0.0283572
0.73 -0.0294908
0.74 -0.0284756
0.75 -0.0251671
0.76 -0.0198995
0.77 -0.0131057
0.78 -0.00521125
0.79 0.00308584
0.8 0.0111707
0.81 0.018429
0.82 0.0243133
0.83 0.0282799
0.84 0.0302418
0.85 0.0296786
0.86 0.0270021
0.87 0.0221974
0.88 0.0157158
0.89 0.00806387
0.9 -0.000226042
0.91 -0.00849038
0.92 -0.0160678
0.93 -0.0224395
0.94 -0.0271261
0.95 -0.0296966
0.96 -0.0302003
0.97 -0.0282688
0.98 -0.0244358
0.99 -0.0188326
1 -0.0120085
1.01 -0.0045183
1.02 0.00301661
1.03 0.0100181
1.04 0.0158123
1.05 0.0200267
1.06 0.0222963
1.07 0.0223575
1.08 0.0204283
1.09 0.0163684
1.1 0.0108438
1.11 0.00419265
1.12 -0.00290785
1.13 -0.00983796
1.14 -0.0158196
1.15 -0.0203883
1.16 -0.0227837
1.17 -0.0228034
1.18 -0.020173
1.19 -0.0147737
1.2 -0.00703935
1.21 0.00300441
1.22 0.0144664
1.23 0.0268079
1.24 0.0391584
1.25 0.0507611
1.26 0.0606115
1.27 0.0682375
1.28 0.072671
1.29 0.0737375
1.3 0.0710999
1.31 0.0645821
1.32 0.0547306
1.33 0.0414141
1.34 0.0257206
1.35 0.00812525
1.36 -0.0104284
1.37 -0.0291037
1.38 -0.0469245
1.39 -0.0632392
1.4 -0.0770898
1.41 -0.0881244
1.42 -0.0958985
1.43 -0.100073
1.44 -0.100995
1.45 -0.098294
1.46 -0.0928308
1.47 -0.0847723
1.48 -0.0747689
1.49 -0.0634252
1.5 -0.0512576
1.51 -0.0388804
1.52 -0.0267659
1.53 -0.0152795
1.54 -0.00469176
1.55 0.00479109
1.56 0.013234
1.57 0.020503
1.58 0.0268814
1.59 0.0324289
1.6 0.0373433
1.61 0.0417823
1.62 0.0458117
1.63 0.0495228
1.64 0.0528376
1.65 0.0556814
1.66 0.0578749
1.67 0.0591403
1.68 0.0593374
1.69 0.0579743
1.7 0.0550442
1.71 0.0502073
1.72 0.0434015
1.73 0.0346957
1.74 0.0240011
1.75 0.0117769
1.76 -0.00184234
1.77 -0.016299
1.78 -0.031158
1.79 -0.0458579
1.8 -0.0599495
1.81 -0.0727721
1.82 -0.0841104
1.83 -0.0935192
1.84 -0.100861
1.85 -0.106183
1.86 -0.109382
1.87 -0.110953
1.88 -0.111042
1.89 -0.110226
1.9 -0.108931
1.91 -0.107667
1.92 -0.106824
1.93 -0.106884
1.94 -0.107948
1.95 -0.110207
1.96 -0.113558
1.97 -0.117754
1.98 -0.122461
1.99 -0.127141
2 -0.131157
2.01 -0.1339
2.02 -0.134719
2.03 -0.132866
2.04 -0.128144
2.05 -0.119603
2.06 -0.107576
2.07 -0.0916634
2.08 -0.0720969
2.09 -0.0492803
2.1 -0.0233358
2.11 0.00484375
2.12 0.0349529
2.13 0.0662151
2.14 0.0981496
2.15 0.13028
2.16 0.162291
2.17 0.19396
2.18 0.225323
2.19 0.256488
2.2 0.287745
2.21 0.319414
2.22 0.351983
2.23 0.385675
2.24 0.420932
2.25 0.457727
2.26 0.496
2.27 0.535405
2.28 0.575252
2.29 0.614539
2.3 0.652149
2.31 0.686502
2.32 0.715965
2.33 0.739212
2.34 0.753683
2.35 0.759085
2.36 0.752832
2.37 0.735004
2.38 0.704855
2.39 0.661921
2.4 0.60799
2.41 0.542436
2.42 0.468577
2.43 0.387668
2.44 0.302537
2.45 0.215825
2.46 0.130558
2.47 0.0491442
2.48 -0.0251759
2.49 -0.0907382
2.5 -0.145682
2.51 -0.188283
2.52 -0.219305
2.53 -0.236899
2.54 -0.243809
2.55 -0.24037
2.56 -0.228885
2.57 -0.211766
2.58 -0.191237
2.59 -0.170161
2.6 -0.151079
2.61 -0.13611
2.62 -0.127069
2.63 -0.125656
2.64 -0.131761
2.65 -0.146818
2.66 -0.169027
2.67 -0.198037
2.68 -0.23204
2.69 -0.269125
2.7 -0.307284
2.71 -0.3444
2.72 -0.37823
2.73 -0.407286
2.74 -0.430207
2.75 -0.44582
2.76 -0.454604
2.77 -0.455704
2.78 -0.451055
2.79 -0.441379
2.8 -0.428585
2.81 -0.414527
2.82 -0.401305
2.83 -0.390589
2.84 -0.384468
2.85 -0.383874
2.86 -0.3897
2.87 -0.402504
2.88 -0.421301
2.89 -0.446125
2.9 -0.474737
2.91 -0.505749
2.92 -0.536906
2.93 -0.566237
2.94 -0.591157
2.95 -0.610482
2.96 -0.621885
2.97 -0.62505
2.98 -0.619433
2.99 -0.604972
3 -0.58338
3.01 -0.555156
3.02 -0.523247
3.03 -0.489618
3.04 -0.457055
3.05 -0.427835
3.06 -0.405028
3.07 -0.389675
3.08 -0.384341
3.09 -0.389006
3.1 -0.403996
3.11 -0.429037
3.12 -0.461912
3.13 -0.501734
3.14 -0.545088
3.15 -0.58963
3.16 -0.632287
3.17 -0.670673
3.18 -0.70159
3.19 -0.724259
3.2 -0.736309
3.21 -0.738242
3.22 -0.730232
3.23 -0.713238
3.24 -0.689946
3.25 -0.662228
3.26 -0.633697
3.27 -0.607402
3.28 -0.586667
3.29 -0.573832
3.3 -0.572411
3.31 -0.582387
3.32 -0.606013
3.33 -0.641799
3.34 -0.688798
3.35 -0.745022
3.36 -0.806833
3.37 -0.871062
3.38 -0.933447
3.39 -0.989899
3.4 -1.03652
3.41 -1.07084
3.42 -1.08873
3.43 -1.09107
3.44 -1.07557
3.45 -1.04489
3.46 -1.00085
3.47 -0.946599
3.48 -0.886967
3.49 -0.826493
3.5 -0.770229
3.51 -0.723226
3.52 -0.689727
3.53 -0.671968
3.54 -0.673727
3.55 -0.692514
3.56 -0.728738
3.57 -0.777048
3.58 -0.832435
3.59 -0.887115
3.6 -0.93341
3.61 -0.958912
3.62 -0.956644
3.63 -0.914353
3.64 -0.823125
3.65 -0.678123
3.66 -0.466575
3.67 -0.194021
3.68 0.148327
3.69 0.551895
3.7 1.01259
3.71 1.52314
3.72 2.06799
3.73 2.63697
3.74 3.21079
3.75 3.7731
3.76 4.30519
3.77 4.79267
3.78 5.21199
3.79 5.55857
3.8 5.81021
3.81 5.96596
3.82 6.01895
3.83 5.96304
3.84 5.81149
3.85 5.55476
3.86 5.2171
3.87 4.80298
3.88 4.32966
3.89 3.81445
3.9 3.27173
3.91 2.72109
3.92 2.17851
3.93 1.65872
3.94 1.1743
3.95 0.73848
3.96 0.353218
3.97 0.0326491
3.98 -0.230567
3.99 -0.432066
4 -0.576818
4.01 -0.672445
4.02 -0.721358
4.03 -0.737438
4.04 -0.725483
4.05 -0.696944
4.06 -0.659289
4.07 -0.62034
4.08 -0.585783
4.09 -0.561722
4.1 -0.549721
4.11 -0.552303
4.12 -0.569109
4.13 -0.598214
4.14 -0.638211
4.15 -0.684552
4.16 -0.734105
4.17 -0.782502
4.18 -0.826136
4.19 -0.860999
4.2 -0.885482
4.21 -0.895504
4.22 -0.891951
4.23 -0.873287
4.24 -0.840349
4.25 -0.794884
4.26 -0.737406
4.27 -0.671483
4.28 -0.598395
4.29 -0.521122
4.3 -0.441596
4.31 -0.361772
4.32 -0.283002
4.33 -0.206636
4.34 -0.132908
4.35 -0.0622211
4.36 0.00565386
4.37 0.0712027
4.38 0.13472
4.39 0.19693
4.4 0.258027
4.41 0.318221
4.42 0.377315
4.43 0.434648
4.44 0.489595
4.45 0.540345
4.46 0.585996
4.47 0.624455
4.48 0.654005
4.49 0.673572
4.5 0.680331
4.51 0.674911
4.52 0.654958
4.53 0.621478
4.54 0.574568
4.55 0.514628
4.56 0.444312
4.57 0.364036
4.58 0.277467
4.59 0.186502
4.6 0.094064
4.61 0.00258277
4.62 -0.0850696
4.63 -0.167399
4.64 -0.2419
4.65 -0.30794
4.66 -0.364704
4.67 -0.411559
4.68 -0.449825
4.69 -0.478927
4.7 -0.501279
4.71 -0.517637
4.72 -0.529771
4.73 -0.539302
4.74 -0.547596
4.75 -0.55603
4.76 -0.565687
4.77 -0.577195
4.78 -0.590926
4.79 -0.607014
4.8 -0.624963
4.81 -0.644479
4.82 -0.664625
4.83 -0.684652
4.84 -0.703652
4.85 -0.720965
4.86 -0.735652
4.87 -0.747627
4.88 -0.75629
4.89 -0.761924
4.9 -0.764712
4.91 -0.765026
4.92 -0.763682
4.93 -0.761227
4.94 -0.758582
4.95 -0.756458
4.96 -0.755557
4.97 -0.756297
4.98 -0.759271
4.99 -0.764327
5 -0.771692
5.01 -0.78094
5.02 -0.791743
5.03 -0.803631
5.04 -0.815997
5.05 -0.828295
5.06 -0.840031
5.07 -0.850749
5.08 -0.86014
5.09 -0.868108
5.1 -0.874416
5.11 -0.879318
5.12 -0.882722
5.13 -0.884838
5.14 -0.885667
5.15 -0.885027
5.16 -0.882811
5.17 -0.878154
5.18 -0.870601
5.19 -0.858855
5.2 -0.841568
5.21 -0.81764
5.22 -0.784398
5.23 -0.741496
5.24 -0.686002
5.25 -0.617526
5.26 -0.53493
5.27 -0.436971
5.28 -0.325347
5.29 -0.198658
5.3 -0.0605299
5.31 0.0877915
5.32 0.242868
5.33 0.401042
5.34 0.557915
5.35 0.709361
5.36 0.849734
5.37 0.975075
5.38 1.08104
5.39 1.16233
5.4 1.21867
5.41 1.24322
5.42 1.23912
5.43 1.20368
5.44 1.13846
5.45 1.04682
5.46 0.929043
5.47 0.792341
5.48 0.639047
5.49 0.475784
5.5 0.30739
5.51 0.139512
5.52 -0.023375
5.53 -0.175305
5.54 -0.313993
5.55 -0.435415
5.56 -0.537675
5.57 -0.620807
5.58 -0.682415
5.59 -0.726157
5.6 -0.751369
5.61 -0.761846
5.62 -0.759865
5.63 -0.748016
5.64 -0.729956
5.65 -0.707727
5.66 -0.684257
5.67 -0.661258
5.68 -0.640124
5.69 -0.621373
5.7 -0.605358
5.71 -0.591223
5.72 -0.578176
5.73 -0.564739
5.74 -0.549473
5.75 -0.530553
5.76 -0.507084
5.77 -0.477021
5.78 -0.440566
5.79 -0.396981
5.8 -0.346778
5.81 -0.291148
5.82 -0.231119
5.83 -0.169126
5.84 -0.107319
5.85 -0.0483087
5.86 0.00544956
5.87 0.0509333
5.88 0.0870225
5.89 0.110105
5.9 0.120697
5.91 0.117091
5.92 0.0994872
5.93 0.0691791
5.94 0.0260073
5.95 -0.0266544
5.96 -0.0878053
5.97 -0.154265
5.98 -0.223739
5.99 -0.29361
6 -0.361769
6.01 -0.425705
6.02 -0.484473
6.03 -0.536641
6.04 -0.581774
6.05 -0.620269
6.06 -0.651897
6.07 -0.67845
6.08 -0.700537
6.09 -0.719961
6.1 -0.738037
6.11 -0.756206
6.12 -0.775502
6.13 -0.797077
6.14 -0.821099
6.15 -0.847844
6.16 -0.876924
6.17 -0.907595
6.18 -0.938934
6.19 -0.969731
6.2 -0.998592
6.21 -1.02438
6.22 -1.04605
6.23 -1.06246
6.24 -1.07374
6.25 -1.0789
6.26 -1.07911
6.27 -1.07461
6.28 -1.06655
6.29 -1.0562
6.3 -1.04472
6.31 -1.03339
6.32 -1.02316
6.33 -1.01447
6.34 -1.00726
6.35 -1.00073
6.36 -0.993446
6.37 -0.982619
6.38 -0.96562
6.39 -0.93823
6.4 -0.895912
6.41 -0.835245
6.42 -0.748532
6.43 -0.634957
6.44 -0.4868
6.45 -0.303346
6.46 -0.0821423
6.47 0.179719
6.48 0.477287
6.49 0.813832
6.5 1.17999
6.51 1.5726
6.52 1.98338
6.53 2.40348
6.54 2.82293
6.55 3.23189
6.56 3.61775
6.57 3.97112
6.58 4.28213
6.59 4.53831
6.6 4.73842
6.61 4.86627
6.62 4.92753
6.63 4.9148
6.64 4.8294
6.65 4.67755
6.66 4.45626
6.67 4.1811
6.68 3.85362
6.69 3.4877
6.7 3.09264
6.71 2.679
6.72 2.25861
6.73 1.8422
6.74 1.43893
6.75 1.05826
6.76 0.707694
6.77 0.390745
6.78 0.116196
6.79 -0.119497
6.8 -0.310627
6.81 -0.461504
6.82 -0.573756
6.83 -0.648999
6.84 -0.694927
6.85 -0.711966
6.86 -0.708934
6.87 -0.688976
6.88 -0.65739
6.89 -0.618679
6.9 -0.576152
6.91 -0.533171
6.92 -0.492048
6.93 -0.454292
6.94 -0.420811
6.95 -0.392269
6.96 -0.368092
6.97 -0.348604
6.98 -0.332654
6.99 -0.319987
7 -0.310037
7.01 -0.302356
7.02 -0.297108
7.03 -0.294094
7.04 -0.293993
7.05 -0.297182
7.06 -0.304355
7.07 -0.31658
7.08 -0.33397
7.09 -0.358054
7.1 -0.388314
7.11 -0.425341
7.12 -0.468793
7.13 -0.517771
7.14 -0.571881
7.15 -0.629214
7.16 -0.68858
7.17 -0.748026
7.18 -0.805865
7.19 -0.860023
7.2 -0.909415
7.21 -0.951686
7.22 -0.986741
7.23 -1.01338
7.24 -1.03149
7.25 -1.04179
7.26 -1.04412
7.27 -1.04059
7.28 -1.03193
7.29 -1.02021
7.3 -1.007
7.31 -0.99408
7.32 -0.982762
7.33 -0.974649
7.34 -0.970092
7.35 -0.969654
7.36 -0.973018
7.37 -0.97925
7.38 -0.987186
7.39 -0.994862
7.4 -0.999942
7.41 -1.00002
7.42 -0.992588
7.43 -0.974316
7.44 -0.944166
7.45 -0.897805
7.46 -0.835759
7.47 -0.755766
7.48 -0.657632
7.49 -0.542721
7.5 -0.410178
7.51 -0.264176
7.52 -0.105638
7.53 0.0612195
7.54 0.23308
7.55 0.405802
7.56 0.575547
7.57 0.737156
7.58 0.887711
7.59 1.02275
7.6 1.13893
7.61 1.23486
7.62 1.30561
7.63 1.35332
7.64 1.37436
7.65 1.37081
7.66 1.34321
7.67 1.2918
7.68 1.22095
7.69 1.13024
7.7 1.02512
7.71 0.907455
7.72 0.780872
7.73 0.648862
7.74 0.514435
7.75 0.380878
7.76 0.251319
7.77 0.128234
7.78 0.0138657
7.79 -0.0890419
7.8 -0.180235
7.81 -0.256362
7.82 -0.318526
7.83 -0.36515
7.84 -0.396263
7.85 -0.412999
7.86 -0.414216
7.87 -0.402954
7.88 -0.378967
7.89 -0.34486
7.9 -0.302306
7.91 -0.25317
7.92 -0.200225
7.93 -0.145533
7.94 -0.0917642
7.95 -0.0413238
7.96 0.00332595
7.97 0.040613
7.98 0.067476
7.99 0.0839111
8 0.087459
8.01 0.0783974
8.02 0.0565043
8.03 0.0214406
8.04 -0.0245979
8.05 -0.0819461
8.06 -0.147419
8.07 -0.219697
8.08 -0.296303
8.09 -0.374877
8.1 -0.453023
8.11 -0.528719
8.12 -0.599646
8.13 -0.66448
8.14 -0.72208
8.15 -0.771238
8.16 -0.812678
8.17 -0.845449
8.18 -0.871414
8.19 -0.891111
8.2 -0.906078
8.21 -0.91796
8.22 -0.928099
8.23 -0.93805
8.24 -0.948933
8.25 -0.961406
8.26 -0.975644
8.27 -0.991281
8.28 -1.00721
8.29 -1.02154
8.3 -1.03217
8.31 -1.03603
8.32 -1.02964
8.33 -1.01046
8.34 -0.972736
8.35 -0.915737
8.36 -0.833846
8.37 -0.726236
8.38 -0.591128
8.39 -0.425994
8.4 -0.234322
8.41 -0.0133284
8.42 0.2306
8.43 0.495623
8.44 0.776401
8.45 1.06685
8.46 1.36087
8.47 1.65133
8.48 1.93028
8.49 2.19099
8.5 2.42685
8.51 2.62925
8.52 2.79676
8.53 2.91857
8.54 2.99729
8.55 3.02769
8.56 3.0095
8.57 2.94638
8.58 2.8349
8.59 2.68501
8.6 2.49658
8.61 2.27811
8.62 2.03525
8.63 1.77401
8.64 1.50265
8.65 1.22715
8.66 0.954552
8.67 0.690862
8.68 0.441722
8.69 0.210231
8.7 0.00264976
8.71 -0.182013
8.72 -0.339454
8.73 -0.471224
8.74 -0.577737
8.75 -0.659049
8.76 -0.719823
8.77 -0.759679
8.78 -0.784344
8.79 -0.795792
8.8 -0.797662
8.81 -0.793398
8.82 -0.785544
8.83 -0.77706
8.84 -0.770099
8.85 -0.766328
8.86 -0.766876
8.87 -0.7728
8.88 -0.783735
8.89 -0.800307
8.9 -0.821267
8.91 -0.846177
8.92 -0.873951
8.93 -0.90344
8.94 -0.933613
8.95 -0.96338
8.96 -0.99173
8.97 -1.01796
8.98 -1.04154
8.99 -1.06191
9 -1.07928
9.01 -1.09325
9.02 -1.10446
9.03 -1.11306
9.04 -1.11955
9.05 -1.12445
9.06 -1.12807
9.07 -1.13092
9.08 -1.13316
9.09 -1.1349
9.1 -1.13607
9.11 -1.13629
9.12 -1.13525
9.13 -1.13201
9.14 -1.12607
9.15 -1.11638
9.16 -1.10195
9.17 -1.08227
9.18 -1.05569
9.19 -1.02253
9.2 -0.98148
9.21 -0.932884
9.22 -0.876815
9.23 -0.813301
9.24 -0.743871
9.25 -0.668816
9.26 -0.590291
9.27 -0.509679
9.28 -0.42905
9.29 -0.350231
9.3 -0.27583
9.31 -0.207163
9.32 -0.146878
9.33 -0.0961093
9.34 -0.056115
9.35 -0.0286086
9.36 -0.0126667
9.37 -0.0101913
9.38 -0.0190131
9.39 -0.0390846
9.4 -0.068918
9.41 -0.106399
9.42 -0.150337
9.43 -0.197826
9.44 -0.247068
9.45 -0.295706
9.46 -0.341887
9.47 -0.383507
9.48 -0.419784
9.49 -0.448716
9.5 -0.470657
9.51 -0.484974
9.52 -0.492037
9.53 -0.492941
9.54 -0.48806
9.55 -0.479455
9.56 -0.468199
9.57 -0.456115
9.58 -0.444637
9.59 -0.435393
9.6 -0.429241
9.61 -0.427725
9.62 -0.430875
9.63 -0.43929
9.64 -0.452875
9.65 -0.470966
9.66 -0.493444
9.67 -0.518906
9.68 -0.546749
9.69 -0.575785
9.7 -0.605155
9.71 -0.633984
9.72 -0.661774
9.73 -0.687928
9.74 -0.712508
9.75 -0.735482
9.76 -0.757147
9.77 -0.777933
9.78 -0.798196
9.79 -0.818332
9.8 -0.838479
9.81 -0.858477
9.82 -0.877809
9.83 -0.89527
9.84 -0.909628
9.85 -0.917985
9.86 -0.918379
9.87 -0.907149
9.88 -0.880446
9.89 -0.83582
9.9 -0.766379
9.91 -0.671985
9.92 -0.546057
9.93 -0.3878
9.94 -0.195347
9.95 0.0345498
9.96 0.297527
9.97 0.597188
9.98 0.925984
9.99 1.28186
10 1.65869
10.01 2.04904
10.02 2.44593
10.03 2.84038
10.04 3.22293
10.05 3.58494
10.06 3.91821
10.07 4.21167
10.08 4.46306
10.09 4.65876
10.1 4.80102
10.11 4.88305
10.12 4.90352
10.13 4.86674
10.14 4.76729
10.15 4.61749
10.16 4.41644
10.17 4.17433
10.18 3.89806
10.19 3.59447
10.2 3.27422
10.21 2.94401
10.22 2.61316
10.23 2.28877
10.24 1.97796
10.25 1.6848
10.26 1.41665
10.27 1.1729
10.28 0.958342
10.29 0.771544
10.3 0.611888
10.31 0.479288
10.32 0.368473
10.33 0.279491
10.34 0.206107
10.35 0.145878
10.36 0.0948142
10.37 0.0492113
10.38 0.00628317
10.39 -0.0368386
10.4 -0.0822848
10.41 -0.13144
10.42 -0.185111
10.43 -0.243939
10.44 -0.307164
10.45 -0.374786
10.46 -0.445278
10.47 -0.517674
10.48 -0.590513
10.49 -0.662523
10.5 -0.732056
10.51 -0.798288
10.52 -0.859724
10.53 -0.915772
10.54 -0.965828
10.55 -1.009
10.56 -1.04583
10.57 -1.07522
10.58 -1.09816
10.59 -1.11436
10.6 -1.1241
10.61 -1.12805
10.62 -1.12578
10.63 -1.11844
10.64 -1.10573
10.65 -1.08834
10.66 -1.06656
10.67 -1.0405
10.68 -1.01099
10.69 -0.977962
10.7 -0.942354
10.71 -0.904549
10.72 -0.865265
10.73 -0.825261
10.74 -0.785357
10.75 -0.746357
10.76 -0.709273
10.77 -0.674909
10.78 -0.644049
10.79 -0.61781
10.8 -0.596305
10.81 -0.580922
10.82 -0.571329
10.83 -0.568169
10.84 -0.571532
10.85 -0.580898
10.86 -0.596804
10.87 -0.617928
10.88 -0.644328
10.89 -0.674942
10.9 -0.709033
10.91 -0.745881
10.92 -0.784367
10.93 -0.823759
10.94 -0.863061
10.95 -0.901469
10.96 -0.938147
10.97 -0.9726
10.98 -1.00385
10.99 -1.0319
11 -1.056
11.01 -1.07619
11.02 -1.09241
11.03 -1.10446
11.04 -1.11298
11.05 -1.11778
11.06 -1.11978
11.07 -1.1193
11.08 -1.11705
11.09 -1.11378
11.1 -1.11017
11.11 -1.10695
11.12 -1.10483
11.13 -1.10433
11.14 -1.1058
11.15 -1.10958
11.16 -1.11536
11.17 -1.12304
11.18 -1.13169
11.19 -1.14037
11.2 -1.14756
11.21 -1.15181
11.22 -1.15038
11.23 -1.14189
11.24 -1.12298
11.25 -1.09167
11.26 -1.04571
11.27 -0.981522
11.28 -0.899335
11.29 -0.794548
11.3 -0.668898
11.31 -0.520639
11.32 -0.350159
11.33 -0.160026
11.34 0.0502427
11.35 0.275105
11.36 0.512656
11.37 0.757579
11.38 1.00533
11.39 1.25017
11.4 1.48737
11.41 1.70955
11.42 1.9131
11.43 2.09193
11.44 2.24114
11.45 2.35941
11.46 2.43913
11.47 2.48398
11.48 2.48898
11.49 2.45703
11.5 2.38967
11.51 2.28726
11.52 2.15692
11.53 1.99888
11.54 1.82136
11.55 1.62805
11.56 1.42478
11.57 1.217
11.58 1.0099
11.59 0.807817
11.6 0.615481
11.61 0.435767
11.62 0.270948
11.63 0.123925
11.64 -0.00658128
11.65 -0.117973
11.66 -0.213332
11.67 -0.292939
11.68 -0.358809
11.69 -0.413894
11.7 -0.459432
11.71 -0.499121
11.72 -0.534638
11.73 -0.568447
11.74 -0.602179
11.75 -0.637302
11.76 -0.674414
11.77 -0.714166
11.78 -0.756027
11.79 -0.799465
11.8 -0.843271
11.81 -0.886105
11.82 -0.925848
11.83 -0.961117
11.84 -0.989374
11.85 -1.00903
11.86 -1.01847
11.87 -1.01521
11.88 -0.999504
11.89 -0.96836
11.9 -0.923077
11.91 -0.862594
11.92 -0.787158
11.93 -0.698422
11.94 -0.595702
11.95 -0.482348
11.96 -0.358867
11.97 -0.228022
11.98 -0.0919547
11.99 0.0469662
12 0.186084
12.01 0.322551
12.02 0.454074
12.03 0.577918
12.04 0.691467
12.05 0.793487
12.06 0.880109
12.07 0.951959
12.08 1.00597
12.09 1.04232
12.1 1.0607
12.11 1.05985
12.12 1.04239
12.13 1.0067
12.14 0.956323
12.15 0.891954
12.16 0.815755
12.17 0.730613
12.18 0.638052
12.19 0.541554
12.2 0.443209
12.21 0.345664
12.22 0.250958
12.23 0.161449
12.24 0.0779696
12.25 0.0027262
12.26 -0.0645789
12.27 -0.123233
12.28 -0.173456
12.29 -0.216432
12.3 -0.252272
12.31 -0.283236
12.32 -0.310251
12.33 -0.335215
12.34 -0.359578
12.35 -0.384897
12.36 -0.412149
12.37 -0.442596
12.38 -0.476328
12.39 -0.513577
12.4 -0.553887
12.41 -0.596247
12.42 -0.639452
