# xPDFsuite Configuration #
[PDF]
wavelength = 0.1432
dataformat = twotheta
inputfile = 1_1Pd_CeO2_cycle-00278.chi
backgroundfile = background-00000.chi
mode = xray
bgscale = 1.007
composition = CeO2
outputtype = gr
qmaxinst = 28.8974762299
qmin = 0.5
qmax = 27.9
rmax = 50.0
rmin = 0.0
rstep = 0.01
rpoly = 1.8657

[Misc]
inputdir = G:/SankarDec16/1Pd/Chi
savedir = D:/DATA/APS_CeO2/1Pd
backgroundfilefull = G:/SankarDec16/Background/background-00000.chi

#### start data
#S 1
#L r($\AA$)  G($\AA^{-2}$)
0 0
0.01 -0.00803913
0.02 -0.0154744
0.03 -0.0216839
0.04 -0.0261988
0.05 -0.028758
0.06 -0.0289412
0.07 -0.0270264
0.08 -0.0228768
0.09 -0.0170237
0.1 -0.0098339
0.11 -0.00186997
0.12 0.00625249
0.13 0.0138449
0.14 0.0204155
0.15 0.0253646
0.16 0.0283383
0.17 0.0291932
0.18 0.0276391
0.19 0.0240828
0.2 0.0185349
0.21 0.011614
0.22 0.00377555
0.23 -0.00434921
0.24 -0.0121792
0.25 -0.0189724
0.26 -0.0243714
0.27 -0.0278264
0.28 -0.0291145
0.29 -0.0282168
0.3 -0.0249868
0.31 -0.0199417
0.32 -0.0132393
0.33 -0.00555762
0.34 0.00257975
0.35 0.0105013
0.36 0.0176871
0.37 0.0233755
0.38 0.0273598
0.39 0.0291654
0.4 0.0287106
0.41 0.0261027
0.42 0.0213456
0.43 0.015044
0.44 0.00749592
0.45 -0.000591591
0.46 -0.00865083
0.47 -0.016
0.48 -0.0222045
0.49 -0.0265178
0.5 -0.0288938
0.51 -0.0289551
0.52 -0.0267656
0.53 -0.0225539
0.54 -0.0164756
0.55 -0.00919529
0.56 -0.00113813
0.57 0.0069916
0.58 0.0146082
0.59 0.0210502
0.6 0.0259888
0.61 0.028727
0.62 0.0293817
0.63 0.0276907
0.64 0.0238614
0.65 0.0182341
0.66 0.0111095
0.67 0.0031824
0.68 -0.00501377
0.69 -0.0128091
0.7 -0.0196268
0.71 -0.0248553
0.72 -0.0282873
0.73 -0.0293066
0.74 -0.0281885
0.75 -0.0247978
0.76 -0.019476
0.77 -0.0126595
0.78 -0.0047802
0.79 0.00346891
0.8 0.0114716
0.81 0.0186229
0.82 0.024382
0.83 0.028216
0.84 0.030048
0.85 0.0293712
0.86 0.0266049
0.87 0.0217456
0.88 0.01525
0.89 0.00762654
0.9 -0.000588076
0.91 -0.00873946
0.92 -0.0161683
0.93 -0.0223692
0.94 -0.0268738
0.95 -0.0292657
0.96 -0.0296065
0.97 -0.0275465
0.98 -0.0236262
0.99 -0.0179907
1 -0.0111944
1.01 -0.00379242
1.02 0.00358894
1.03 0.0103849
1.04 0.015924
1.05 0.0198511
1.06 0.0218139
1.07 0.0215659
1.08 0.0193399
1.09 0.0150161
1.1 0.009269
1.11 0.0024524
1.12 -0.00474952
1.13 -0.0117151
1.14 -0.0176584
1.15 -0.0221266
1.16 -0.024357
1.17 -0.0241618
1.18 -0.0212746
1.19 -0.0155875
1.2 -0.0075475
1.21 0.00281066
1.22 0.0145853
1.23 0.0272299
1.24 0.0398682
1.25 0.0517405
1.26 0.061838
1.27 0.0696909
1.28 0.0743283
1.29 0.0755785
1.3 0.0731038
1.31 0.0667268
1.32 0.0569951
1.33 0.0437703
1.34 0.0281411
1.35 0.0105757
1.36 -0.00798647
1.37 -0.0267108
1.38 -0.0446283
1.39 -0.0610822
1.4 -0.0751179
1.41 -0.0863737
1.42 -0.0943976
1.43 -0.098838
1.44 -0.100029
1.45 -0.0975771
1.46 -0.0923313
1.47 -0.084438
1.48 -0.0745341
1.49 -0.0632173
1.5 -0.0509913
1.51 -0.038484
1.52 -0.0261692
1.53 -0.0144382
1.54 -0.00358566
1.55 0.00614553
1.56 0.0147875
1.57 0.0221501
1.58 0.0284919
1.59 0.0338229
1.6 0.0383136
1.61 0.0421115
1.62 0.0452516
1.63 0.047865
1.64 0.0498728
1.65 0.0512636
1.66 0.0519108
1.67 0.0516147
1.68 0.0503126
1.69 0.0476286
1.7 0.0436215
1.71 0.0380624
1.72 0.0309632
1.73 0.0224325
1.74 0.012478
1.75 0.00150079
1.76 -0.0103092
1.77 -0.0224899
1.78 -0.0346624
1.79 -0.04636
1.8 -0.0572745
1.81 -0.0668747
1.82 -0.0750993
1.83 -0.0816619
1.84 -0.086572
1.85 -0.0899769
1.86 -0.0919504
1.87 -0.0929686
1.88 -0.0933123
1.89 -0.0934887
1.9 -0.0939066
1.91 -0.0950214
1.92 -0.0970573
1.93 -0.100425
1.94 -0.105006
1.95 -0.110842
1.96 -0.117645
1.97 -0.125021
1.98 -0.132437
1.99 -0.139303
2 -0.144814
2.01 -0.148369
2.02 -0.149287
2.03 -0.146823
2.04 -0.140907
2.05 -0.1306
2.06 -0.11644
2.07 -0.0981278
2.08 -0.0760605
2.09 -0.0507796
2.1 -0.0225653
2.11 0.00760466
2.12 0.0392895
2.13 0.0716861
2.14 0.104275
2.15 0.136564
2.16 0.168319
2.17 0.199314
2.18 0.229725
2.19 0.259727
2.2 0.289722
2.21 0.320123
2.22 0.351519
2.23 0.384188
2.24 0.418648
2.25 0.454883
2.26 0.492846
2.27 0.532182
2.28 0.572145
2.29 0.61171
2.3 0.649679
2.31 0.684422
2.32 0.714246
2.33 0.737785
2.34 0.752438
2.35 0.757917
2.36 0.751628
2.37 0.733692
2.38 0.703399
2.39 0.660348
2.4 0.606379
2.41 0.540948
2.42 0.467404
2.43 0.387056
2.44 0.302746
2.45 0.217099
2.46 0.133127
2.47 0.0531547
2.48 -0.0196505
2.49 -0.0837399
2.5 -0.137366
2.51 -0.178946
2.52 -0.209322
2.53 -0.226823
2.54 -0.234193
2.55 -0.23186
2.56 -0.222118
2.57 -0.207313
2.58 -0.189642
2.59 -0.171776
2.6 -0.156136
2.61 -0.144623
2.62 -0.13886
2.63 -0.140307
2.64 -0.148718
2.65 -0.165232
2.66 -0.188039
2.67 -0.216619
2.68 -0.249157
2.69 -0.283811
2.7 -0.318573
2.71 -0.351588
2.72 -0.38073
2.73 -0.404809
2.74 -0.422706
2.75 -0.433545
2.76 -0.438019
2.77 -0.435623
2.78 -0.428367
2.79 -0.417195
2.8 -0.404073
2.81 -0.390813
2.82 -0.379569
2.83 -0.371738
2.84 -0.36934
2.85 -0.372993
2.86 -0.383361
2.87 -0.400713
2.88 -0.423829
2.89 -0.45243
2.9 -0.48416
2.91 -0.517433
2.92 -0.549928
2.93 -0.579706
2.94 -0.604143
2.95 -0.62229
2.96 -0.631902
2.97 -0.632931
2.98 -0.625039
2.99 -0.608415
3 -0.584951
3.01 -0.555402
3.02 -0.522762
3.03 -0.489124
3.04 -0.457256
3.05 -0.42935
3.06 -0.408397
3.07 -0.395199
3.08 -0.392125
3.09 -0.398893
3.1 -0.415591
3.11 -0.441673
3.12 -0.474815
3.13 -0.513835
3.14 -0.555402
3.15 -0.597087
3.16 -0.635935
3.17 -0.66975
3.18 -0.695513
3.19 -0.712791
3.2 -0.719524
3.21 -0.716556
3.22 -0.70438
3.23 -0.684314
3.24 -0.659148
3.25 -0.631151
3.26 -0.60378
3.27 -0.580203
3.28 -0.563583
3.29 -0.556011
3.3 -0.56081
3.31 -0.577512
3.32 -0.608037
3.33 -0.650472
3.34 -0.703506
3.35 -0.764751
3.36 -0.830427
3.37 -0.896951
3.38 -0.960197
3.39 -1.01596
3.4 -1.0605
3.41 -1.09159
3.42 -1.10532
3.43 -1.10301
3.44 -1.08272
3.45 -1.04749
3.46 -0.999488
3.47 -0.942232
3.48 -0.880652
3.49 -0.819618
3.5 -0.764004
3.51 -0.71889
3.52 -0.688282
3.53 -0.674119
3.54 -0.679857
3.55 -0.702584
3.56 -0.74227
3.57 -0.793202
3.58 -0.85003
3.59 -0.90463
3.6 -0.949332
3.61 -0.971423
3.62 -0.964274
3.63 -0.915703
3.64 -0.817181
3.65 -0.664306
3.66 -0.444801
3.67 -0.164721
3.68 0.184107
3.69 0.592679
3.7 1.05648
3.71 1.56779
3.72 2.11115
3.73 2.67593
3.74 3.24337
3.75 3.79718
3.76 4.31913
3.77 4.7954
3.78 5.203
3.79 5.53804
3.8 5.77904
3.81 5.92562
3.82 5.97147
3.83 5.91098
3.84 5.75741
3.85 5.5018
3.86 5.16788
3.87 4.76014
3.88 4.29537
3.89 3.79029
3.9 3.2588
3.91 2.71966
3.92 2.1882
3.93 1.6785
3.94 1.20257
3.95 0.773032
3.96 0.391791
3.97 0.0724038
3.98 -0.192053
3.99 -0.397256
4 -0.547762
4.01 -0.650668
4.02 -0.70792
4.03 -0.732666
4.04 -0.729082
4.05 -0.708013
4.06 -0.676409
4.07 -0.64156
4.08 -0.609094
4.09 -0.584631
4.1 -0.570131
4.11 -0.568124
4.12 -0.578673
4.13 -0.600357
4.14 -0.632266
4.15 -0.670509
4.16 -0.712587
4.17 -0.754665
4.18 -0.793612
4.19 -0.825907
4.2 -0.849925
4.21 -0.862026
4.22 -0.862641
4.23 -0.85018
4.24 -0.825021
4.25 -0.788386
4.26 -0.740258
4.27 -0.683563
4.28 -0.618933
4.29 -0.54884
4.3 -0.474754
4.31 -0.398168
4.32 -0.320475
4.33 -0.242606
4.34 -0.165271
4.35 -0.0889421
4.36 -0.0138528
4.37 0.059958
4.38 0.132267
4.39 0.203172
4.4 0.272246
4.41 0.339219
4.42 0.403457
4.43 0.463873
4.44 0.51989
4.45 0.569317
4.46 0.611708
4.47 0.645044
4.48 0.668048
4.49 0.680137
4.5 0.678971
4.51 0.665748
4.52 0.638682
4.53 0.59921
4.54 0.547809
4.55 0.485256
4.56 0.414145
4.57 0.335216
4.58 0.251715
4.59 0.165461
4.6 0.0789758
4.61 -0.00574774
4.62 -0.0862653
4.63 -0.161576
4.64 -0.229658
4.65 -0.290238
4.66 -0.342813
4.67 -0.38705
4.68 -0.424205
4.69 -0.453947
4.7 -0.47833
4.71 -0.498028
4.72 -0.514474
4.73 -0.528933
4.74 -0.54243
4.75 -0.55596
4.76 -0.570248
4.77 -0.585669
4.78 -0.602387
4.79 -0.620355
4.8 -0.639158
4.81 -0.658387
4.82 -0.677393
4.83 -0.695539
4.84 -0.712183
4.85 -0.726921
4.86 -0.73908
4.87 -0.748785
4.88 -0.755666
4.89 -0.760102
4.9 -0.762341
4.91 -0.762777
4.92 -0.762087
4.93 -0.760751
4.94 -0.759446
4.95 -0.758698
4.96 -0.758977
4.97 -0.760529
4.98 -0.763714
4.99 -0.768353
5 -0.774537
5.01 -0.781925
5.02 -0.790263
5.03 -0.799228
5.04 -0.808452
5.05 -0.817636
5.06 -0.826547
5.07 -0.835012
5.08 -0.842963
5.09 -0.850434
5.1 -0.857438
5.11 -0.864111
5.12 -0.870456
5.13 -0.876455
5.14 -0.881927
5.15 -0.886424
5.16 -0.889501
5.17 -0.889929
5.18 -0.886944
5.19 -0.878901
5.2 -0.864189
5.21 -0.841595
5.22 -0.808186
5.23 -0.763818
5.24 -0.705493
5.25 -0.633134
5.26 -0.545847
5.27 -0.442724
5.28 -0.325848
5.29 -0.194236
5.3 -0.0518264
5.31 0.099777
5.32 0.256898
5.33 0.415808
5.34 0.571907
5.35 0.721337
5.36 0.858472
5.37 0.979733
5.38 1.08108
5.39 1.15764
5.4 1.2095
5.41 1.23034
5.42 1.22352
5.43 1.18671
5.44 1.12166
5.45 1.03169
5.46 0.917211
5.47 0.785039
5.48 0.637367
5.49 0.480331
5.5 0.318355
5.51 0.156556
5.52 -0.000988625
5.53 -0.148939
5.54 -0.28519
5.55 -0.406105
5.56 -0.509905
5.57 -0.59652
5.58 -0.663618
5.59 -0.714319
5.6 -0.747723
5.61 -0.767
5.62 -0.773902
5.63 -0.770364
5.64 -0.759583
5.65 -0.742844
5.66 -0.722904
5.67 -0.701031
5.68 -0.678509
5.69 -0.656015
5.7 -0.633838
5.71 -0.611782
5.72 -0.589337
5.73 -0.565764
5.74 -0.540231
5.75 -0.511666
5.76 -0.479699
5.77 -0.443141
5.78 -0.402384
5.79 -0.35719
5.8 -0.308188
5.81 -0.256394
5.82 -0.202907
5.83 -0.149428
5.84 -0.0978013
5.85 -0.0498225
5.86 -0.00728071
5.87 0.0276252
5.88 0.0543567
5.89 0.0702323
5.9 0.0759911
5.91 0.0704777
5.92 0.0540394
5.93 0.0277937
5.94 -0.00830848
5.95 -0.0516746
5.96 -0.101596
5.97 -0.155756
5.98 -0.212555
5.99 -0.270241
6 -0.327345
6.01 -0.38233
6.02 -0.434537
6.03 -0.48314
6.04 -0.527912
6.05 -0.569118
6.06 -0.606717
6.07 -0.641732
6.08 -0.674556
6.09 -0.706137
6.1 -0.737118
6.11 -0.76811
6.12 -0.799459
6.13 -0.831387
6.14 -0.863689
6.15 -0.896015
6.16 -0.927695
6.17 -0.958041
6.18 -0.985853
6.19 -1.01059
6.2 -1.03097
6.21 -1.04661
6.22 -1.05704
6.23 -1.06183
6.24 -1.06177
6.25 -1.05667
6.26 -1.04811
6.27 -1.03691
6.28 -1.02452
6.29 -1.01224
6.3 -1.00153
6.31 -0.993149
6.32 -0.988039
6.33 -0.98603
6.34 -0.986623
6.35 -0.98849
6.36 -0.989611
6.37 -0.986622
6.38 -0.976502
6.39 -0.954585
6.4 -0.916064
6.41 -0.857473
6.42 -0.770877
6.43 -0.655818
6.44 -0.504585
6.45 -0.316898
6.46 -0.0906282
6.47 0.176729
6.48 0.479809
6.49 0.821447
6.5 1.192
6.51 1.58797
6.52 2.00089
6.53 2.42188
6.54 2.84081
6.55 3.24808
6.56 3.6311
6.57 3.9808
6.58 4.28754
6.59 4.53912
6.6 4.73461
6.61 4.85809
6.62 4.91544
6.63 4.89948
6.64 4.81165
6.65 4.65821
6.66 4.43626
6.67 4.16123
6.68 3.83466
6.69 3.47026
6.7 3.07719
6.71 2.66587
6.72 2.24795
6.73 1.83407
6.74 1.43325
6.75 1.05487
6.76 0.706381
6.77 0.391286
6.78 0.11834
6.79 -0.115945
6.8 -0.305856
6.81 -0.45565
6.82 -0.566925
6.83 -0.641277
6.84 -0.68638
6.85 -0.702681
6.86 -0.699008
6.87 -0.678552
6.88 -0.646659
6.89 -0.607866
6.9 -0.565568
6.91 -0.523116
6.92 -0.482885
6.93 -0.44635
6.94 -0.4144
6.95 -0.387652
6.96 -0.365434
6.97 -0.347983
6.98 -0.334024
6.99 -0.323181
7 -0.314767
7.01 -0.308256
7.02 -0.303674
7.03 -0.300845
7.04 -0.300374
7.05 -0.302706
7.06 -0.308592
7.07 -0.319189
7.08 -0.334765
7.09 -0.356983
7.1 -0.385492
7.11 -0.421039
7.12 -0.463427
7.13 -0.511832
7.14 -0.566003
7.15 -0.623969
7.16 -0.68459
7.17 -0.745791
7.18 -0.805782
7.19 -0.862341
7.2 -0.914197
7.21 -0.958792
7.22 -0.995863
7.23 -1.02402
7.24 -1.04302
7.25 -1.05353
7.26 -1.05523
7.27 -1.0504
7.28 -1.03974
7.29 -1.02551
7.3 -1.00943
7.31 -0.9935
7.32 -0.979248
7.33 -0.968543
7.34 -0.961896
7.35 -0.960078
7.36 -0.962899
7.37 -0.969435
7.38 -0.978629
7.39 -0.988322
7.4 -0.996133
7.41 -0.999402
7.42 -0.995414
7.43 -0.980558
7.44 -0.953558
7.45 -0.909758
7.46 -0.849542
7.47 -0.770431
7.48 -0.672133
7.49 -0.556049
7.5 -0.421257
7.51 -0.272199
7.52 -0.109905
7.53 0.0610887
7.54 0.237194
7.55 0.413929
7.56 0.587204
7.57 0.751473
7.58 0.903711
7.59 1.03923
7.6 1.15462
7.61 1.2486
7.62 1.31619
7.63 1.35989
7.64 1.37625
7.65 1.36772
7.66 1.33519
7.67 1.27928
7.68 1.20463
7.69 1.11128
7.7 1.00474
7.71 0.887096
7.72 0.762023
7.73 0.632859
7.74 0.502598
7.75 0.374102
7.76 0.250268
7.77 0.13312
7.78 0.024522
7.79 -0.0732485
7.8 -0.160208
7.81 -0.233505
7.82 -0.294287
7.83 -0.341214
7.84 -0.374313
7.85 -0.394531
7.86 -0.400679
7.87 -0.395307
7.88 -0.377889
7.89 -0.350529
7.9 -0.314473
7.91 -0.271072
7.92 -0.222813
7.93 -0.171211
7.94 -0.118903
7.95 -0.0680429
7.96 -0.0210995
7.97 0.0201458
7.98 0.0525894
7.99 0.0756964
8 0.0867293
8.01 0.0854341
8.02 0.0711501
8.03 0.0430168
8.04 0.00292683
8.05 -0.0500018
8.06 -0.112633
8.07 -0.183903
8.08 -0.261347
8.09 -0.342412
8.1 -0.424688
8.11 -0.505654
8.12 -0.582764
8.13 -0.654209
8.14 -0.718468
8.15 -0.773891
8.16 -0.82093
8.17 -0.858208
8.18 -0.88754
8.19 -0.909285
8.2 -0.924998
8.21 -0.936497
8.22 -0.94519
8.23 -0.953023
8.24 -0.961338
8.25 -0.971157
8.26 -0.982939
8.27 -0.996632
8.28 -1.01126
8.29 -1.0252
8.3 -1.03625
8.31 -1.04138
8.32 -1.03696
8.33 -1.02018
8.34 -0.985052
8.35 -0.930518
8.36 -0.850606
8.37 -0.744203
8.38 -0.609278
8.39 -0.443027
8.4 -0.248978
8.41 -0.0241353
8.42 0.224821
8.43 0.495946
8.44 0.783568
8.45 1.08123
8.46 1.38238
8.47 1.67949
8.48 1.96411
8.49 2.22913
8.5 2.46767
8.51 2.67073
8.52 2.837
8.53 2.95536
8.54 3.02883
8.55 3.05229
8.56 3.02585
8.57 2.95365
8.58 2.83271
8.59 2.67352
8.6 2.47648
8.61 2.25054
8.62 2.00171
8.63 1.73642
8.64 1.46287
8.65 1.18741
8.66 0.916742
8.67 0.656806
8.68 0.412918
8.69 0.187746
8.7 -0.0127987
8.71 -0.190239
8.72 -0.340709
8.73 -0.466168
8.74 -0.567357
8.75 -0.644682
8.76 -0.702803
8.77 -0.741618
8.78 -0.76659
8.79 -0.779647
8.8 -0.784169
8.81 -0.783269
8.82 -0.779212
8.83 -0.774579
8.84 -0.771203
8.85 -0.770481
8.86 -0.773346
8.87 -0.780662
8.88 -0.792122
8.89 -0.808255
8.9 -0.828058
8.91 -0.851219
8.92 -0.876911
8.93 -0.904242
8.94 -0.932471
8.95 -0.960707
8.96 -0.988195
8.97 -1.01433
8.98 -1.03862
8.99 -1.06053
9 -1.08011
9.01 -1.09683
9.02 -1.11104
9.03 -1.12263
9.04 -1.13176
9.05 -1.13874
9.06 -1.14349
9.07 -1.14648
9.08 -1.14759
9.09 -1.14701
9.1 -1.1447
9.11 -1.14042
9.12 -1.13417
9.13 -1.12527
9.14 -1.11364
9.15 -1.09861
9.16 -1.07962
9.17 -1.05641
9.18 -1.02782
9.19 -0.994135
9.2 -0.954344
9.21 -0.908643
9.22 -0.856983
9.23 -0.79921
9.24 -0.736392
9.25 -0.668488
9.26 -0.597115
9.27 -0.523188
9.28 -0.448276
9.29 -0.373893
9.3 -0.302101
9.31 -0.234257
9.32 -0.172689
9.33 -0.118724
9.34 -0.0737794
9.35 -0.0398019
9.36 -0.0164106
9.37 -0.00590223
9.38 -0.00672715
9.39 -0.0193775
9.4 -0.0429375
9.41 -0.0756427
9.42 -0.116931
9.43 -0.163839
9.44 -0.214938
9.45 -0.267659
9.46 -0.319974
9.47 -0.369535
9.48 -0.41495
9.49 -0.453807
9.5 -0.485759
9.51 -0.509587
9.52 -0.525023
9.53 -0.532755
9.54 -0.532453
9.55 -0.526199
9.56 -0.51462
9.57 -0.499719
9.58 -0.483064
9.59 -0.466469
9.6 -0.451416
9.61 -0.439789
9.62 -0.432362
9.63 -0.430296
9.64 -0.434157
9.65 -0.443732
9.66 -0.459607
9.67 -0.480455
9.68 -0.506148
9.69 -0.535412
9.7 -0.567323
9.71 -0.600913
9.72 -0.63513
9.73 -0.669151
9.74 -0.702341
9.75 -0.73419
9.76 -0.764394
9.77 -0.792936
9.78 -0.819545
9.79 -0.844468
9.8 -0.867392
9.81 -0.888164
9.82 -0.906269
9.83 -0.920516
9.84 -0.930117
9.85 -0.932297
9.86 -0.925682
9.87 -0.906983
9.88 -0.872853
9.89 -0.821238
9.9 -0.745763
9.91 -0.646476
9.92 -0.517194
9.93 -0.357175
9.94 -0.164604
9.95 0.0637161
9.96 0.323737
9.97 0.619086
9.98 0.942667
9.99 1.29267
10 1.66334
10.01 2.04758
10.02 2.43878
10.03 2.82815
10.04 3.20657
10.05 3.56549
10.06 3.89682
10.07 4.18958
10.08 4.44134
10.09 4.63857
10.1 4.78323
10.11 4.86843
10.12 4.8926
10.13 4.85984
10.14 4.76453
10.15 4.61879
10.16 4.42152
10.17 4.18277
10.18 3.90932
10.19 3.60786
10.2 3.28909
10.21 2.95954
10.22 2.62863
10.23 2.30344
10.24 1.99111
10.25 1.69583
10.26 1.42494
10.27 1.17802
10.28 0.959888
10.29 0.769276
10.3 0.605679
10.31 0.469155
10.32 0.354562
10.33 0.262138
10.34 0.185757
10.35 0.123146
10.36 0.070459
10.37 0.0240475
10.38 -0.0186591
10.39 -0.0606179
10.4 -0.103825
10.41 -0.149766
10.42 -0.199317
10.43 -0.2532
10.44 -0.310905
10.45 -0.372577
10.46 -0.436995
10.47 -0.503447
10.48 -0.570777
10.49 -0.637934
10.5 -0.703655
10.51 -0.767179
10.52 -0.82732
10.53 -0.883504
10.54 -0.935157
10.55 -0.981433
10.56 -1.0226
10.57 -1.05753
10.58 -1.08681
10.59 -1.10991
10.6 -1.12673
10.61 -1.13761
10.62 -1.14168
10.63 -1.13988
10.64 -1.13152
10.65 -1.11712
10.66 -1.09687
10.67 -1.07071
10.68 -1.03967
10.69 -1.00359
10.7 -0.963801
10.71 -0.920857
10.72 -0.875815
10.73 -0.829779
10.74 -0.783927
10.75 -0.739366
10.76 -0.697461
10.77 -0.659221
10.78 -0.625591
10.79 -0.597873
10.8 -0.57605
10.81 -0.561625
10.82 -0.553968
10.83 -0.553599
10.84 -0.56034
10.85 -0.573387
10.86 -0.592997
10.87 -0.617585
10.88 -0.64694
10.89 -0.67983
10.9 -0.715396
10.91 -0.752791
10.92 -0.791005
10.93 -0.829252
10.94 -0.866779
10.95 -0.902912
10.96 -0.937051
10.97 -0.968925
10.98 -0.997817
10.99 -1.0239
11 -1.04667
11.01 -1.06625
11.02 -1.08266
11.03 -1.09576
11.04 -1.10607
11.05 -1.11339
11.06 -1.1184
11.07 -1.12129
11.08 -1.12253
11.09 -1.12267
11.1 -1.12213
11.11 -1.12153
11.12 -1.12135
11.13 -1.12205
11.14 -1.12394
11.15 -1.12729
11.16 -1.13194
11.17 -1.13778
11.18 -1.14409
11.19 -1.15005
11.2 -1.15433
11.21 -1.15564
11.22 -1.15141
11.23 -1.14038
11.24 -1.1193
11.25 -1.08626
11.26 -1.03901
11.27 -0.974021
11.28 -0.891409
11.29 -0.786568
11.3 -0.661105
11.31 -0.513202
11.32 -0.343151
11.33 -0.153444
11.34 0.0564675
11.35 0.281066
11.36 0.518468
11.37 0.76333
11.38 1.01107
11.39 1.25589
11.4 1.49302
11.41 1.71498
11.42 1.91811
11.43 2.09627
11.44 2.24456
11.45 2.36167
11.46 2.43999
11.47 2.48331
11.48 2.48672
11.49 2.45324
11.5 2.38451
11.51 2.28104
11.52 2.15
11.53 1.99178
11.54 1.81458
11.55 1.62214
11.56 1.42024
11.57 1.21425
11.58 1.00928
11.59 0.809471
11.6 0.619406
11.61 0.441768
11.62 0.278672
11.63 0.132814
11.64 0.00286747
11.65 -0.108757
11.66 -0.205072
11.67 -0.286373
11.68 -0.354579
11.69 -0.412469
11.7 -0.461126
11.71 -0.50399
11.72 -0.542495
11.73 -0.578866
11.74 -0.614527
11.75 -0.650699
11.76 -0.687959
11.77 -0.72675
11.78 -0.766687
11.79 -0.807265
11.8 -0.847452
11.81 -0.886167
11.82 -0.921542
11.83 -0.952529
11.84 -0.976928
11.85 -0.993448
11.86 -1.00072
11.87 -0.996554
11.88 -0.981198
11.89 -0.951885
11.9 -0.909678
11.91 -0.853447
11.92 -0.783175
11.93 -0.70016
11.94 -0.603371
11.95 -0.495739
11.96 -0.377331
11.97 -0.250556
11.98 -0.117262
11.99 0.020538
12 0.160125
12.01 0.298923
12.02 0.434312
12.03 0.563446
12.04 0.683361
12.05 0.792382
12.06 0.886198
12.07 0.964933
12.08 1.02499
12.09 1.06612
12.1 1.0877
12.11 1.08805
12.12 1.06987
12.13 1.03126
12.14 0.976148
12.15 0.905383
12.16 0.821544
12.17 0.72804
12.18 0.626914
12.19 0.522227
12.2 0.416682
12.21 0.313395
12.22 0.214784
12.23 0.123672
12.24 0.0407724
12.25 -0.0313632
12.26 -0.093492
12.27 -0.145061
12.28 -0.186751
12.29 -0.220324
12.3 -0.246447
12.31 -0.268013
12.32 -0.2866
12.33 -0.304609
12.34 -0.32389
12.35 -0.346479
12.36 -0.373232
12.37 -0.405752
12.38 -0.443655
12.39 -0.486996
12.4 -0.534843
12.41 -0.585593
