# xPDFsuite Configuration #
[PDF]
wavelength = 0.1432
dataformat = twotheta
inputfile = 1_1Pd_CeO2_cycle-00256.chi
backgroundfile = background-00000.chi
mode = xray
bgscale = 1.007
composition = CeO2
outputtype = gr
qmaxinst = 28.8974762299
qmin = 0.5
qmax = 27.9
rmax = 50.0
rmin = 0.0
rstep = 0.01
rpoly = 1.8657

[Misc]
inputdir = G:/SankarDec16/1Pd/Chi
savedir = D:/DATA/APS_CeO2/1Pd
backgroundfilefull = G:/SankarDec16/Background/background-00000.chi

#### start data
#S 1
#L r($\AA$)  G($\AA^{-2}$)
0 0
0.01 -0.00570959
0.02 -0.0109903
0.03 -0.0154005
0.04 -0.0186071
0.05 -0.0204248
0.06 -0.020555
0.07 -0.0191951
0.08 -0.0162478
0.09 -0.0120906
0.1 -0.00698383
0.11 -0.00132701
0.12 0.00444265
0.13 0.00983613
0.14 0.0145042
0.15 0.0180208
0.16 0.0201346
0.17 0.0207437
0.18 0.0196419
0.19 0.0171179
0.2 0.0131793
0.21 0.00826508
0.22 0.00269891
0.23 -0.0030711
0.24 -0.00863219
0.25 -0.0134574
0.26 -0.0172928
0.27 -0.0197479
0.28 -0.0206641
0.29 -0.0200279
0.3 -0.0177352
0.31 -0.0141531
0.32 -0.00939351
0.33 -0.0039379
0.34 0.00184188
0.35 0.00746897
0.36 0.012574
0.37 0.0166161
0.38 0.0194482
0.39 0.0207332
0.4 0.0204128
0.41 0.018563
0.42 0.0151864
0.43 0.0107125
0.44 0.0053527
0.45 -0.000390889
0.46 -0.00611506
0.47 -0.0113355
0.48 -0.0157435
0.49 -0.0188087
0.5 -0.0204981
0.51 -0.0205436
0.52 -0.0189901
0.53 -0.0160002
0.54 -0.0116838
0.55 -0.00651303
0.56 -0.00078978
0.57 0.00498571
0.58 0.0103974
0.59 0.0149754
0.6 0.0184859
0.61 0.0204337
0.62 0.0209015
0.63 0.019703
0.64 0.0169851
0.65 0.0129894
0.66 0.00792923
0.67 0.00229816
0.68 -0.00352505
0.69 -0.00906446
0.7 -0.0139102
0.71 -0.0176277
0.72 -0.0200695
0.73 -0.0207974
0.74 -0.0200067
0.75 -0.017601
0.76 -0.0138223
0.77 -0.00898024
0.78 -0.003381
0.79 0.00248329
0.8 0.00817568
0.81 0.0132665
0.82 0.0173722
0.83 0.0201144
0.84 0.0214384
0.85 0.0209852
0.86 0.0190516
0.87 0.0156355
0.88 0.0110606
0.89 0.00568722
0.9 -0.000104326
0.91 -0.00585093
0.92 -0.0110865
0.93 -0.0154544
0.94 -0.0186252
0.95 -0.0203074
0.96 -0.0205475
0.97 -0.0191049
0.98 -0.016365
0.99 -0.0124383
1 -0.00772285
1.01 -0.00261555
1.02 0.00243074
1.03 0.00701869
1.04 0.0106648
1.05 0.0131229
1.06 0.0141454
1.07 0.0135635
1.08 0.0115546
1.09 0.00804507
1.1 0.00353202
1.11 -0.00171318
1.12 -0.00718127
1.13 -0.0124101
1.14 -0.0168039
1.15 -0.0200301
1.16 -0.0215022
1.17 -0.0210768
1.18 -0.0185398
1.19 -0.0137894
1.2 -0.00715665
1.21 0.00137363
1.22 0.0111167
1.23 0.0216889
1.24 0.0324321
1.25 0.042765
1.26 0.0519295
1.27 0.0595243
1.28 0.0647908
1.29 0.067533
1.3 0.0674315
1.31 0.0642619
1.32 0.05837
1.33 0.0495097
1.34 0.0384598
1.35 0.0254494
1.36 0.01112
1.37 -0.00393159
1.38 -0.0190811
1.39 -0.0337532
1.4 -0.0472951
1.41 -0.0593189
1.42 -0.0694226
1.43 -0.0772352
1.44 -0.0828428
1.45 -0.0858055
1.46 -0.0865713
1.47 -0.0850573
1.48 -0.0815502
1.49 -0.0763552
1.5 -0.0696006
1.51 -0.0617433
1.52 -0.0529071
1.53 -0.0434232
1.54 -0.0334645
1.55 -0.0232016
1.56 -0.0127905
1.57 -0.00234234
1.58 0.00803015
1.59 0.0182109
1.6 0.0280716
1.61 0.0374898
1.62 0.0462151
1.63 0.0541387
1.64 0.0608949
1.65 0.066321
1.66 0.0701285
1.67 0.0719736
1.68 0.0718513
1.69 0.0692194
1.7 0.0643506
1.71 0.0570108
1.72 0.0473648
1.73 0.0356808
1.74 0.022078
1.75 0.00717241
1.76 -0.00871465
1.77 -0.0249502
1.78 -0.041022
1.79 -0.0563182
1.8 -0.0704634
1.81 -0.0827571
1.82 -0.0931446
1.83 -0.101231
1.84 -0.106998
1.85 -0.110599
1.86 -0.112022
1.87 -0.111846
1.88 -0.110289
1.89 -0.107965
1.9 -0.105328
1.91 -0.102905
1.92 -0.101066
1.93 -0.100311
1.94 -0.100703
1.95 -0.102442
1.96 -0.105423
1.97 -0.109404
1.98 -0.114097
1.99 -0.118971
2 -0.123462
2.01 -0.12698
2.02 -0.12892
2.03 -0.128577
2.04 -0.125723
2.05 -0.11945
2.06 -0.109986
2.07 -0.0968832
2.08 -0.0802483
2.09 -0.0603549
2.1 -0.0371434
2.11 -0.011371
2.12 0.0168836
2.13 0.0469589
2.14 0.0785172
2.15 0.111219
2.16 0.144698
2.17 0.178873
2.18 0.213558
2.19 0.248808
2.2 0.284689
2.21 0.321282
2.22 0.3588
2.23 0.397189
2.24 0.436548
2.25 0.476628
2.26 0.517132
2.27 0.557485
2.28 0.597039
2.29 0.634563
2.3 0.669228
2.31 0.699499
2.32 0.724031
2.33 0.74181
2.34 0.750615
2.35 0.750533
2.36 0.739391
2.37 0.717575
2.38 0.684634
2.39 0.64039
2.4 0.586593
2.41 0.522887
2.42 0.452251
2.43 0.375879
2.44 0.296254
2.45 0.215645
2.46 0.136666
2.47 0.0612879
2.48 -0.00774559
2.49 -0.0691151
2.5 -0.121299
2.51 -0.162897
2.52 -0.194612
2.53 -0.214895
2.54 -0.226081
2.55 -0.228421
2.56 -0.223808
2.57 -0.214214
2.58 -0.201388
2.59 -0.187688
2.6 -0.17509
2.61 -0.165326
2.62 -0.159832
2.63 -0.159947
2.64 -0.165641
2.65 -0.178007
2.66 -0.195713
2.67 -0.218495
2.68 -0.244994
2.69 -0.273775
2.7 -0.303334
2.71 -0.332095
2.72 -0.358397
2.73 -0.381159
2.74 -0.399404
2.75 -0.412313
2.76 -0.420285
2.77 -0.42278
2.78 -0.421262
2.79 -0.416347
2.8 -0.409496
2.81 -0.402094
2.82 -0.395753
2.83 -0.391643
2.84 -0.391323
2.85 -0.395384
2.86 -0.404416
2.87 -0.418723
2.88 -0.437462
2.89 -0.460514
2.9 -0.486116
2.91 -0.513104
2.92 -0.539706
2.93 -0.564407
2.94 -0.585165
2.95 -0.601161
2.96 -0.610586
2.97 -0.613291
2.98 -0.608907
2.99 -0.59744
3 -0.58029
3.01 -0.557859
3.02 -0.532476
3.03 -0.505661
3.04 -0.479562
3.05 -0.455928
3.06 -0.437082
3.07 -0.423819
3.08 -0.41806
3.09 -0.419787
3.1 -0.429242
3.11 -0.446224
3.12 -0.469087
3.13 -0.49721
3.14 -0.528089
3.15 -0.560063
3.16 -0.590951
3.17 -0.619076
3.18 -0.642272
3.19 -0.660027
3.2 -0.670843
3.21 -0.675171
3.22 -0.673287
3.23 -0.666061
3.24 -0.655398
3.25 -0.64289
3.26 -0.630931
3.27 -0.621745
3.28 -0.617525
3.29 -0.619698
3.3 -0.63052
3.31 -0.649569
3.32 -0.678021
3.33 -0.714371
3.34 -0.757492
3.35 -0.805421
3.36 -0.855394
3.37 -0.904465
3.38 -0.949776
3.39 -0.988119
3.4 -1.01687
3.41 -1.03461
3.42 -1.03859
3.43 -1.03023
3.44 -1.00844
3.45 -0.975953
3.46 -0.934827
3.47 -0.888248
3.48 -0.840132
3.49 -0.794827
3.5 -0.755883
3.51 -0.727432
3.52 -0.712352
3.53 -0.711751
3.54 -0.727928
3.55 -0.757796
3.56 -0.800484
3.57 -0.850512
3.58 -0.902596
3.59 -0.9489
3.6 -0.98269
3.61 -0.991736
3.62 -0.970644
3.63 -0.90812
3.64 -0.796692
3.65 -0.632725
3.66 -0.405008
3.67 -0.119743
3.68 0.230494
3.69 0.636956
3.7 1.09523
3.71 1.59794
3.72 2.13052
3.73 2.68289
3.74 3.23745
3.75 3.77881
3.76 4.28973
3.77 4.75712
3.78 5.15903
3.79 5.49161
3.8 5.73412
3.81 5.88582
3.82 5.94025
3.83 5.89143
3.84 5.75166
3.85 5.51136
3.86 5.19311
3.87 4.80044
3.88 4.3491
3.89 3.8551
3.9 3.33121
3.91 2.79615
3.92 2.26447
3.93 1.75054
3.94 1.26648
3.95 0.825237
3.96 0.429661
3.97 0.0937858
3.98 -0.18809
3.99 -0.410775
4 -0.577785
4.01 -0.695452
4.02 -0.764644
4.03 -0.798318
4.04 -0.799831
4.05 -0.780177
4.06 -0.746285
4.07 -0.705581
4.08 -0.664478
4.09 -0.628826
4.1 -0.601668
4.11 -0.58617
4.12 -0.583268
4.13 -0.592219
4.14 -0.612951
4.15 -0.641869
4.16 -0.677118
4.17 -0.714868
4.18 -0.752069
4.19 -0.785168
4.2 -0.812031
4.21 -0.828917
4.22 -0.835513
4.23 -0.829832
4.24 -0.811678
4.25 -0.781821
4.26 -0.739744
4.27 -0.688161
4.28 -0.627356
4.29 -0.559805
4.3 -0.486971
4.31 -0.410419
4.32 -0.331855
4.33 -0.252353
4.34 -0.173027
4.35 -0.0946095
4.36 -0.017633
4.37 0.0576662
4.38 0.130835
4.39 0.201977
4.4 0.270586
4.41 0.336533
4.42 0.399319
4.43 0.458064
4.44 0.512423
4.45 0.560486
4.46 0.601989
4.47 0.635136
4.48 0.658777
4.49 0.672337
4.5 0.673547
4.51 0.663385
4.52 0.639968
4.53 0.604433
4.54 0.556998
4.55 0.498105
4.56 0.43011
4.57 0.353361
4.58 0.271021
4.59 0.184682
4.6 0.0968325
4.61 0.00955932
4.62 -0.0746849
4.63 -0.154541
4.64 -0.227798
4.65 -0.293782
4.66 -0.351658
4.67 -0.400688
4.68 -0.441885
4.69 -0.474477
4.7 -0.500488
4.71 -0.520377
4.72 -0.535599
4.73 -0.547571
4.74 -0.557385
4.75 -0.566452
4.76 -0.575741
4.77 -0.586056
4.78 -0.597914
4.79 -0.611678
4.8 -0.627143
4.81 -0.644318
4.82 -0.662518
4.83 -0.681256
4.84 -0.699797
4.85 -0.717519
4.86 -0.733582
4.87 -0.747679
4.88 -0.759107
4.89 -0.76782
4.9 -0.773704
4.91 -0.776743
4.92 -0.777479
4.93 -0.775995
4.94 -0.773122
4.95 -0.769312
4.96 -0.765245
4.97 -0.761477
4.98 -0.75867
4.99 -0.757139
5 -0.757439
5.01 -0.759687
5.02 -0.764052
5.03 -0.770674
5.04 -0.779266
5.05 -0.789995
5.06 -0.802356
5.07 -0.816233
5.08 -0.831263
5.09 -0.84707
5.1 -0.863293
5.11 -0.879448
5.12 -0.894981
5.13 -0.909307
5.14 -0.921737
5.15 -0.931246
5.16 -0.937271
5.17 -0.937978
5.18 -0.932892
5.19 -0.920222
5.2 -0.898631
5.21 -0.867332
5.22 -0.823696
5.23 -0.768293
5.24 -0.69864
5.25 -0.615314
5.26 -0.517974
5.27 -0.40634
5.28 -0.282725
5.29 -0.146806
5.3 -0.00236477
5.31 0.148757
5.32 0.303036
5.33 0.457076
5.34 0.606429
5.35 0.747905
5.36 0.876242
5.37 0.98848
5.38 1.08107
5.39 1.14969
5.4 1.19473
5.41 1.21042
5.42 1.20011
5.43 1.16173
5.44 1.09695
5.45 1.0089
5.46 0.897915
5.47 0.770303
5.48 0.628007
5.49 0.476676
5.5 0.320355
5.51 0.163726
5.52 0.0106093
5.53 -0.134089
5.54 -0.268292
5.55 -0.388561
5.56 -0.493099
5.57 -0.581687
5.58 -0.651952
5.59 -0.706634
5.6 -0.74464
5.61 -0.768766
5.62 -0.780467
5.63 -0.781332
5.64 -0.774352
5.65 -0.760455
5.66 -0.742364
5.67 -0.72117
5.68 -0.698152
5.69 -0.674087
5.7 -0.649262
5.71 -0.623781
5.72 -0.59725
5.73 -0.569228
5.74 -0.539113
5.75 -0.506101
5.76 -0.470017
5.77 -0.429954
5.78 -0.38638
5.79 -0.339233
5.8 -0.289197
5.81 -0.237258
5.82 -0.184587
5.83 -0.132687
5.84 -0.0833874
5.85 -0.0382823
5.86 0.000978451
5.87 0.0323594
5.88 0.0554966
5.89 0.067874
5.9 0.070357
5.91 0.0619243
5.92 0.0430177
5.93 0.0147895
5.94 -0.0227095
5.95 -0.0669587
5.96 -0.117203
5.97 -0.171214
5.98 -0.227447
5.99 -0.284212
6 -0.340157
6.01 -0.393812
6.02 -0.444631
6.03 -0.491869
6.04 -0.535385
6.05 -0.575493
6.06 -0.612231
6.07 -0.646616
6.08 -0.679084
6.09 -0.71055
6.1 -0.741629
6.11 -0.772891
6.12 -0.804605
6.13 -0.836923
6.14 -0.869552
6.15 -0.902057
6.16 -0.933683
6.17 -0.96369
6.18 -0.990784
6.19 -1.01445
6.2 -1.03334
6.21 -1.04714
6.22 -1.05542
6.23 -1.05784
6.24 -1.05531
6.25 -1.04777
6.26 -1.03695
6.27 -1.02383
6.28 -1.01003
6.29 -0.996946
6.3 -0.98624
6.31 -0.978635
6.32 -0.97522
6.33 -0.975737
6.34 -0.979636
6.35 -0.985495
6.36 -0.991069
6.37 -0.992828
6.38 -0.987466
6.39 -0.970057
6.4 -0.935502
6.41 -0.880129
6.42 -0.795645
6.43 -0.681564
6.44 -0.529896
6.45 -0.34041
6.46 -0.110984
6.47 0.160843
6.48 0.469404
6.49 0.817416
6.5 1.1948
6.51 1.59776
6.52 2.0174
6.53 2.44454
6.54 2.86856
6.55 3.27973
6.56 3.66503
6.57 4.01537
6.58 4.32102
6.59 4.56975
6.6 4.76095
6.61 4.87872
6.62 4.92945
6.63 4.90627
6.64 4.81107
6.65 4.65052
6.66 4.42224
6.67 4.1419
6.68 3.81152
6.69 3.44492
6.7 3.05141
6.71 2.64152
6.72 2.2266
6.73 1.81732
6.74 1.4222
6.75 1.05032
6.76 0.708684
6.77 0.400347
6.78 0.133551
6.79 -0.0954984
6.8 -0.281569
6.81 -0.429082
6.82 -0.539805
6.83 -0.615476
6.84 -0.66351
6.85 -0.684414
6.86 -0.686512
6.87 -0.672742
6.88 -0.647987
6.89 -0.616359
6.9 -0.580751
6.91 -0.54419
6.92 -0.50858
6.93 -0.475213
6.94 -0.444797
6.95 -0.417791
6.96 -0.393753
6.97 -0.372836
6.98 -0.35423
6.99 -0.337778
7 -0.323207
7.01 -0.310384
7.02 -0.299769
7.03 -0.291496
7.04 -0.28657
7.05 -0.285611
7.06 -0.289521
7.07 -0.299586
7.08 -0.315878
7.09 -0.340116
7.1 -0.371556
7.11 -0.410753
7.12 -0.457163
7.13 -0.509645
7.14 -0.567597
7.15 -0.628823
7.16 -0.691885
7.17 -0.754612
7.18 -0.815139
7.19 -0.871207
7.2 -0.921739
7.21 -0.964229
7.22 -0.998742
7.23 -1.02411
7.24 -1.04037
7.25 -1.04846
7.26 -1.04836
7.27 -1.04243
7.28 -1.03161
7.29 -1.01812
7.3 -1.0037
7.31 -0.990238
7.32 -0.979038
7.33 -0.971803
7.34 -0.968721
7.35 -0.9703
7.36 -0.976054
7.37 -0.984865
7.38 -0.995366
7.39 -1.0054
7.4 -1.01241
7.41 -1.01385
7.42 -1.00707
7.43 -0.988615
7.44 -0.957496
7.45 -0.909275
7.46 -0.844666
7.47 -0.761469
7.48 -0.659668
7.49 -0.540826
7.5 -0.404293
7.51 -0.25445
7.52 -0.0924499
7.53 0.0773281
7.54 0.251425
7.55 0.425542
7.56 0.595877
7.57 0.757125
7.58 0.906535
7.59 1.03967
7.6 1.1533
7.61 1.24624
7.62 1.31367
7.63 1.35792
7.64 1.37556
7.65 1.36881
7.66 1.33831
7.67 1.28445
7.68 1.2116
7.69 1.11944
7.7 1.01336
7.71 0.895203
7.72 0.768556
7.73 0.636813
7.74 0.502939
7.75 0.370109
7.76 0.241406
7.77 0.119243
7.78 0.00583208
7.79 -0.0960951
7.8 -0.186281
7.81 -0.261343
7.82 -0.32236
7.83 -0.367709
7.84 -0.397383
7.85 -0.412503
7.86 -0.411897
7.87 -0.398647
7.88 -0.372532
7.89 -0.336242
7.9 -0.291539
7.91 -0.240423
7.92 -0.185768
7.93 -0.129837
7.94 -0.0753672
7.95 -0.0249188
7.96 0.0189603
7.97 0.0547009
7.98 0.0791408
7.99 0.0924454
8 0.0921747
8.01 0.0788206
8.02 0.0523465
8.03 0.012662
8.04 -0.0377981
8.05 -0.0990382
8.06 -0.167689
8.07 -0.242157
8.08 -0.319783
8.09 -0.398163
8.1 -0.474691
8.11 -0.54757
8.12 -0.614442
8.13 -0.674271
8.14 -0.726151
8.15 -0.769182
8.16 -0.804452
8.17 -0.831416
8.18 -0.852254
8.19 -0.867879
8.2 -0.880125
8.21 -0.890752
8.22 -0.901435
8.23 -0.913513
8.24 -0.928231
8.25 -0.945944
8.26 -0.966594
8.27 -0.989503
8.28 -1.01311
8.29 -1.03511
8.3 -1.05296
8.31 -1.06315
8.32 -1.06181
8.33 -1.04619
8.34 -1.0101
8.35 -0.952953
8.36 -0.868908
8.37 -0.757388
8.38 -0.616796
8.39 -0.444847
8.4 -0.245507
8.41 -0.0163266
8.42 0.235795
8.43 0.508595
8.44 0.796294
8.45 1.09254
8.46 1.39077
8.47 1.6839
8.48 1.96371
8.49 2.2236
8.5 2.45709
8.51 2.65571
8.52 2.81844
8.53 2.9347
8.54 3.00756
8.55 3.03213
8.56 3.00852
8.57 2.94064
8.58 2.82543
8.59 2.67285
8.6 2.48299
8.61 2.26425
8.62 2.0222
8.63 1.76272
8.64 1.49375
8.65 1.22109
8.66 0.951449
8.67 0.690553
8.68 0.443774
8.69 0.214049
8.7 0.00738903
8.71 -0.177155
8.72 -0.335381
8.73 -0.4687
8.74 -0.577396
8.75 -0.661342
8.76 -0.724934
8.77 -0.767532
8.78 -0.794613
8.79 -0.807899
8.8 -0.810818
8.81 -0.806735
8.82 -0.797999
8.83 -0.787723
8.84 -0.778031
8.85 -0.77082
8.86 -0.767421
8.87 -0.769159
8.88 -0.775962
8.89 -0.788805
8.9 -0.806673
8.91 -0.82942
8.92 -0.856165
8.93 -0.885803
8.94 -0.917508
8.95 -0.949957
8.96 -0.982151
8.97 -1.01309
8.98 -1.04199
8.99 -1.06796
9 -1.09088
9.01 -1.10993
9.02 -1.12549
9.03 -1.13738
9.04 -1.14585
9.05 -1.15138
9.06 -1.15402
9.07 -1.15454
9.08 -1.15307
9.09 -1.15003
9.1 -1.14561
9.11 -1.13976
9.12 -1.13254
9.13 -1.12343
9.14 -1.11223
9.15 -1.09822
9.16 -1.08071
9.17 -1.05924
9.18 -1.03244
9.19 -1.00039
9.2 -0.961856
9.21 -0.916879
9.22 -0.865294
9.23 -0.806836
9.24 -0.742657
9.25 -0.672686
9.26 -0.598761
9.27 -0.52194
9.28 -0.444038
9.29 -0.366795
9.3 -0.29257
9.31 -0.222876
9.32 -0.160309
9.33 -0.106273
9.34 -0.0622493
9.35 -0.0302322
9.36 -0.0096468
9.37 -0.00274591
9.38 -0.00765158
9.39 -0.0246262
9.4 -0.0524243
9.41 -0.0890067
9.42 -0.133424
9.43 -0.18257
9.44 -0.234695
9.45 -0.287176
9.46 -0.337938
9.47 -0.384599
9.48 -0.426032
9.49 -0.459881
9.5 -0.486212
9.51 -0.504075
9.52 -0.513589
9.53 -0.515766
9.54 -0.510719
9.55 -0.500703
9.56 -0.486716
9.57 -0.470839
9.58 -0.454714
9.59 -0.440231
9.6 -0.428603
9.61 -0.421712
9.62 -0.419904
9.63 -0.424102
9.64 -0.434491
9.65 -0.450522
9.66 -0.472374
9.67 -0.498489
9.68 -0.528381
9.69 -0.560646
9.7 -0.594244
9.71 -0.628081
9.72 -0.661297
9.73 -0.692996
9.74 -0.722887
9.75 -0.75061
9.76 -0.776146
9.77 -0.79976
9.78 -0.821461
9.79 -0.841736
9.8 -0.860538
9.81 -0.877865
9.82 -0.893326
9.83 -0.905869
9.84 -0.91462
9.85 -0.916914
9.86 -0.911184
9.87 -0.894093
9.88 -0.862151
9.89 -0.813135
9.9 -0.740557
9.91 -0.644283
9.92 -0.518007
9.93 -0.360864
9.94 -0.170949
9.95 0.0550411
9.96 0.313076
9.97 0.606888
9.98 0.929355
9.99 1.27873
10 1.64925
10.01 2.03381
10.02 2.42586
10.03 2.81656
10.04 3.19683
10.05 3.55806
10.06 3.89214
10.07 4.18808
10.08 4.44334
10.09 4.64433
10.1 4.79285
10.11 4.88189
10.12 4.9097
10.13 4.88025
10.14 4.78765
10.15 4.64391
10.16 4.44772
10.17 4.20904
10.18 3.93456
10.19 3.63085
10.2 3.30879
10.21 2.97482
10.22 2.63867
10.23 2.30758
10.24 1.98899
10.25 1.6874
10.26 1.41054
10.27 1.15827
10.28 0.935851
10.29 0.74224
10.3 0.577158
10.31 0.440942
10.32 0.328311
10.33 0.23973
10.34 0.168697
10.35 0.112813
10.36 0.0678674
10.37 0.0297803
10.38 -0.00446244
10.39 -0.0382998
10.4 -0.074263
10.41 -0.114247
10.42 -0.159486
10.43 -0.211144
10.44 -0.26865
10.45 -0.332549
10.46 -0.401251
10.47 -0.474003
10.48 -0.549311
10.49 -0.625644
10.5 -0.701347
10.51 -0.775034
10.52 -0.844977
10.53 -0.910064
10.54 -0.969277
10.55 -1.02123
10.56 -1.06612
10.57 -1.10234
10.58 -1.13073
10.59 -1.15069
10.6 -1.16237
10.61 -1.16656
10.62 -1.16263
10.63 -1.15219
10.64 -1.13498
10.65 -1.11209
10.66 -1.08412
10.67 -1.05154
10.68 -1.01552
10.69 -0.976379
10.7 -0.935288
10.71 -0.892897
10.72 -0.850104
10.73 -0.807681
10.74 -0.766623
10.75 -0.727508
10.76 -0.691363
10.77 -0.658749
10.78 -0.630267
10.79 -0.606828
10.8 -0.588295
10.81 -0.575846
10.82 -0.568967
10.83 -0.568145
10.84 -0.573353
10.85 -0.584057
10.86 -0.600714
10.87 -0.622122
10.88 -0.648364
10.89 -0.678518
10.9 -0.711967
10.91 -0.748125
10.92 -0.785996
10.93 -0.824977
10.94 -0.864132
10.95 -0.90272
10.96 -0.939923
10.97 -0.9752
10.98 -1.00755
10.99 -1.03686
11 -1.0623
11.01 -1.08377
11.02 -1.10112
11.03 -1.11401
11.04 -1.12306
11.05 -1.12795
11.06 -1.12962
11.07 -1.12842
11.08 -1.12507
11.09 -1.12042
11.1 -1.11524
11.11 -1.11038
11.12 -1.10668
11.13 -1.10475
11.14 -1.10504
11.15 -1.108
11.16 -1.11329
11.17 -1.12089
11.18 -1.12978
11.19 -1.13897
11.2 -1.14684
11.21 -1.15182
11.22 -1.15104
11.23 -1.14301
11.24 -1.12421
11.25 -1.09261
11.26 -1.04591
11.27 -0.980478
11.28 -0.896634
11.29 -0.7898
11.3 -0.661886
11.31 -0.511282
11.32 -0.338577
11.33 -0.146502
11.34 0.0651656
11.35 0.290799
11.36 0.52828
11.37 0.772254
11.38 1.01815
11.39 1.26022
11.4 1.49393
11.41 1.71197
11.42 1.91104
11.43 2.08527
11.44 2.2301
11.45 2.34446
11.46 2.42113
11.47 2.46392
11.48 2.46815
11.49 2.4368
11.5 2.37142
11.51 2.27244
11.52 2.14665
11.53 1.99425
11.54 1.82299
11.55 1.63628
11.56 1.43949
11.57 1.23774
11.58 1.03567
11.59 0.837441
11.6 0.647327
11.61 0.4681
11.62 0.301951
11.63 0.15167
11.64 0.0163185
11.65 -0.101491
11.66 -0.204307
11.67 -0.292074
11.68 -0.366298
11.69 -0.429472
11.7 -0.482235
11.71 -0.527977
11.72 -0.567842
11.73 -0.604098
11.74 -0.638221
11.75 -0.67148
11.76 -0.704804
11.77 -0.738773
11.78 -0.773427
11.79 -0.80855
11.8 -0.843469
11.81 -0.877365
11.82 -0.90873
11.83 -0.936599
11.84 -0.959013
11.85 -0.974674
11.86 -0.982193
11.87 -0.979373
11.88 -0.966203
11.89 -0.93985
11.9 -0.901071
11.91 -0.848552
11.92 -0.782041
11.93 -0.702658
11.94 -0.609164
11.95 -0.50442
11.96 -0.388366
11.97 -0.263408
11.98 -0.131408
11.99 0.00561586
12 0.144823
12.01 0.283616
12.02 0.41925
12.03 0.548833
12.04 0.669351
12.05 0.779099
12.06 0.873793
12.07 0.953572
12.08 1.01492
12.09 1.05765
12.1 1.08122
12.11 1.08404
12.12 1.06882
12.13 1.03374
12.14 0.982643
12.15 0.91634
12.16 0.837275
12.17 0.748677
12.18 0.652361
12.19 0.552159
12.2 0.45046
12.21 0.350137
12.22 0.253379
12.23 0.162693
12.24 0.0788129
12.25 0.0039787
12.26 -0.062358
12.27 -0.11965
12.28 -0.168385
12.29 -0.209989
12.3 -0.244879
12.31 -0.275465
12.32 -0.302913
12.33 -0.329172
12.34 -0.355707
12.35 -0.384059
12.36 -0.414974
12.37 -0.449565
12.38 -0.487585
12.39 -0.528971
12.4 -0.572908
