# xPDFsuite Configuration #
[PDF]
wavelength = 0.1432
dataformat = twotheta
inputfile = 1_1Pd_CeO2_cycle-00199.chi
backgroundfile = background-00000.chi
mode = xray
bgscale = 1.007
composition = CeO2
outputtype = gr
qmaxinst = 28.8974762299
qmin = 0.5
qmax = 27.9
rmax = 50.0
rmin = 0.0
rstep = 0.01
rpoly = 1.8657

[Misc]
inputdir = G:/SankarDec16/1Pd/Chi
savedir = D:/DATA/APS_CeO2/1Pd
backgroundfilefull = G:/SankarDec16/Background/background-00000.chi

#### start data
#S 1
#L r($\AA$)  G($\AA^{-2}$)
0 0
0.01 -0.00415012
0.02 -0.00798762
0.03 -0.0111906
0.04 -0.0135165
0.05 -0.0148306
0.06 -0.0149158
0.07 -0.0139166
0.08 -0.0117634
0.09 -0.0087316
0.1 -0.0050121
0.11 -0.000896826
0.12 0.00329576
0.13 0.00720844
0.14 0.010588
0.15 0.0131247
0.16 0.0146369
0.17 0.0150522
0.18 0.0142226
0.19 0.0123606
0.2 0.00947446
0.21 0.00588558
0.22 0.00183139
0.23 -0.00236033
0.24 -0.00638983
0.25 -0.00987233
0.26 -0.0126261
0.27 -0.0143683
0.28 -0.014987
0.29 -0.0144757
0.3 -0.0127629
0.31 -0.0101187
0.32 -0.00662941
0.33 -0.00264698
0.34 0.0015558
0.35 0.00563065
0.36 0.00931098
0.37 0.0122028
0.38 0.0142045
0.39 0.0150737
0.4 0.0147738
0.41 0.0133646
0.42 0.0108546
0.43 0.0075592
0.44 0.00363834
0.45 -0.000541805
0.46 -0.00468624
0.47 -0.00844258
0.48 -0.0115903
0.49 -0.013745
0.5 -0.0148903
0.51 -0.0148364
0.52 -0.0136233
0.53 -0.0113751
0.54 -0.00817992
0.55 -0.00438368
0.56 -0.000212513
0.57 0.00397052
0.58 0.00786241
0.59 0.0111233
0.6 0.0135896
0.61 0.014905
0.62 0.0151393
0.63 0.0141645
0.64 0.0120961
0.65 0.00911645
0.66 0.00538974
0.67 0.00127576
0.68 -0.00294359
0.69 -0.00692548
0.7 -0.0103733
0.71 -0.0129757
0.72 -0.0146339
0.73 -0.0150362
0.74 -0.0143353
0.75 -0.0124704
0.76 -0.00962664
0.77 -0.00603509
0.78 -0.00192704
0.79 0.00234139
0.8 0.00644803
0.81 0.010087
0.82 0.0129836
0.83 0.0148707
0.84 0.0157187
0.85 0.0152769
0.86 0.0137709
0.87 0.0112089
0.88 0.00783318
0.89 0.00390862
0.9 -0.00028413
0.91 -0.00441565
0.92 -0.00815028
0.93 -0.0112417
0.94 -0.0134626
0.95 -0.0146179
0.96 -0.0147544
0.97 -0.0137208
0.98 -0.0118033
0.99 -0.00909937
1 -0.00590325
1.01 -0.0025019
1.02 0.000772547
1.03 0.00365248
1.04 0.00579728
1.05 0.00705802
1.06 0.0072826
1.07 0.00638665
1.08 0.00452796
1.09 0.00171006
1.1 -0.00168879
1.11 -0.00542276
1.12 -0.00909673
1.13 -0.0123633
1.14 -0.0147501
1.15 -0.0160476
1.16 -0.0158054
1.17 -0.0139646
1.18 -0.0103939
1.19 -0.0050606
1.2 0.00173115
1.21 0.00993514
1.22 0.0189792
1.23 0.0285057
1.24 0.0379562
1.25 0.0468444
1.26 0.0545062
1.27 0.0606336
1.28 0.0645568
1.29 0.066131
1.3 0.0650778
1.31 0.0611959
1.32 0.054798
1.33 0.0456378
1.34 0.0344152
1.35 0.0213136
1.36 0.00690504
1.37 -0.0082672
1.38 -0.0236363
1.39 -0.0386407
1.4 -0.0526495
1.41 -0.0652421
1.42 -0.0759773
1.43 -0.0844118
1.44 -0.0905572
1.45 -0.0938493
1.46 -0.0946711
1.47 -0.0928251
1.48 -0.088533
1.49 -0.0820766
1.5 -0.0735214
1.51 -0.0634209
1.52 -0.0519132
1.53 -0.0394844
1.54 -0.0264403
1.55 -0.0131432
1.56 8.13598e-05
1.57 0.0128517
1.58 0.0249383
1.59 0.0359985
1.6 0.0457871
1.61 0.054144
1.62 0.0606868
1.63 0.0654907
1.64 0.0681772
1.65 0.0688497
1.66 0.0674191
1.67 0.0638294
1.68 0.0583677
1.69 0.0508727
1.7 0.0418504
1.71 0.0314105
1.72 0.0199358
1.73 0.00779588
1.74 -0.0046413
1.75 -0.0169666
1.76 -0.0287572
1.77 -0.0396994
1.78 -0.0494893
1.79 -0.0578342
1.8 -0.0647544
1.81 -0.0699561
1.82 -0.0737565
1.83 -0.0761779
1.84 -0.077531
1.85 -0.0781569
1.86 -0.0784069
1.87 -0.0787072
1.88 -0.0794847
1.89 -0.0810658
1.9 -0.0837458
1.91 -0.0877828
1.92 -0.0931139
1.93 -0.0999074
1.94 -0.107764
1.95 -0.116479
1.96 -0.125566
1.97 -0.134532
1.98 -0.142695
1.99 -0.14958
2 -0.154367
2.01 -0.156667
2.02 -0.155963
2.03 -0.151738
2.04 -0.144137
2.05 -0.132478
2.06 -0.117423
2.07 -0.0988415
2.08 -0.0771736
2.09 -0.0529196
2.1 -0.0263248
2.11 0.00186086
2.12 0.0313787
2.13 0.0617101
2.14 0.0925999
2.15 0.123872
2.16 0.155438
2.17 0.18743
2.18 0.219957
2.19 0.25332
2.2 0.287804
2.21 0.323615
2.22 0.361132
2.23 0.400221
2.24 0.441009
2.25 0.483048
2.26 0.525871
2.27 0.568654
2.28 0.6105
2.29 0.649844
2.3 0.68568
2.31 0.716204
2.32 0.739935
2.33 0.755835
2.34 0.76158
2.35 0.757502
2.36 0.741503
2.37 0.714317
2.38 0.675787
2.39 0.626133
2.4 0.567424
2.41 0.49981
2.42 0.426445
2.43 0.34889
2.44 0.269774
2.45 0.191356
2.46 0.116385
2.47 0.0464471
2.48 -0.0158043
2.49 -0.0695465
2.5 -0.113652
2.51 -0.147244
2.52 -0.171469
2.53 -0.185429
2.54 -0.191721
2.55 -0.191086
2.56 -0.185638
2.57 -0.177378
2.58 -0.168279
2.59 -0.16025
2.6 -0.155227
2.61 -0.154355
2.62 -0.158628
2.63 -0.168791
2.64 -0.184249
2.65 -0.205368
2.66 -0.230426
2.67 -0.258572
2.68 -0.288122
2.69 -0.317545
2.7 -0.345
2.71 -0.36936
2.72 -0.38892
2.73 -0.403212
2.74 -0.411697
2.75 -0.414164
2.76 -0.411655
2.77 -0.404361
2.78 -0.39425
2.79 -0.38257
2.8 -0.371185
2.81 -0.361641
2.82 -0.355951
2.83 -0.354875
2.84 -0.360066
2.85 -0.371515
2.86 -0.389383
2.87 -0.413368
2.88 -0.441955
2.89 -0.474281
2.9 -0.508036
2.91 -0.541394
2.92 -0.572137
2.93 -0.598569
2.94 -0.618213
2.95 -0.630659
2.96 -0.633995
2.97 -0.628695
2.98 -0.614844
2.99 -0.5931
3 -0.565579
3.01 -0.53351
3.02 -0.499812
3.03 -0.466751
3.04 -0.436981
3.05 -0.412467
3.06 -0.396054
3.07 -0.388091
3.08 -0.390662
3.09 -0.403068
3.1 -0.425062
3.11 -0.455739
3.12 -0.492621
3.13 -0.534183
3.14 -0.577185
3.15 -0.619096
3.16 -0.657087
3.17 -0.689155
3.18 -0.712429
3.19 -0.726812
3.2 -0.73047
3.21 -0.724532
3.22 -0.709712
3.23 -0.687543
3.24 -0.660872
3.25 -0.632133
3.26 -0.604658
3.27 -0.581592
3.28 -0.565931
3.29 -0.55958
3.3 -0.565651
3.31 -0.583466
3.32 -0.614707
3.33 -0.657318
3.34 -0.709856
3.35 -0.769831
3.36 -0.833538
3.37 -0.897352
3.38 -0.957382
3.39 -1.00955
3.4 -1.05037
3.41 -1.07784
3.42 -1.08836
3.43 -1.0834
3.44 -1.06132
3.45 -1.02524
3.46 -0.977447
3.47 -0.92152
3.48 -0.862233
3.49 -0.80449
3.5 -0.752842
3.51 -0.712211
3.52 -0.686314
3.53 -0.676829
3.54 -0.686903
3.55 -0.713436
3.56 -0.756112
3.57 -0.809127
3.58 -0.867029
3.59 -0.921623
3.6 -0.965392
3.61 -0.985585
3.62 -0.975869
3.63 -0.924196
3.64 -0.822292
3.65 -0.665976
3.66 -0.443219
3.67 -0.160233
3.68 0.190938
3.69 0.601232
3.7 1.06607
3.71 1.5777
3.72 2.1208
3.73 2.68475
3.74 3.25101
3.75 3.80344
3.76 4.32398
3.77 4.799
3.78 5.20568
3.79 5.54021
3.8 5.78126
3.81 5.92842
3.82 5.97539
3.83 5.91653
3.84 5.76494
3.85 5.51155
3.86 5.17991
3.87 4.77434
3.88 4.31141
3.89 3.80775
3.9 3.27702
3.91 2.73798
3.92 2.2058
3.93 1.6946
3.94 1.21641
3.95 0.783899
3.96 0.399137
3.97 0.0757505
3.98 -0.192953
3.99 -0.4025
4 -0.557253
4.01 -0.664156
4.02 -0.724948
4.03 -0.752712
4.04 -0.751441
4.05 -0.731959
4.06 -0.701163
4.07 -0.666288
4.08 -0.633065
4.09 -0.607034
4.1 -0.590328
4.11 -0.585496
4.12 -0.592712
4.13 -0.610668
4.14 -0.638531
4.15 -0.672554
4.16 -0.710335
4.17 -0.748163
4.18 -0.783021
4.19 -0.81152
4.2 -0.832111
4.21 -0.841345
4.22 -0.839679
4.23 -0.825673
4.24 -0.799779
4.25 -0.763242
4.26 -0.716186
4.27 -0.66142
4.28 -0.599664
4.29 -0.533249
4.3 -0.463562
4.31 -0.39197
4.32 -0.319644
4.33 -0.247338
4.34 -0.175502
4.35 -0.10436
4.36 -0.0338846
4.37 0.0360694
4.38 0.105603
4.39 0.174828
4.4 0.243583
4.41 0.311535
4.42 0.37806
4.43 0.442031
4.44 0.5026
4.45 0.557497
4.46 0.605879
4.47 0.645474
4.48 0.674655
4.49 0.692545
4.5 0.696413
4.51 0.687312
4.52 0.66311
4.53 0.625204
4.54 0.573988
4.55 0.510199
4.56 0.436665
4.57 0.354124
4.58 0.266224
4.59 0.174988
4.6 0.0832835
4.61 -0.00660169
4.62 -0.0918759
4.63 -0.171344
4.64 -0.242688
4.65 -0.30556
4.66 -0.359378
4.67 -0.403776
4.68 -0.440197
4.69 -0.468336
4.7 -0.490573
4.71 -0.507769
4.72 -0.52164
4.73 -0.533679
4.74 -0.545181
4.75 -0.55725
4.76 -0.570797
4.77 -0.586182
4.78 -0.60355
4.79 -0.622766
4.8 -0.643201
4.81 -0.664258
4.82 -0.685009
4.83 -0.704552
4.84 -0.721983
4.85 -0.736735
4.86 -0.747859
4.87 -0.755542
4.88 -0.759284
4.89 -0.75965
4.9 -0.757041
4.91 -0.7521
4.92 -0.745848
4.93 -0.739149
4.94 -0.733028
4.95 -0.72842
4.96 -0.726134
4.97 -0.726593
4.98 -0.730536
4.99 -0.737608
5 -0.748079
5.01 -0.761296
5.02 -0.776783
5.03 -0.79388
5.04 -0.811728
5.05 -0.829566
5.06 -0.846673
5.07 -0.86237
5.08 -0.876155
5.09 -0.887818
5.1 -0.896906
5.11 -0.903723
5.12 -0.908029
5.13 -0.910129
5.14 -0.910061
5.15 -0.907702
5.16 -0.903142
5.17 -0.895575
5.18 -0.884786
5.19 -0.869612
5.2 -0.848887
5.21 -0.82165
5.22 -0.785399
5.23 -0.739853
5.24 -0.682215
5.25 -0.612108
5.26 -0.528422
5.27 -0.429928
5.28 -0.318232
5.29 -0.191939
5.3 -0.0545284
5.31 0.0928157
5.32 0.246769
5.33 0.403773
5.34 0.55953
5.35 0.70999
5.36 0.849594
5.37 0.97442
5.38 1.08015
5.39 1.16154
5.4 1.21824
5.41 1.24347
5.42 1.24025
5.43 1.20588
5.44 1.14187
5.45 1.05149
5.46 0.934974
5.47 0.799468
5.48 0.647238
5.49 0.484861
5.5 0.317132
5.51 0.149641
5.52 -0.0131347
5.53 -0.1653
5.54 -0.304538
5.55 -0.426858
5.56 -0.530356
5.57 -0.615042
5.58 -0.678538
5.59 -0.724433
5.6 -0.752059
5.61 -0.765142
5.62 -0.765907
5.63 -0.756878
5.64 -0.74163
5.65 -0.722107
5.66 -0.701154
5.67 -0.680375
5.68 -0.66106
5.69 -0.643665
5.7 -0.62839
5.71 -0.614397
5.72 -0.600766
5.73 -0.586056
5.74 -0.568825
5.75 -0.547259
5.76 -0.5206
5.77 -0.486834
5.78 -0.446366
5.79 -0.398587
5.8 -0.344198
5.81 -0.284557
5.82 -0.220915
5.83 -0.155813
5.84 -0.0916169
5.85 -0.0309929
5.86 0.0235272
5.87 0.0688536
5.88 0.103989
5.89 0.125275
5.9 0.133471
5.91 0.126981
5.92 0.106226
5.93 0.0727096
5.94 0.026521
5.95 -0.0287896
5.96 -0.0919754
5.97 -0.159747
5.98 -0.229701
5.99 -0.299133
6 -0.366046
6.01 -0.427888
6.02 -0.483977
6.03 -0.533022
6.04 -0.574856
6.05 -0.610127
6.06 -0.638927
6.07 -0.663245
6.08 -0.684016
6.09 -0.703163
6.1 -0.722132
6.11 -0.74248
6.12 -0.765077
6.13 -0.791132
6.14 -0.820458
6.15 -0.85314
6.16 -0.888435
6.17 -0.925258
6.18 -0.962254
6.19 -0.997933
6.2 -1.03045
6.21 -1.05849
6.22 -1.08079
6.23 -1.096
6.24 -1.10443
6.25 -1.10496
6.26 -1.09916
6.27 -1.08746
6.28 -1.07142
6.29 -1.05274
6.3 -1.03305
6.31 -1.01402
6.32 -0.997153
6.33 -0.983166
6.34 -0.9723
6.35 -0.964079
6.36 -0.956919
6.37 -0.948321
6.38 -0.935223
6.39 -0.913301
6.4 -0.877625
6.41 -0.82434
6.42 -0.74532
6.43 -0.639265
6.44 -0.497957
6.45 -0.320309
6.46 -0.103542
6.47 0.155597
6.48 0.452097
6.49 0.789527
6.5 1.15816
6.51 1.55476
6.52 1.97069
6.53 2.39672
6.54 2.82247
6.55 3.23765
6.56 3.62916
6.57 3.98728
6.58 4.30183
6.59 4.56
6.6 4.76062
6.61 4.88724
6.62 4.94585
6.63 4.92915
6.64 4.83881
6.65 4.68142
6.66 4.4544
6.67 4.17374
6.68 3.84145
6.69 3.47174
6.7 3.07418
6.71 2.65962
6.72 2.23981
6.73 1.82571
6.74 1.42611
6.75 1.05032
6.76 0.705513
6.77 0.394773
6.78 0.126453
6.79 -0.103413
6.8 -0.289608
6.81 -0.436755
6.82 -0.546771
6.83 -0.621568
6.84 -0.668726
6.85 -0.688909
6.86 -0.690526
6.87 -0.676595
6.88 -0.652017
6.89 -0.620864
6.9 -0.585996
6.91 -0.550316
6.92 -0.515626
6.93 -0.483086
6.94 -0.453292
6.95 -0.426572
6.96 -0.402447
6.97 -0.380949
6.98 -0.361324
6.99 -0.343404
7 -0.326987
7.01 -0.312047
7.02 -0.299147
7.03 -0.288571
7.04 -0.281469
7.05 -0.278594
7.06 -0.280963
7.07 -0.289993
7.08 -0.305763
7.09 -0.33011
7.1 -0.362202
7.11 -0.402594
7.12 -0.450653
7.13 -0.505119
7.14 -0.565288
7.15 -0.628803
7.16 -0.694088
7.17 -0.758839
7.18 -0.821073
7.19 -0.878405
7.2 -0.929738
7.21 -0.972441
7.22 -1.00665
7.23 -1.03116
7.24 -1.04609
7.25 -1.05244
7.26 -1.05027
7.27 -1.04207
7.28 -1.02886
7.29 -1.01302
7.3 -0.996348
7.31 -0.980879
7.32 -0.967953
7.33 -0.959401
7.34 -0.955408
7.35 -0.956544
7.36 -0.962339
7.37 -0.971642
7.38 -0.983127
7.39 -0.994542
7.4 -1.00333
7.41 -1.00686
7.42 -1.00245
7.43 -0.986555
7.44 -0.958113
7.45 -0.912617
7.46 -0.850694
7.47 -0.770064
7.48 -0.670628
7.49 -0.553895
7.5 -0.419101
7.51 -0.270622
7.52 -0.109511
7.53 0.0598526
7.54 0.234033
7.55 0.408756
7.56 0.580147
7.57 0.742933
7.58 0.894237
7.59 1.02957
7.6 1.14562
7.61 1.24109
7.62 1.31105
7.63 1.35775
7.64 1.37762
7.65 1.37282
7.66 1.34393
7.67 1.29126
7.68 1.21921
7.69 1.1274
7.7 1.02129
7.71 0.902776
7.72 0.775495
7.73 0.642934
7.74 0.508131
7.75 0.374358
7.76 0.244772
7.77 0.121845
7.78 0.00782922
7.79 -0.0945152
7.8 -0.184957
7.81 -0.260122
7.82 -0.321161
7.83 -0.366512
7.84 -0.396252
7.85 -0.411571
7.86 -0.411394
7.87 -0.398829
7.88 -0.373718
7.89 -0.338734
7.9 -0.295615
7.91 -0.246304
7.92 -0.193566
7.93 -0.139544
7.94 -0.086834
7.95 -0.0378342
7.96 0.00506813
7.97 0.0404008
7.98 0.0652025
7.99 0.0796031
8 0.0812834
8.01 0.0706442
8.02 0.0475763
8.03 0.0118744
8.04 -0.034259
8.05 -0.0910272
8.06 -0.155334
8.07 -0.225852
8.08 -0.300196
8.09 -0.376134
8.1 -0.451382
8.11 -0.524107
8.12 -0.592155
8.13 -0.654372
8.14 -0.709767
8.15 -0.757304
8.16 -0.797738
8.17 -0.830292
8.18 -0.856745
8.19 -0.877671
8.2 -0.894528
8.21 -0.908831
8.22 -0.921836
8.23 -0.934889
8.24 -0.948967
8.25 -0.964544
8.26 -0.981649
8.27 -0.999748
8.28 -1.01768
8.29 -1.0334
8.3 -1.04484
8.31 -1.0489
8.32 -1.04216
8.33 -1.02215
8.34 -0.983165
8.35 -0.924647
8.36 -0.841052
8.37 -0.731677
8.38 -0.59483
8.39 -0.428065
8.4 -0.2349
8.41 -0.0125948
8.42 0.232495
8.43 0.498552
8.44 0.780288
8.45 1.07168
8.46 1.3667
8.47 1.65826
8.48 1.93847
8.49 2.20058
8.5 2.43799
8.51 2.64204
8.52 2.8112
8.53 2.93458
8.54 3.01463
8.55 3.046
8.56 3.02826
8.57 2.96498
8.58 2.85254
8.59 2.70094
8.6 2.50991
8.61 2.28809
8.62 2.04117
8.63 1.77532
8.64 1.49901
8.65 1.21845
8.66 0.940972
8.67 0.672858
8.68 0.420044
8.69 0.185807
8.7 -0.0232371
8.71 -0.208123
8.72 -0.364322
8.73 -0.493504
8.74 -0.596175
8.75 -0.672522
8.76 -0.72757
8.77 -0.761176
8.78 -0.779504
8.79 -0.784898
8.8 -0.781411
8.81 -0.772767
8.82 -0.761986
8.83 -0.752045
8.84 -0.745424
8.85 -0.743697
8.86 -0.747932
8.87 -0.759082
8.88 -0.776361
8.89 -0.800176
8.9 -0.828739
8.91 -0.861203
8.92 -0.895984
8.93 -0.931575
8.94 -0.966389
8.95 -0.999246
8.96 -1.02873
8.97 -1.05419
8.98 -1.07509
8.99 -1.09094
9 -1.10238
9.01 -1.10916
9.02 -1.11253
9.03 -1.11303
9.04 -1.11167
9.05 -1.1094
9.06 -1.10706
9.07 -1.10535
9.08 -1.10482
9.09 -1.10561
9.1 -1.10765
9.11 -1.11056
9.12 -1.11362
9.13 -1.11575
9.14 -1.11589
9.15 -1.11261
9.16 -1.10444
9.17 -1.09045
9.18 -1.06847
9.19 -1.03867
9.2 -0.99933
9.21 -0.950793
9.22 -0.893125
9.23 -0.826391
9.24 -0.752505
9.25 -0.671925
9.26 -0.58734
9.27 -0.500525
9.28 -0.414046
9.29 -0.330105
9.3 -0.251858
9.31 -0.180748
9.32 -0.119823
9.33 -0.0702103
9.34 -0.0331602
9.35 -0.0103509
9.36 -0.000445749
9.37 -0.00518508
9.38 -0.0218347
9.39 -0.0499473
9.4 -0.0875163
9.41 -0.132028
9.42 -0.181717
9.43 -0.23352
9.44 -0.285193
9.45 -0.334352
9.46 -0.379109
9.47 -0.417331
9.48 -0.448631
9.49 -0.471079
9.5 -0.485594
9.51 -0.491886
9.52 -0.490818
9.53 -0.483899
9.54 -0.472028
9.55 -0.457503
9.56 -0.441832
9.57 -0.42695
9.58 -0.414391
9.59 -0.405893
9.6 -0.402022
9.61 -0.404363
9.62 -0.41248
9.63 -0.426745
9.64 -0.446676
9.65 -0.471249
9.66 -0.499956
9.67 -0.531119
9.68 -0.563787
9.69 -0.596608
9.7 -0.628587
9.71 -0.658698
9.72 -0.686594
9.73 -0.711566
9.74 -0.733973
9.75 -0.753881
9.76 -0.771816
9.77 -0.788455
9.78 -0.804354
9.79 -0.820147
9.8 -0.836172
9.81 -0.852422
9.82 -0.868499
9.83 -0.883322
9.84 -0.895635
9.85 -0.902649
9.86 -0.902292
9.87 -0.890903
9.88 -0.864567
9.89 -0.820734
9.9 -0.752485
9.91 -0.659557
9.92 -0.535333
9.93 -0.378935
9.94 -0.188447
9.95 0.0394295
9.96 0.300378
9.97 0.598049
9.98 0.924937
9.99 1.27904
10 1.65428
10.01 2.04328
10.02 2.43916
10.03 2.83293
10.04 3.21526
10.05 3.57751
10.06 3.91152
10.07 4.20625
10.08 4.45939
10.09 4.65733
10.1 4.80219
10.11 4.8871
10.12 4.91057
10.13 4.87678
10.14 4.7801
10.15 4.6327
10.16 4.43347
10.17 4.19249
10.18 3.91653
10.19 3.61228
10.2 3.29051
10.21 2.95777
10.22 2.6236
10.23 2.29518
10.24 1.97984
10.25 1.68189
10.26 1.40895
10.27 1.16068
10.28 0.94218
10.29 0.752261
10.3 0.590503
10.31 0.457075
10.32 0.346659
10.33 0.25953
10.34 0.189223
10.35 0.133258
10.36 0.0874263
10.37 0.0477252
10.38 0.0111079
10.39 -0.0256745
10.4 -0.0651069
10.41 -0.108905
10.42 -0.158161
10.43 -0.213861
10.44 -0.275274
10.45 -0.342731
10.46 -0.414523
10.47 -0.489726
10.48 -0.566716
10.49 -0.643934
10.5 -0.719561
10.51 -0.792339
10.52 -0.860476
10.53 -0.923006
10.54 -0.979024
10.55 -1.02728
10.56 -1.06821
10.57 -1.10038
10.58 -1.12486
10.59 -1.14128
10.6 -1.14998
10.61 -1.15188
10.62 -1.14661
10.63 -1.13571
10.64 -1.11908
10.65 -1.09772
10.66 -1.07218
10.67 -1.04283
10.68 -1.01062
10.69 -0.97572
10.7 -0.939031
10.71 -0.900986
10.72 -0.86223
10.73 -0.823359
10.74 -0.785082
10.75 -0.747938
10.76 -0.712746
10.77 -0.680077
10.78 -0.65053
10.79 -0.625008
10.8 -0.603579
10.81 -0.587451
10.82 -0.576384
10.83 -0.571021
10.84 -0.571565
10.85 -0.57768
10.86 -0.590059
10.87 -0.607629
10.88 -0.630676
10.89 -0.658358
10.9 -0.690124
10.91 -0.725483
10.92 -0.763334
10.93 -0.803159
10.94 -0.843846
10.95 -0.884611
10.96 -0.924515
10.97 -0.962873
10.98 -0.998595
10.99 -1.0314
11 -1.06037
11.01 -1.08527
11.02 -1.10587
11.03 -1.12171
11.04 -1.13338
11.05 -1.14045
11.06 -1.14386
11.07 -1.14387
11.08 -1.1412
11.09 -1.13671
11.1 -1.13107
11.11 -1.12525
11.12 -1.12002
11.13 -1.11609
11.14 -1.11396
11.15 -1.11412
11.16 -1.11637
11.17 -1.12078
11.18 -1.12649
11.19 -1.13264
11.2 -1.13779
11.21 -1.14048
11.22 -1.13806
11.23 -1.12908
11.24 -1.11021
11.25 -1.07942
11.26 -1.03443
11.27 -0.971632
11.28 -0.891159
11.29 -0.7884
11.3 -0.664986
11.31 -0.519116
11.32 -0.351094
11.33 -0.163407
11.34 0.0445284
11.35 0.267241
11.36 0.502938
11.37 0.746375
11.38 0.993078
11.39 1.23741
11.4 1.47463
11.41 1.69747
11.42 1.90224
11.43 2.08285
11.44 2.23436
11.45 2.35534
11.46 2.43809
11.47 2.48613
11.48 2.49433
11.49 2.46545
11.5 2.40085
11.51 2.30072
11.52 2.17211
11.53 2.01504
11.54 1.83776
11.55 1.64389
11.56 1.43927
11.57 1.22948
11.58 1.01971
11.59 0.814554
11.6 0.618862
11.61 0.435741
11.62 0.267659
11.63 0.11776
11.64 -0.0151036
11.65 -0.128074
11.66 -0.224204
11.67 -0.30365
11.68 -0.368405
11.69 -0.421523
11.7 -0.464226
11.71 -0.500476
11.72 -0.532071
11.73 -0.561744
11.74 -0.59135
11.75 -0.622643
11.76 -0.656405
11.77 -0.693608
11.78 -0.733803
11.79 -0.776645
11.8 -0.821009
11.81 -0.865488
11.82 -0.908063
11.83 -0.947081
11.84 -0.979946
11.85 -1.0048
11.86 -1.0198
11.87 -1.0222
11.88 -1.01201
11.89 -0.985909
11.9 -0.945037
11.91 -0.888102
11.92 -0.815185
11.93 -0.727924
11.94 -0.625439
11.95 -0.511271
11.96 -0.385867
11.97 -0.252184
11.98 -0.112511
11.99 0.0306277
12 0.174321
12.01 0.315542
12.02 0.451769
12.03 0.580077
12.04 0.697666
12.05 0.803205
12.06 0.89263
12.07 0.966602
12.08 1.02194
12.09 1.05887
12.1 1.07713
12.11 1.07548
12.12 1.05669
12.13 1.01918
12.14 0.966651
12.15 0.899899
12.16 0.821213
12.17 0.733585
12.18 0.638658
12.19 0.539989
12.2 0.439771
12.21 0.340703
12.22 0.24487
12.23 0.1547
12.24 0.0709916
12.25 -0.00397577
12.26 -0.070571
12.27 -0.12808
12.28 -0.176768
12.29 -0.2179
12.3 -0.251626
12.31 -0.280328
12.32 -0.305019
12.33 -0.327711
12.34 -0.349961
12.35 -0.373462
12.36 -0.399257
12.37 -0.428768
12.38 -0.462104
12.39 -0.499585
