# xPDFsuite Configuration #
[PDF]
wavelength = 0.1432
dataformat = twotheta
inputfile = 1_1Pd_CeO2_cycle-00305.chi
backgroundfile = background-00000.chi
mode = xray
bgscale = 1.007
composition = CeO2
outputtype = gr
qmaxinst = 28.8974762299
qmin = 0.5
qmax = 27.9
rmax = 50.0
rmin = 0.0
rstep = 0.01
rpoly = 1.8657

[Misc]
inputdir = G:/SankarDec16/1Pd/Chi
savedir = D:/DATA/APS_CeO2/1Pd
backgroundfilefull = G:/SankarDec16/Background/background-00000.chi

#### start data
#S 1
#L r($\AA$)  G($\AA^{-2}$)
0 0
0.01 -0.00516608
0.02 -0.00994185
0.03 -0.0139255
0.04 -0.0168146
0.05 -0.0184411
0.06 -0.0185351
0.07 -0.0172773
0.08 -0.0145822
0.09 -0.0107946
0.1 -0.00615361
0.11 -0.00102479
0.12 0.00419456
0.13 0.00905746
0.14 0.0132495
0.15 0.0163844
0.16 0.0182375
0.17 0.0187203
0.18 0.0176511
0.19 0.0152971
0.2 0.0116721
0.21 0.00717895
0.22 0.00211599
0.23 -0.00310602
0.24 -0.008114
0.25 -0.0124265
0.26 -0.0158203
0.27 -0.017944
0.28 -0.0186619
0.29 -0.0179697
0.3 -0.0157828
0.31 -0.012442
0.32 -0.00805972
0.33 -0.00307729
0.34 0.0021626
0.35 0.007224
0.36 0.0117767
0.37 0.0153286
0.38 0.017759
0.39 0.018769
0.4 0.0183185
0.41 0.0164881
0.42 0.0132951
0.43 0.00913669
0.44 0.00421904
0.45 -0.000999864
0.46 -0.00615005
0.47 -0.0107916
0.48 -0.014654
0.49 -0.0172591
0.5 -0.0185946
0.51 -0.0184295
0.52 -0.016822
0.53 -0.0139335
0.54 -0.00988302
0.55 -0.0051049
0.56 0.000111123
0.57 0.00531276
0.58 0.0101212
0.59 0.0141144
0.6 0.0170951
0.61 0.018623
0.62 0.0187956
0.63 0.0174616
0.64 0.0147748
0.65 0.0109701
0.66 0.00626284
0.67 0.00110308
0.68 -0.00414995
0.69 -0.00907184
0.7 -0.013294
0.71 -0.0164325
0.72 -0.0183741
0.73 -0.0187375
0.74 -0.0177255
0.75 -0.0152733
0.76 -0.0116228
0.77 -0.00706991
0.78 -0.00191439
0.79 0.00340082
0.8 0.00846709
0.81 0.0129097
0.82 0.0163903
0.83 0.0185844
0.84 0.0194677
0.85 0.0187402
0.86 0.0166975
0.87 0.0133649
0.88 0.00905753
0.89 0.00411402
0.9 -0.00110141
0.91 -0.00618172
0.92 -0.0106995
0.93 -0.0143573
0.94 -0.0168766
0.95 -0.0180243
0.96 -0.0178747
0.97 -0.016252
0.98 -0.0135314
0.99 -0.00985068
1 -0.0055928
1.01 -0.00112674
1.02 0.00311526
1.03 0.00679974
1.04 0.00948658
1.05 0.0109944
1.06 0.011131
1.07 0.0097898
1.08 0.0071784
1.09 0.00329337
1.1 -0.00137794
1.11 -0.00653153
1.12 -0.0116691
1.13 -0.0163528
1.14 -0.0199964
1.15 -0.0223291
1.16 -0.0227922
1.17 -0.0213027
1.18 -0.0176904
1.19 -0.0119034
1.2 -0.00430435
1.21 0.00507237
1.22 0.0155372
1.23 0.02668
1.24 0.0378418
1.25 0.048449
1.26 0.0577375
1.27 0.0653362
1.28 0.0704836
1.29 0.0730073
1.3 0.072594
1.31 0.069022
1.32 0.0626468
1.33 0.0532048
1.34 0.0414834
1.35 0.0276957
1.36 0.0124803
1.37 -0.00356273
1.38 -0.0198135
1.39 -0.0356672
1.4 -0.0504524
1.41 -0.0637328
1.42 -0.0750554
1.43 -0.0839747
1.44 -0.0905214
1.45 -0.0941349
1.46 -0.0952284
1.47 -0.0936159
1.48 -0.0895338
1.49 -0.0832703
1.5 -0.074886
1.51 -0.0649265
1.52 -0.0535049
1.53 -0.0410861
1.54 -0.0279472
1.55 -0.0144167
1.56 -0.000814817
1.57 0.0125154
1.58 0.0253153
1.59 0.037239
1.6 0.0479978
1.61 0.0573778
1.62 0.0649217
1.63 0.0706292
1.64 0.0740115
1.65 0.0750959
1.66 0.0737038
1.67 0.0696858
1.68 0.0633297
1.69 0.0543661
1.7 0.0433955
1.71 0.0305248
1.72 0.0162374
1.73 0.00102267
1.74 -0.0146163
1.75 -0.0300985
1.76 -0.0448063
1.77 -0.0582623
1.78 -0.0699926
1.79 -0.0795203
1.8 -0.0868399
1.81 -0.0914397
1.82 -0.0937644
1.83 -0.0937822
1.84 -0.0919225
1.85 -0.0886831
1.86 -0.0845497
1.87 -0.0802164
1.88 -0.0763259
1.89 -0.0734585
1.9 -0.0721366
1.91 -0.0728697
1.92 -0.0756803
1.93 -0.0810169
1.94 -0.0883888
1.95 -0.0976893
1.96 -0.108338
1.97 -0.119695
1.98 -0.130972
1.99 -0.141401
2 -0.149968
2.01 -0.156004
2.02 -0.158761
2.03 -0.157468
2.04 -0.15216
2.05 -0.141894
2.06 -0.127395
2.07 -0.108444
2.08 -0.0855711
2.09 -0.0594182
2.1 -0.0303476
2.11 0.000620713
2.12 0.0330256
2.13 0.066095
2.14 0.0993585
2.15 0.13241
2.16 0.165087
2.17 0.197293
2.18 0.229243
2.19 0.261194
2.2 0.293562
2.21 0.326723
2.22 0.361229
2.23 0.397211
2.24 0.435045
2.25 0.474515
2.26 0.515369
2.27 0.556998
2.28 0.598528
2.29 0.638598
2.3 0.676029
2.31 0.709009
2.32 0.735862
2.33 0.755326
2.34 0.764832
2.35 0.764426
2.36 0.751696
2.37 0.727142
2.38 0.690379
2.39 0.641406
2.4 0.582318
2.41 0.513061
2.42 0.437044
2.43 0.355878
2.44 0.272456
2.45 0.189325
2.46 0.109554
2.47 0.03506
2.48 -0.0311164
2.49 -0.0878941
2.5 -0.133886
2.51 -0.16797
2.52 -0.191351
2.53 -0.202899
2.54 -0.205542
2.55 -0.200092
2.56 -0.188992
2.57 -0.17459
2.58 -0.159246
2.59 -0.145263
2.6 -0.135036
2.61 -0.130017
2.62 -0.131511
2.63 -0.14056
2.64 -0.15651
2.65 -0.180022
2.66 -0.208998
2.67 -0.242534
2.68 -0.278589
2.69 -0.315245
2.7 -0.350258
2.71 -0.382037
2.72 -0.408385
2.73 -0.428461
2.74 -0.441368
2.75 -0.446538
2.76 -0.445033
2.77 -0.436679
2.78 -0.423799
2.79 -0.407643
2.8 -0.390401
2.81 -0.373998
2.82 -0.360801
2.83 -0.352067
2.84 -0.349904
2.85 -0.354714
2.86 -0.367026
2.87 -0.386917
2.88 -0.412909
2.89 -0.444523
2.9 -0.479171
2.91 -0.515075
2.92 -0.549758
2.93 -0.581205
2.94 -0.606671
2.95 -0.625284
2.96 -0.63477
2.97 -0.635217
2.98 -0.626389
2.99 -0.60861
3 -0.583929
3.01 -0.553253
3.02 -0.519697
3.03 -0.485476
3.04 -0.453437
3.05 -0.425793
3.06 -0.405591
3.07 -0.393544
3.08 -0.392009
3.09 -0.40058
3.1 -0.419249
3.11 -0.447348
3.12 -0.482441
3.13 -0.523206
3.14 -0.566247
3.15 -0.609032
3.16 -0.64856
3.17 -0.682631
3.18 -0.708184
3.19 -0.724873
3.2 -0.730643
3.21 -0.726442
3.22 -0.712835
3.23 -0.691229
3.24 -0.664503
3.25 -0.635014
3.26 -0.60628
3.27 -0.581535
3.28 -0.563976
3.29 -0.555704
3.3 -0.56007
3.31 -0.576559
3.32 -0.607093
3.33 -0.649701
3.34 -0.703037
3.35 -0.764667
3.36 -0.830764
3.37 -0.897709
3.38 -0.961344
3.39 -1.01744
3.4 -1.06224
3.41 -1.09353
3.42 -1.10738
3.43 -1.10515
3.44 -1.0849
3.45 -1.04971
3.46 -1.00176
3.47 -0.944616
3.48 -0.883216
3.49 -0.82247
3.5 -0.767252
3.51 -0.722666
3.52 -0.692722
3.53 -0.679351
3.54 -0.686013
3.55 -0.709763
3.56 -0.750558
3.57 -0.802641
3.58 -0.860622
3.59 -0.916318
3.6 -0.962012
3.61 -0.984896
3.62 -0.978295
3.63 -0.929931
3.64 -0.831202
3.65 -0.677656
3.66 -0.456889
3.67 -0.174983
3.68 0.176344
3.69 0.58805
3.7 1.05562
3.71 1.57131
3.72 2.11952
3.73 2.68961
3.74 3.26259
3.75 3.82204
3.76 4.34953
3.77 4.83106
3.78 5.24337
3.79 5.58245
3.8 5.82654
3.81 5.97516
3.82 6.02188
3.83 5.96096
3.84 5.80578
3.85 5.54722
3.86 5.2093
3.87 4.79657
3.88 4.32606
3.89 3.81477
3.9 3.27683
3.91 2.73134
3.92 2.19391
3.93 1.67887
3.94 1.19845
3.95 0.765509
3.96 0.381935
3.97 0.0615102
3.98 -0.202915
3.99 -0.407034
4 -0.555621
4.01 -0.656032
4.02 -0.710466
4.03 -0.732401
4.04 -0.726334
4.05 -0.703377
4.06 -0.670721
4.07 -0.635894
4.08 -0.60451
4.09 -0.582391
4.1 -0.571243
4.11 -0.573525
4.12 -0.589014
4.13 -0.61597
4.14 -0.653104
4.15 -0.69616
4.16 -0.742172
4.17 -0.787
4.18 -0.827203
4.19 -0.858932
4.2 -0.880635
4.21 -0.888355
4.22 -0.882918
4.23 -0.862803
4.24 -0.828785
4.25 -0.782532
4.26 -0.72451
4.27 -0.658196
4.28 -0.584841
4.29 -0.507392
4.3 -0.427789
4.31 -0.348031
4.32 -0.26951
4.33 -0.193698
4.34 -0.120877
4.35 -0.0515664
4.36 0.0143943
4.37 0.0774751
4.38 0.137898
4.39 0.196506
4.4 0.253523
4.41 0.309345
4.42 0.363945
4.43 0.416913
4.44 0.467832
4.45 0.515246
4.46 0.558402
4.47 0.595495
4.48 0.62497
4.49 0.645785
4.5 0.655303
4.51 0.653898
4.52 0.639228
4.53 0.611959
4.54 0.571915
4.55 0.519129
4.56 0.455868
4.57 0.382069
4.58 0.30109
4.59 0.21441
4.6 0.124675
4.61 0.0342143
4.62 -0.0544002
4.63 -0.139389
4.64 -0.218325
4.65 -0.290171
4.66 -0.353812
4.67 -0.4082
4.68 -0.454168
4.69 -0.490617
4.7 -0.519545
4.71 -0.541231
4.72 -0.557095
4.73 -0.568614
4.74 -0.57681
4.75 -0.583337
4.76 -0.589189
4.77 -0.59542
4.78 -0.602725
4.79 -0.61169
4.8 -0.622348
4.81 -0.634974
4.82 -0.649081
4.83 -0.664435
4.84 -0.680498
4.85 -0.696754
4.86 -0.71262
4.87 -0.727689
4.88 -0.741431
4.89 -0.753642
4.9 -0.764124
4.91 -0.772721
4.92 -0.779668
4.93 -0.784833
4.94 -0.78866
4.95 -0.79126
4.96 -0.792927
4.97 -0.793924
4.98 -0.794425
4.99 -0.794673
5 -0.794798
5.01 -0.794947
5.02 -0.795229
5.03 -0.79578
5.04 -0.796688
5.05 -0.798186
5.06 -0.800376
5.07 -0.803521
5.08 -0.807845
5.09 -0.813483
5.1 -0.820784
5.11 -0.829606
5.12 -0.8401
5.13 -0.851891
5.14 -0.864574
5.15 -0.877395
5.16 -0.889445
5.17 -0.89913
5.18 -0.905223
5.19 -0.905656
5.2 -0.898409
5.21 -0.882011
5.22 -0.853056
5.23 -0.811437
5.24 -0.753801
5.25 -0.680201
5.26 -0.58976
5.27 -0.48163
5.28 -0.358283
5.29 -0.218814
5.3 -0.067693
5.31 0.0931756
5.32 0.259668
5.33 0.427676
5.34 0.592113
5.35 0.748876
5.36 0.891876
5.37 1.01739
5.38 1.12119
5.39 1.19821
5.4 1.24876
5.41 1.26633
5.42 1.25473
5.43 1.21178
5.44 1.1396
5.45 1.04193
5.46 0.919586
5.47 0.779823
5.48 0.62531
5.49 0.462525
5.5 0.296216
5.51 0.13185
5.52 -0.026541
5.53 -0.173269
5.54 -0.306575
5.55 -0.422841
5.56 -0.520614
5.57 -0.600222
5.58 -0.659709
5.59 -0.702731
5.6 -0.728897
5.61 -0.741847
5.62 -0.743765
5.63 -0.737068
5.64 -0.725013
5.65 -0.709384
5.66 -0.692639
5.67 -0.67612
5.68 -0.660819
5.69 -0.646983
5.7 -0.634543
5.71 -0.622639
5.72 -0.610191
5.73 -0.595837
5.74 -0.578187
5.75 -0.55552
5.76 -0.527289
5.77 -0.491604
5.78 -0.449101
5.79 -0.399333
5.8 -0.343167
5.81 -0.28206
5.82 -0.2174
5.83 -0.151706
5.84 -0.0874018
5.85 -0.0270817
5.86 0.0267747
5.87 0.0711476
5.88 0.105148
5.89 0.125184
5.9 0.1321
5.91 0.124348
5.92 0.102377
5.93 0.0676909
5.94 0.0203602
5.95 -0.036106
5.96 -0.100515
5.97 -0.169624
5.98 -0.241071
5.99 -0.31218
6 -0.380932
6.01 -0.444754
6.02 -0.502864
6.03 -0.553866
6.04 -0.597433
6.05 -0.634071
6.06 -0.663623
6.07 -0.687992
6.08 -0.707856
6.09 -0.725089
6.1 -0.741056
6.11 -0.757252
6.12 -0.774726
6.13 -0.794683
6.14 -0.817283
6.15 -0.842834
6.16 -0.870959
6.17 -0.900914
6.18 -0.93182
6.19 -0.96244
6.2 -0.991425
6.21 -1.01762
6.22 -1.03999
6.23 -1.0574
6.24 -1.06993
6.25 -1.07664
6.26 -1.07859
6.27 -1.07602
6.28 -1.07001
6.29 -1.06178
6.3 -1.05243
6.31 -1.04316
6.32 -1.03485
6.33 -1.02787
6.34 -1.02211
6.35 -1.0167
6.36 -1.01019
6.37 -0.999715
6.38 -0.982674
6.39 -0.954808
6.4 -0.91159
6.41 -0.849631
6.42 -0.76121
6.43 -0.645594
6.44 -0.49505
6.45 -0.308931
6.46 -0.084817
6.47 0.180165
6.48 0.481001
6.49 0.82093
6.5 1.19052
6.51 1.58656
6.52 2.00068
6.53 2.424
6.54 2.84644
6.55 3.2581
6.56 3.64624
6.57 4.00144
6.58 4.31374
6.59 4.57053
6.6 4.77062
6.61 4.89765
6.62 4.95737
6.63 4.94234
6.64 4.85393
6.65 4.69846
6.66 4.47299
6.67 4.1933
6.68 3.86105
6.69 3.49035
6.7 3.09068
6.71 2.67282
6.72 2.24875
6.73 1.82949
6.74 1.42423
6.75 1.0426
6.76 0.692162
6.77 0.376373
6.78 0.104086
6.79 -0.128494
6.8 -0.315719
6.81 -0.462176
6.82 -0.569718
6.83 -0.640242
6.84 -0.681696
6.85 -0.694848
6.86 -0.688684
6.87 -0.666614
6.88 -0.634091
6.89 -0.595639
6.9 -0.554749
6.91 -0.514552
6.92 -0.477384
6.93 -0.444475
6.94 -0.41652
6.95 -0.393904
6.96 -0.375732
6.97 -0.361985
6.98 -0.351241
6.99 -0.342933
7 -0.336255
7.01 -0.330661
7.02 -0.326047
7.03 -0.322387
7.04 -0.320244
7.05 -0.320233
7.06 -0.323216
7.07 -0.330481
7.08 -0.342484
7.09 -0.36103
7.1 -0.385935
7.11 -0.418093
7.12 -0.457442
7.13 -0.503234
7.14 -0.555371
7.15 -0.611859
7.16 -0.67167
7.17 -0.732692
7.18 -0.793132
7.19 -0.850771
7.2 -0.904226
7.21 -0.95095
7.22 -0.990532
7.23 -1.02152
7.24 -1.04356
7.25 -1.0572
7.26 -1.06201
7.27 -1.06015
7.28 -1.05218
7.29 -1.04027
7.3 -1.02604
7.31 -1.01137
7.32 -0.99778
7.33 -0.987
7.34 -0.979621
7.35 -0.976374
7.36 -0.977128
7.37 -0.981065
7.38 -0.987182
7.39 -0.993513
7.4 -0.997801
7.41 -0.997573
7.42 -0.990273
7.43 -0.972489
7.44 -0.943039
7.45 -0.897488
7.46 -0.836223
7.47 -0.756871
7.48 -0.659137
7.49 -0.544342
7.5 -0.411559
7.51 -0.265013
7.52 -0.105624
7.53 0.062296
7.54 0.235349
7.55 0.409284
7.56 0.58016
7.57 0.742685
7.58 0.893881
7.59 1.0292
7.6 1.14525
7.61 1.24067
7.62 1.31052
7.63 1.35702
7.64 1.37664
7.65 1.37157
7.66 1.34247
7.67 1.28971
7.68 1.21775
7.69 1.12632
7.7 1.02089
7.71 0.903387
7.72 0.777429
7.73 0.64644
7.74 0.513391
7.75 0.381412
7.76 0.253517
7.77 0.132023
7.78 0.0190318
7.79 -0.0828773
7.8 -0.173513
7.81 -0.249683
7.82 -0.312452
7.83 -0.360274
7.84 -0.393108
7.85 -0.411963
7.86 -0.41558
7.87 -0.406789
7.88 -0.385149
7.89 -0.353062
7.9 -0.312017
7.91 -0.263661
7.92 -0.21073
7.93 -0.155076
7.94 -0.0994773
7.95 -0.0463214
7.96 0.00179935
7.97 0.0431127
7.98 0.0743725
7.99 0.0952738
8 0.10307
8.01 0.0977535
8.02 0.0788413
8.03 0.0456832
8.04 0.000421017
8.05 -0.0576015
8.06 -0.125053
8.07 -0.200676
8.08 -0.281853
8.09 -0.365971
8.1 -0.450457
8.11 -0.532881
8.12 -0.610609
8.13 -0.681935
8.14 -0.745393
8.15 -0.799383
8.16 -0.844506
8.17 -0.879412
8.18 -0.906066
8.19 -0.924885
8.2 -0.937513
8.21 -0.94584
8.22 -0.951337
8.23 -0.956009
8.24 -0.961265
8.25 -0.968184
8.26 -0.977286
8.27 -0.988609
8.28 -1.00121
8.29 -1.01362
8.3 -1.02364
8.31 -1.02834
8.32 -1.02416
8.33 -1.00829
8.34 -0.974832
8.35 -0.922607
8.36 -0.845663
8.37 -0.742731
8.38 -0.611654
8.39 -0.449446
8.4 -0.259421
8.41 -0.0383187
8.42 0.207391
8.43 0.476032
8.44 0.762166
8.45 1.05944
8.46 1.36161
8.47 1.66102
8.48 1.94937
8.49 2.21938
8.5 2.46401
8.51 2.67408
8.52 2.8479
8.53 2.97407
8.54 3.05518
8.55 3.08573
8.56 3.06542
8.57 2.99815
8.58 2.88047
8.59 2.72289
8.6 2.5255
8.61 2.29739
8.62 2.04463
8.63 1.77377
8.64 1.49345
8.65 1.21024
8.66 0.93135
8.67 0.663124
8.68 0.411345
8.69 0.179024
8.7 -0.0274287
8.71 -0.209445
8.72 -0.362804
8.73 -0.489506
8.74 -0.590313
8.75 -0.665687
8.76 -0.720672
8.77 -0.755315
8.78 -0.775583
8.79 -0.783743
8.8 -0.783602
8.81 -0.778594
8.82 -0.771414
8.83 -0.764735
8.84 -0.760679
8.85 -0.760595
8.86 -0.765369
8.87 -0.775768
8.88 -0.791139
8.89 -0.811803
8.9 -0.836327
8.91 -0.864059
8.92 -0.893794
8.93 -0.924385
8.94 -0.954705
8.95 -0.983866
8.96 -1.01089
8.97 -1.03531
8.98 -1.05676
8.99 -1.07487
9 -1.09007
9.01 -1.10213
9.02 -1.1118
9.03 -1.11935
9.04 -1.12529
9.05 -1.13013
9.06 -1.13415
9.07 -1.13771
9.08 -1.14084
9.09 -1.14349
9.1 -1.14543
9.11 -1.1461
9.12 -1.1451
9.13 -1.14131
9.14 -1.13425
9.15 -1.1228
9.16 -1.10604
9.17 -1.08355
9.18 -1.05378
9.19 -1.01724
9.2 -0.972785
9.21 -0.920961
9.22 -0.862008
9.23 -0.796161
9.24 -0.725008
9.25 -0.649043
9.26 -0.570363
9.27 -0.490403
9.28 -0.411175
9.29 -0.334375
9.3 -0.262549
9.31 -0.196788
9.32 -0.139612
9.33 -0.0919714
9.34 -0.0549817
9.35 -0.0302076
9.36 -0.0166709
9.37 -0.0161612
9.38 -0.0265542
9.39 -0.0478026
9.4 -0.0784914
9.41 -0.11661
9.42 -0.161064
9.43 -0.209074
9.44 -0.25895
9.45 -0.308417
9.46 -0.35567
9.47 -0.398635
9.48 -0.436471
9.49 -0.467123
9.5 -0.490803
9.51 -0.506732
9.52 -0.515087
9.53 -0.516817
9.54 -0.512028
9.55 -0.502739
9.56 -0.48981
9.57 -0.475077
9.58 -0.459981
9.59 -0.446183
9.6 -0.434788
9.61 -0.427486
9.62 -0.424662
9.63 -0.427222
9.64 -0.435458
9.65 -0.448994
9.66 -0.468199
9.67 -0.491761
9.68 -0.519466
9.69 -0.550132
9.7 -0.582917
9.71 -0.61695
9.72 -0.651341
9.73 -0.685364
9.74 -0.718511
9.75 -0.750338
9.76 -0.780577
9.77 -0.809199
9.78 -0.835883
9.79 -0.860796
9.8 -0.883505
9.81 -0.903748
9.82 -0.920909
9.83 -0.933676
9.84 -0.941274
9.85 -0.940844
9.86 -0.931145
9.87 -0.908961
9.88 -0.871127
9.89 -0.815789
9.9 -0.736838
9.91 -0.634522
9.92 -0.502948
9.93 -0.341532
9.94 -0.148588
9.95 0.0789451
9.96 0.337167
9.97 0.629672
9.98 0.949711
9.99 1.29571
10 1.6623
10.01 2.04277
10.02 2.43102
10.03 2.81853
10.04 3.19668
10.05 3.55709
10.06 3.89179
10.07 4.18998
10.08 4.44887
10.09 4.65489
10.1 4.80937
10.11 4.90496
10.12 4.93941
10.13 4.91621
10.14 4.82886
10.15 4.68904
10.16 4.49486
10.17 4.2561
10.18 3.97928
10.19 3.67083
10.2 3.34198
10.21 2.99919
10.22 2.65286
10.23 2.31066
10.24 1.9807
10.25 1.66809
10.26 1.38136
10.27 1.12082
10.28 0.892445
10.29 0.69548
10.3 0.52988
10.31 0.396255
10.32 0.288889
10.33 0.208364
10.34 0.147382
10.35 0.103122
10.36 0.0706274
10.37 0.0450936
10.38 0.022654
10.39 -0.000716413
10.4 -0.0283705
10.41 -0.0626041
10.42 -0.104988
10.43 -0.157081
10.44 -0.217938
10.45 -0.288349
10.46 -0.36595
10.47 -0.449642
10.48 -0.537222
10.49 -0.626416
10.5 -0.714788
10.51 -0.800273
10.52 -0.880346
10.53 -0.953416
10.54 -1.01807
10.55 -1.07247
10.56 -1.11709
10.57 -1.14999
10.58 -1.17267
10.59 -1.18481
10.6 -1.18715
10.61 -1.18114
10.62 -1.16681
10.63 -1.14643
10.64 -1.12041
10.65 -1.09033
10.66 -1.05715
10.67 -1.02175
10.68 -0.985131
10.69 -0.94787
10.7 -0.910624
10.71 -0.873834
10.72 -0.837902
10.73 -0.803045
10.74 -0.769723
10.75 -0.737968
10.76 -0.708252
10.77 -0.680757
10.78 -0.655799
10.79 -0.633975
10.8 -0.615316
10.81 -0.600817
10.82 -0.59041
10.83 -0.584784
10.84 -0.584338
10.85 -0.588986
10.86 -0.599646
10.87 -0.615518
10.88 -0.637125
10.89 -0.663801
10.9 -0.695109
10.91 -0.730654
10.92 -0.769244
10.93 -0.81034
10.94 -0.852603
10.95 -0.895067
10.96 -0.936531
10.97 -0.976098
10.98 -1.01236
10.99 -1.04495
11 -1.07271
11.01 -1.09543
11.02 -1.11288
11.03 -1.1247
11.04 -1.13175
11.05 -1.1338
11.06 -1.13219
11.07 -1.12753
11.08 -1.12096
11.09 -1.11359
11.1 -1.10661
11.11 -1.10096
11.12 -1.09775
11.13 -1.09758
11.14 -1.10084
11.15 -1.10788
11.16 -1.11804
11.17 -1.13107
11.18 -1.1455
11.19 -1.15999
11.2 -1.17251
11.21 -1.18123
11.22 -1.1828
11.23 -1.17574
11.24 -1.15629
11.25 -1.1225
11.26 -1.07218
11.27 -1.00186
11.28 -0.912246
11.29 -0.799033
11.3 -0.664594
11.31 -0.507693
11.32 -0.329323
11.33 -0.132463
11.34 0.0827054
11.35 0.31059
11.36 0.548872
11.37 0.79235
11.38 1.03661
11.39 1.27609
11.4 1.50667
11.41 1.72133
11.42 1.91717
11.43 2.08868
11.44 2.23162
11.45 2.34506
11.46 2.42209
11.47 2.46635
11.48 2.47323
11.49 2.44543
11.5 2.38424
11.51 2.28972
11.52 2.1683
11.53 2.01966
11.54 1.85127
11.55 1.66613
11.56 1.46932
11.57 1.26594
11.58 1.06035
11.59 0.857075
11.6 0.660432
11.61 0.47364
11.62 0.299298
11.63 0.140712
11.64 -0.00255935
11.65 -0.127261
11.66 -0.235581
11.67 -0.326994
11.68 -0.402686
11.69 -0.465169
11.7 -0.514774
11.71 -0.555391
11.72 -0.588241
11.73 -0.616171
11.74 -0.641166
11.75 -0.665129
11.76 -0.689589
11.77 -0.715886
11.78 -0.74448
11.79 -0.775702
11.8 -0.809234
11.81 -0.844231
11.82 -0.879528
11.83 -0.913571
11.84 -0.944307
11.85 -0.969767
11.86 -0.987976
11.87 -0.996016
11.88 -0.993192
11.89 -0.975807
11.9 -0.944144
11.91 -0.896267
11.92 -0.831513
11.93 -0.751027
11.94 -0.653158
11.95 -0.541416
11.96 -0.41581
11.97 -0.279473
11.98 -0.13489
11.99 0.0151612
12 0.167078
12.01 0.317366
12.02 0.46273
12.03 0.599606
12.04 0.724511
12.05 0.835721
12.06 0.928477
12.07 1.00354
12.08 1.05741
12.09 1.09061
12.1 1.10316
12.11 1.09419
12.12 1.06719
12.13 1.02114
12.14 0.960454
12.15 0.886572
12.16 0.802389
12.17 0.711176
12.18 0.615167
12.19 0.51765
12.2 0.420984
12.21 0.327421
12.22 0.23861
12.23 0.156429
12.24 0.0809465
12.25 0.0136873
12.26 -0.0463579
12.27 -0.099146
12.28 -0.145493
12.29 -0.186789
12.3 -0.223703
12.31 -0.258104
12.32 -0.291001
12.33 -0.32373
12.34 -0.357218
12.35 -0.392357
12.36 -0.429362
12.37 -0.468638
12.38 -0.509659
12.39 -0.551965
12.4 -0.594574
12.41 -0.636415
