# xPDFsuite Configuration #
[PDF]
wavelength = 0.1432
dataformat = twotheta
inputfile = 1_1Pd_CeO2_cycle-00088.chi
backgroundfile = background-00000.chi
mode = xray
bgscale = 1.007
composition = CeO2
outputtype = gr
qmaxinst = 28.8974762299
qmin = 0.5
qmax = 27.9
rmax = 50.0
rmin = 0.0
rstep = 0.01
rpoly = 1.8657

[Misc]
inputdir = G:/SankarDec16/1Pd/Chi
savedir = D:/DATA/APS_CeO2/1Pd
backgroundfilefull = G:/SankarDec16/Background/background-00000.chi

#### start data
#S 1
#L r($\AA$)  G($\AA^{-2}$)
0 0
0.01 -0.0053616
0.02 -0.0103183
0.03 -0.0144534
0.04 -0.0174531
0.05 -0.0191429
0.06 -0.0192427
0.07 -0.01794
0.08 -0.0151457
0.09 -0.0112174
0.1 -0.00640294
0.11 -0.00108127
0.12 0.00433539
0.13 0.00938358
0.14 0.0137368
0.15 0.0169943
0.16 0.0189227
0.17 0.0194298
0.18 0.0183265
0.19 0.0158896
0.2 0.0121328
0.21 0.00747383
0.22 0.00222173
0.23 -0.00319766
0.24 -0.00839706
0.25 -0.0128772
0.26 -0.0164058
0.27 -0.0186181
0.28 -0.0193724
0.29 -0.0186635
0.3 -0.0164031
0.31 -0.0129437
0.32 -0.00840143
0.33 -0.00323365
0.34 0.00220441
0.35 0.00746061
0.36 0.0121918
0.37 0.0158875
0.38 0.0184212
0.39 0.0194821
0.4 0.0190277
0.41 0.0171403
0.42 0.0138368
0.43 0.0095287
0.44 0.00442883
0.45 -0.000987685
0.46 -0.00633716
0.47 -0.011163
0.48 -0.0151836
0.49 -0.0179021
0.5 -0.0193046
0.51 -0.01915
0.52 -0.0174973
0.53 -0.0145128
0.54 -0.0103184
0.55 -0.00536464
0.56 4.91269e-05
0.57 0.00545313
0.58 0.0104542
0.59 0.0146136
0.6 0.0177254
0.61 0.0193315
0.62 0.0195314
0.63 0.0181661
0.64 0.0153939
0.65 0.0114572
0.66 0.00657784
0.67 0.00122303
0.68 -0.00423547
0.69 -0.00935625
0.7 -0.0137562
0.71 -0.0170358
0.72 -0.0190755
0.73 -0.0194782
0.74 -0.0184522
0.75 -0.0159285
0.76 -0.0121565
0.77 -0.00744254
0.78 -0.00209633
0.79 0.00342169
0.8 0.00868781
0.81 0.0133115
0.82 0.0169405
0.83 0.019236
0.84 0.0201712
0.85 0.0194326
0.86 0.0173255
0.87 0.0138748
0.88 0.00940715
0.89 0.0042743
0.9 -0.00114516
0.91 -0.00642655
0.92 -0.0111239
0.93 -0.0149253
0.94 -0.0175384
0.95 -0.0187169
0.96 -0.0185358
0.97 -0.0168072
0.98 -0.013921
0.99 -0.0100175
1 -0.00549512
1.01 -0.000739378
1.02 0.00379885
1.03 0.00776659
1.04 0.0107009
1.05 0.0124047
1.06 0.0126695
1.07 0.0113732
1.08 0.00872462
1.09 0.00470297
1.1 -0.000187201
1.11 -0.00564316
1.12 -0.0111518
1.13 -0.016259
1.14 -0.0203642
1.15 -0.023174
1.16 -0.024111
1.17 -0.0230731
1.18 -0.0198735
1.19 -0.0144421
1.2 -0.00713674
1.21 0.00202937
1.22 0.0123598
1.23 0.0234547
1.24 0.0346526
1.25 0.045375
1.26 0.0548618
1.27 0.0627271
1.28 0.0682131
1.29 0.0711351
1.3 0.0711761
1.31 0.0681097
1.32 0.0622806
1.33 0.0534239
1.34 0.0423127
1.35 0.0291521
1.36 0.0145667
1.37 -0.00085779
1.38 -0.0165233
1.39 -0.0318406
1.4 -0.0461696
1.41 -0.0590921
1.42 -0.0701812
1.43 -0.0790223
1.44 -0.0856493
1.45 -0.0895477
1.46 -0.0911097
1.47 -0.0901691
1.48 -0.0869476
1.49 -0.0817092
1.5 -0.0744985
1.51 -0.0658043
1.52 -0.0556995
1.53 -0.0445842
1.54 -0.0326746
1.55 -0.0202228
1.56 -0.00750457
1.57 0.00524243
1.58 0.0177682
1.59 0.0297996
1.6 0.0410665
1.61 0.0513488
1.62 0.0602218
1.63 0.0676029
1.64 0.0729992
1.65 0.076337
1.66 0.0773652
1.67 0.0758331
1.68 0.071928
1.69 0.0652489
1.7 0.0563152
1.71 0.0451106
1.72 0.0320348
1.73 0.0175305
1.74 0.0019899
1.75 -0.0139516
1.76 -0.0297536
1.77 -0.0448541
1.78 -0.0587454
1.79 -0.070887
1.8 -0.0811439
1.81 -0.0889339
1.82 -0.0945458
1.83 -0.0978345
1.84 -0.0990974
1.85 -0.0987314
1.86 -0.0970766
1.87 -0.0947954
1.88 -0.0924001
1.89 -0.0904752
1.9 -0.089509
1.91 -0.0899929
1.92 -0.092034
1.93 -0.096045
1.94 -0.101682
1.95 -0.108877
1.96 -0.117156
1.97 -0.125975
1.98 -0.134639
1.99 -0.142478
2 -0.148573
2.01 -0.152325
2.02 -0.153057
2.03 -0.150065
2.04 -0.143392
2.05 -0.132182
2.06 -0.117117
2.07 -0.0980159
2.08 -0.0753915
2.09 -0.0498553
2.1 -0.0217837
2.11 0.00788094
2.12 0.0386729
2.13 0.0698894
2.14 0.101096
2.15 0.131933
2.16 0.1623
2.17 0.192151
2.18 0.221763
2.19 0.25146
2.2 0.281723
2.21 0.312981
2.22 0.345883
2.23 0.380576
2.24 0.41754
2.25 0.456569
2.26 0.497456
2.27 0.539633
2.28 0.582182
2.29 0.623807
2.3 0.663219
2.31 0.698597
2.32 0.728177
2.33 0.750606
2.34 0.763225
2.35 0.765957
2.36 0.756271
2.37 0.734555
2.38 0.700316
2.39 0.653431
2.4 0.595966
2.41 0.527718
2.42 0.452152
2.43 0.370817
2.44 0.286646
2.45 0.202255
2.46 0.12074
2.47 0.0441701
2.48 -0.0243425
2.49 -0.0835686
2.5 -0.132008
2.51 -0.168405
2.52 -0.193881
2.53 -0.207165
2.54 -0.211171
2.55 -0.206635
2.56 -0.195996
2.57 -0.181637
2.58 -0.165918
2.59 -0.151259
2.6 -0.140102
2.61 -0.134021
2.62 -0.134412
2.63 -0.14242
2.64 -0.157464
2.65 -0.180305
2.66 -0.208855
2.67 -0.242253
2.68 -0.278437
2.69 -0.315443
2.7 -0.350978
2.71 -0.383346
2.72 -0.410251
2.73 -0.430744
2.74 -0.443821
2.75 -0.448798
2.76 -0.446702
2.77 -0.437235
2.78 -0.422779
2.79 -0.404561
2.8 -0.384851
2.81 -0.365681
2.82 -0.34954
2.83 -0.337862
2.84 -0.332949
2.85 -0.335386
2.86 -0.345888
2.87 -0.364751
2.88 -0.390546
2.89 -0.423059
2.9 -0.459598
2.91 -0.498477
2.92 -0.537128
2.93 -0.57338
2.94 -0.604377
2.95 -0.628935
2.96 -0.644548
2.97 -0.65098
2.98 -0.647696
2.99 -0.634663
3 -0.613754
3.01 -0.585432
3.02 -0.552829
3.03 -0.517911
3.04 -0.483517
3.05 -0.451968
3.06 -0.426279
3.07 -0.40756
3.08 -0.398301
3.09 -0.398535
3.1 -0.408599
3.11 -0.428263
3.12 -0.455441
3.13 -0.489349
3.14 -0.526785
3.15 -0.565622
3.16 -0.603054
3.17 -0.636916
3.18 -0.664396
3.19 -0.684808
3.2 -0.696162
3.21 -0.69898
3.22 -0.693542
3.23 -0.680862
3.24 -0.663349
3.25 -0.642887
3.26 -0.622576
3.27 -0.60518
3.28 -0.59353
3.29 -0.589519
3.3 -0.596079
3.31 -0.612864
3.32 -0.641538
3.33 -0.680429
3.34 -0.728342
3.35 -0.783101
3.36 -0.841357
3.37 -0.899807
3.38 -0.954833
3.39 -1.00264
3.4 -1.03993
3.41 -1.06481
3.42 -1.07385
3.43 -1.06841
3.44 -1.04692
3.45 -1.01234
3.46 -0.966808
3.47 -0.91377
3.48 -0.857759
3.49 -0.803511
3.5 -0.755348
3.51 -0.718001
3.52 -0.695008
3.53 -0.687932
3.54 -0.699735
3.55 -0.727334
3.56 -0.770282
3.57 -0.822842
3.58 -0.879582
3.59 -0.932352
3.6 -0.973792
3.61 -0.991203
3.62 -0.978459
3.63 -0.923639
3.64 -0.818642
3.65 -0.659429
3.66 -0.434161
3.67 -0.149128
3.68 0.203446
3.69 0.614461
3.7 1.07927
3.71 1.59007
3.72 2.13163
3.73 2.69326
3.74 3.25663
3.75 3.80565
3.76 4.32244
3.77 4.79352
3.78 5.19628
3.79 5.52709
3.8 5.76483
3.81 5.90924
3.82 5.95418
3.83 5.89417
3.84 5.7423
3.85 5.48972
3.86 5.15979
3.87 4.75688
3.88 4.29745
3.89 3.79795
3.9 3.27192
3.91 2.73787
3.92 2.21077
3.93 1.70453
3.94 1.23095
3.95 0.802494
3.96 0.421133
3.97 0.100244
3.98 -0.166817
3.99 -0.375688
4 -0.530692
4.01 -0.638676
4.02 -0.701359
4.03 -0.731593
4.04 -0.733283
4.05 -0.717039
4.06 -0.689603
4.07 -0.658044
4.08 -0.62797
4.09 -0.60477
4.1 -0.590551
4.11 -0.587791
4.12 -0.596675
4.13 -0.615943
4.14 -0.644792
4.15 -0.679594
4.16 -0.718015
4.17 -0.756453
4.18 -0.791963
4.19 -0.821229
4.2 -0.842722
4.21 -0.853015
4.22 -0.852513
4.23 -0.839717
4.24 -0.814976
4.25 -0.779427
4.26 -0.733028
4.27 -0.678502
4.28 -0.616387
4.29 -0.548956
4.3 -0.477523
4.31 -0.403396
4.32 -0.32785
4.33 -0.251612
4.34 -0.175364
4.35 -0.0994602
4.36 -0.0241163
4.37 0.0505874
4.38 0.124445
4.39 0.197386
4.4 0.268923
4.41 0.338595
4.42 0.405624
4.43 0.468735
4.44 0.527208
4.45 0.578632
4.46 0.622491
4.47 0.656618
4.48 0.679676
4.49 0.691093
4.5 0.688466
4.51 0.673157
4.52 0.643404
4.53 0.600839
4.54 0.546091
4.55 0.480132
4.56 0.405734
4.57 0.323872
4.58 0.237913
4.59 0.149859
4.6 0.062335
4.61 -0.0226446
4.62 -0.102525
4.63 -0.176455
4.64 -0.2424
4.65 -0.300279
4.66 -0.349728
4.67 -0.390602
4.68 -0.424358
4.69 -0.450884
4.7 -0.472392
4.71 -0.48974
4.72 -0.504483
4.73 -0.517924
4.74 -0.5312
4.75 -0.545178
4.76 -0.560592
4.77 -0.577636
4.78 -0.596338
4.79 -0.616465
4.8 -0.637413
4.81 -0.658554
4.82 -0.679102
4.83 -0.698251
4.84 -0.715263
4.85 -0.729722
4.86 -0.740883
4.87 -0.749028
4.88 -0.753832
4.89 -0.755879
4.9 -0.755594
4.91 -0.753599
4.92 -0.750754
4.93 -0.747818
4.94 -0.74556
4.95 -0.744689
4.96 -0.745741
4.97 -0.748928
4.98 -0.754653
4.99 -0.762505
5 -0.772478
5.01 -0.783953
5.02 -0.796441
5.03 -0.809319
5.04 -0.822006
5.05 -0.833848
5.06 -0.844529
5.07 -0.853657
5.08 -0.861109
5.09 -0.866981
5.1 -0.871251
5.11 -0.874359
5.12 -0.876436
5.13 -0.87781
5.14 -0.878588
5.15 -0.87868
5.16 -0.877891
5.17 -0.8754
5.18 -0.870533
5.19 -0.861881
5.2 -0.847879
5.21 -0.827224
5.22 -0.796994
5.23 -0.756684
5.24 -0.70312
5.25 -0.635819
5.26 -0.553544
5.27 -0.454966
5.28 -0.341895
5.29 -0.21287
5.3 -0.071756
5.31 0.0801031
5.32 0.239062
5.33 0.401265
5.34 0.562102
5.35 0.717281
5.36 0.860952
5.37 0.989056
5.38 1.09715
5.39 1.17987
5.4 1.237
5.41 1.26165
5.42 1.25712
5.43 1.22078
5.44 1.15433
5.45 1.06126
5.46 0.941969
5.47 0.803775
5.48 0.649107
5.49 0.484634
5.5 0.31522
5.51 0.14651
5.52 -0.0170722
5.53 -0.169608
5.54 -0.308904
5.55 -0.431017
5.56 -0.534141
5.57 -0.618366
5.58 -0.68138
5.59 -0.726826
5.6 -0.754069
5.61 -0.766834
5.62 -0.767334
5.63 -0.758056
5.64 -0.742535
5.65 -0.722652
5.66 -0.70122
5.67 -0.679796
5.68 -0.659659
5.69 -0.641277
5.7 -0.624869
5.71 -0.609671
5.72 -0.594841
5.73 -0.57904
5.74 -0.560933
5.75 -0.538837
5.76 -0.512051
5.77 -0.478718
5.78 -0.439216
5.79 -0.392997
5.8 -0.34072
5.81 -0.283651
5.82 -0.222968
5.83 -0.161017
5.84 -0.100005
5.85 -0.0423955
5.86 0.00946537
5.87 0.0527088
5.88 0.086416
5.89 0.107169
5.9 0.115664
5.91 0.110378
5.92 0.0916525
5.93 0.0608387
5.94 0.0179042
5.95 -0.0338852
5.96 -0.0935129
5.97 -0.157969
5.98 -0.2251
5.99 -0.292484
6 -0.358216
6.01 -0.420033
6.02 -0.477147
6.03 -0.528329
6.04 -0.573273
6.05 -0.6124
6.06 -0.645596
6.07 -0.674478
6.08 -0.699631
6.09 -0.722618
6.1 -0.744548
6.11 -0.76659
6.12 -0.789522
6.13 -0.814146
6.14 -0.84045
6.15 -0.868435
6.16 -0.897547
6.17 -0.927019
6.18 -0.955753
6.19 -0.982789
6.2 -1.00673
6.21 -1.02677
6.22 -1.0421
6.23 -1.05194
6.24 -1.05675
6.25 -1.05602
6.26 -1.05116
6.27 -1.04282
6.28 -1.03239
6.29 -1.02126
6.3 -1.01088
6.31 -1.00228
6.32 -0.996525
6.33 -0.993709
6.34 -0.99353
6.35 -0.994873
6.36 -0.995829
6.37 -0.993202
6.38 -0.98393
6.39 -0.963353
6.4 -0.926552
6.41 -0.869903
6.42 -0.785278
6.43 -0.672012
6.44 -0.522141
6.45 -0.335209
6.46 -0.108925
6.47 0.159383
6.48 0.464297
6.49 0.808772
6.5 1.18293
6.51 1.58319
6.52 2.00081
6.53 2.42668
6.54 2.85034
6.55 3.26195
6.56 3.64858
6.57 4.00098
6.58 4.30934
6.59 4.56129
6.6 4.75603
6.61 4.87754
6.62 4.932
6.63 4.91236
6.64 4.82038
6.65 4.66262
6.66 4.43652
6.67 4.15777
6.68 3.82826
6.69 3.46186
6.7 3.06789
6.71 2.65689
6.72 2.24036
6.73 1.82898
6.74 1.43145
6.75 1.05694
6.76 0.712588
6.77 0.401578
6.78 0.132289
6.79 -0.0989993
6.8 -0.286928
6.81 -0.435876
6.82 -0.547564
6.83 -0.623685
6.84 -0.671716
6.85 -0.692131
6.86 -0.693379
6.87 -0.678446
6.88 -0.652328
6.89 -0.619249
6.9 -0.582219
6.91 -0.544371
6.92 -0.507732
6.93 -0.473665
6.94 -0.442944
6.95 -0.416087
6.96 -0.39261
6.97 -0.372697
6.98 -0.355421
6.99 -0.340557
7 -0.327702
7.01 -0.31659
7.02 -0.307512
7.03 -0.300485
7.04 -0.296332
7.05 -0.295586
7.06 -0.299063
7.07 -0.307962
7.08 -0.32243
7.09 -0.344131
7.1 -0.372514
7.11 -0.408233
7.12 -0.450947
7.13 -0.499723
7.14 -0.554227
7.15 -0.612454
7.16 -0.673263
7.17 -0.73464
7.18 -0.794878
7.19 -0.851899
7.2 -0.90453
7.21 -0.950424
7.22 -0.989367
7.23 -1.0201
7.24 -1.0424
7.25 -1.05688
7.26 -1.06321
7.27 -1.06339
7.28 -1.05794
7.29 -1.04882
7.3 -1.03744
7.31 -1.0254
7.32 -1.014
7.33 -1.00462
7.34 -0.997741
7.35 -0.99385
7.36 -0.992725
7.37 -0.993599
7.38 -0.995398
7.39 -0.996471
7.4 -0.994686
7.41 -0.987947
7.42 -0.974024
7.43 -0.949923
7.44 -0.914779
7.45 -0.864665
7.46 -0.800129
7.47 -0.719137
7.48 -0.621543
7.49 -0.508617
7.5 -0.379592
7.51 -0.238284
7.52 -0.0855432
7.53 0.0747782
7.54 0.239646
7.55 0.405262
7.56 0.568103
7.57 0.723402
7.58 0.86845
7.59 0.999087
7.6 1.11214
7.61 1.20626
7.62 1.27672
7.63 1.32542
7.64 1.34878
7.65 1.3486
7.66 1.32522
7.67 1.27863
7.68 1.21288
7.69 1.12728
7.7 1.027
7.71 0.913643
7.72 0.790634
7.73 0.661368
7.74 0.528648
7.75 0.395878
7.76 0.266106
7.77 0.141979
7.78 0.0258624
7.79 -0.0793446
7.8 -0.173151
7.81 -0.252025
7.82 -0.316859
7.83 -0.365899
7.84 -0.39902
7.85 -0.417288
7.86 -0.419434
7.87 -0.408571
7.88 -0.384426
7.89 -0.349726
7.9 -0.306246
7.91 -0.255977
7.92 -0.201846
7.93 -0.146065
7.94 -0.0914153
7.95 -0.0404165
7.96 0.00439978
7.97 0.0414593
7.98 0.0676661
7.99 0.0831281
8 0.0854416
8.01 0.0750311
8.02 0.0518062
8.03 0.015597
8.04 -0.0312886
8.05 -0.0889914
8.06 -0.15429
8.07 -0.225762
8.08 -0.300918
8.09 -0.377461
8.1 -0.453008
8.11 -0.525736
8.12 -0.593445
8.13 -0.655033
8.14 -0.709553
8.15 -0.756046
8.16 -0.795375
8.17 -0.826878
8.18 -0.852449
8.19 -0.872782
8.2 -0.889442
8.21 -0.903995
8.22 -0.91781
8.23 -0.932173
8.24 -0.948099
8.25 -0.965958
8.26 -0.98569
8.27 -1.00663
8.28 -1.02746
8.29 -1.04594
8.3 -1.05985
8.31 -1.06589
8.32 -1.06048
8.33 -1.0411
8.34 -1.00183
8.35 -0.942221
8.36 -0.856638
8.37 -0.744519
8.38 -0.604284
8.39 -0.433637
8.4 -0.236335
8.41 -0.00985727
8.42 0.239195
8.43 0.508759
8.44 0.793316
8.45 1.08672
8.46 1.38268
8.47 1.67417
8.48 1.95318
8.49 2.2131
8.5 2.44744
8.51 2.64767
8.52 2.81257
8.53 2.93146
8.54 3.00713
8.55 3.03451
8.56 3.01345
8.57 2.94769
8.58 2.83397
8.59 2.6822
8.6 2.49234
8.61 2.27286
8.62 2.0294
8.63 1.76795
8.64 1.49668
8.65 1.22157
8.66 0.94957
8.67 0.686652
8.68 0.438408
8.69 0.207894
8.7 0.00134661
8.71 -0.182257
8.72 -0.33863
8.73 -0.469342
8.74 -0.574823
8.75 -0.655152
8.76 -0.715008
8.77 -0.754052
8.78 -0.778033
8.79 -0.788973
8.8 -0.790555
8.81 -0.786248
8.82 -0.778672
8.83 -0.770774
8.84 -0.764766
8.85 -0.762293
8.86 -0.764475
8.87 -0.77235
8.88 -0.78547
8.89 -0.804417
8.9 -0.827825
8.91 -0.85516
8.92 -0.885218
8.93 -0.916753
8.94 -0.948583
8.95 -0.979578
8.96 -1.0086
8.97 -1.03493
8.98 -1.058
8.99 -1.07724
9 -1.09297
9.01 -1.10477
9.02 -1.11347
9.03 -1.11928
9.04 -1.12285
9.05 -1.12486
9.06 -1.12574
9.07 -1.12612
9.08 -1.12629
9.09 -1.12642
9.1 -1.12647
9.11 -1.12613
9.12 -1.12499
9.13 -1.12215
9.14 -1.11696
9.15 -1.10829
9.16 -1.09506
9.17 -1.07661
9.18 -1.05119
9.19 -1.01903
9.2 -0.978734
9.21 -0.930596
9.22 -0.874676
9.23 -0.811
9.24 -0.741168
9.25 -0.665514
9.26 -0.586309
9.27 -0.505032
9.28 -0.423873
9.29 -0.344745
9.3 -0.270389
9.31 -0.202136
9.32 -0.142719
9.33 -0.0932439
9.34 -0.0549391
9.35 -0.0294638
9.36 -0.0157641
9.37 -0.0156317
9.38 -0.0267362
9.39 -0.0488755
9.4 -0.0803975
9.41 -0.119087
9.42 -0.16356
9.43 -0.210928
9.44 -0.259275
9.45 -0.306309
9.46 -0.350228
9.47 -0.389004
9.48 -0.42205
9.49 -0.447502
9.5 -0.465946
9.51 -0.47695
9.52 -0.481108
9.53 -0.479658
9.54 -0.473231
9.55 -0.463889
9.56 -0.452876
9.57 -0.441962
9.58 -0.432542
9.59 -0.42619
9.6 -0.423537
9.61 -0.426016
9.62 -0.433374
9.63 -0.445998
9.64 -0.46354
9.65 -0.485152
9.66 -0.510434
9.67 -0.537935
9.68 -0.566849
9.69 -0.596006
9.7 -0.624553
9.71 -0.651633
9.72 -0.676963
9.73 -0.700014
9.74 -0.721133
9.75 -0.740477
9.76 -0.758591
9.77 -0.776098
9.78 -0.793617
9.79 -0.811625
9.8 -0.830457
9.81 -0.849966
9.82 -0.869647
9.83 -0.888295
9.84 -0.904499
9.85 -0.915306
9.86 -0.918502
9.87 -0.910257
9.88 -0.886494
9.89 -0.844579
9.9 -0.777374
9.91 -0.684655
9.92 -0.559646
9.93 -0.401522
9.94 -0.208395
9.95 0.0230123
9.96 0.288176
9.97 0.590684
9.98 0.922755
9.99 1.2822
10 1.66268
10.01 2.0566
10.02 2.45677
10.03 2.85409
10.04 3.23892
10.05 3.60255
10.06 3.93675
10.07 4.23037
10.08 4.48126
10.09 4.67576
10.1 4.81629
10.11 4.89614
10.12 4.91409
10.13 4.87462
10.14 4.7724
10.15 4.61989
10.16 4.4163
10.17 4.17189
10.18 3.89363
10.19 3.58841
10.2 3.26689
10.21 2.9358
10.22 2.60441
10.23 2.27981
10.24 1.9691
10.25 1.67628
10.26 1.4087
10.27 1.1657
10.28 0.952068
10.29 0.766339
10.3 0.607886
10.31 0.476623
10.32 0.36726
10.33 0.279858
10.34 0.208157
10.35 0.149706
10.36 0.100488
10.37 0.0567621
10.38 0.015692
10.39 -0.0256437
10.4 -0.0694545
10.41 -0.117192
10.42 -0.169735
10.43 -0.227826
10.44 -0.290724
10.45 -0.358553
10.46 -0.42976
10.47 -0.503431
10.48 -0.578099
10.49 -0.652429
10.5 -0.72478
10.51 -0.794183
10.52 -0.859087
10.53 -0.918762
10.54 -0.972489
10.55 -1.01923
10.56 -1.05943
10.57 -1.09181
10.58 -1.11731
10.59 -1.13551
10.6 -1.14662
10.61 -1.15131
10.62 -1.14903
10.63 -1.14104
10.64 -1.127
10.65 -1.10766
10.66 -1.08341
10.67 -1.05438
10.68 -1.02153
10.69 -0.984857
10.7 -0.945427
10.71 -0.903702
10.72 -0.860502
10.73 -0.816668
10.74 -0.77313
10.75 -0.730742
10.76 -0.690626
10.77 -0.653639
10.78 -0.620628
10.79 -0.592814
10.8 -0.570299
10.81 -0.554618
10.82 -0.545394
10.83 -0.543345
10.84 -0.548577
10.85 -0.560519
10.86 -0.579775
10.87 -0.604868
10.88 -0.635851
10.89 -0.671512
10.9 -0.710989
10.91 -0.753405
10.92 -0.797458
10.93 -0.842193
10.94 -0.88644
10.95 -0.929169
10.96 -0.969339
10.97 -1.00635
10.98 -1.03895
10.99 -1.06721
11 -1.09019
11.01 -1.10803
11.02 -1.12073
11.03 -1.12815
11.04 -1.13122
11.05 -1.12986
11.06 -1.12534
11.07 -1.11826
11.08 -1.10963
11.09 -1.10045
11.1 -1.09179
11.11 -1.08448
11.12 -1.07956
11.13 -1.07757
11.14 -1.07893
11.15 -1.08406
11.16 -1.09239
11.17 -1.10385
11.18 -1.11713
11.19 -1.1311
11.2 -1.1439
11.21 -1.15378
11.22 -1.15763
11.23 -1.15385
11.24 -1.13874
11.25 -1.11016
11.26 -1.06573
11.27 -1.00173
11.28 -0.918525
11.29 -0.811435
11.3 -0.682505
11.31 -0.53013
11.32 -0.354979
11.33 -0.159916
11.34 0.0552319
11.35 0.28465
11.36 0.526121
11.37 0.77413
11.38 1.02398
11.39 1.26973
11.4 1.50679
11.41 1.72761
11.42 1.92885
11.43 2.10453
11.44 2.24997
11.45 2.36413
11.46 2.43965
11.47 2.48048
11.48 2.48194
11.49 2.44712
11.5 2.37771
11.51 2.27428
11.52 2.14387
11.53 1.98686
11.54 1.81126
11.55 1.62069
11.56 1.42077
11.57 1.21673
11.58 1.01354
11.59 0.815291
11.6 0.626453
11.61 0.449711
11.62 0.287187
11.63 0.141598
11.64 0.0117035
11.65 -0.10004
11.66 -0.19655
11.67 -0.278068
11.68 -0.346457
11.69 -0.404477
11.7 -0.453207
11.71 -0.496122
11.72 -0.534714
11.73 -0.571282
11.74 -0.60733
11.75 -0.644189
11.76 -0.682471
11.77 -0.722731
11.78 -0.764554
11.79 -0.807448
11.8 -0.850318
11.81 -0.89197
11.82 -0.930411
11.83 -0.964414
11.84 -0.991579
11.85 -1.01042
11.86 -1.01941
11.87 -1.01613
11.88 -1.00081
11.89 -0.970483
11.9 -0.926335
11.91 -0.86724
11.92 -0.793324
11.93 -0.706118
11.94 -0.604794
11.95 -0.492604
11.96 -0.369922
11.97 -0.23945
11.98 -0.103289
11.99 0.0362417
12 0.176405
12.01 0.314359
12.02 0.447667
12.03 0.573508
12.04 0.689129
12.05 0.793169
12.06 0.881608
12.07 0.954989
12.08 1.01012
12.09 1.04713
12.1 1.0657
12.11 1.06454
12.12 1.04637
12.13 1.0096
12.14 0.957924
12.15 0.892146
12.16 0.814584
12.17 0.728247
12.18 0.634834
12.19 0.537886
12.2 0.439624
12.21 0.342712
12.22 0.249192
12.23 0.161421
12.24 0.0801004
12.25 0.00737614
12.26 -0.0572372
12.27 -0.113174
12.28 -0.160846
12.29 -0.20158
12.3 -0.235718
12.31 -0.265574
12.32 -0.292252
12.33 -0.317664
12.34 -0.343272
12.35 -0.370646
12.36 -0.400594
12.37 -0.434334
12.38 -0.471716
12.39 -0.512808
12.4 -0.556923
12.41 -0.60286
