# xPDFsuite Configuration #
[PDF]
wavelength = 0.1432
dataformat = twotheta
inputfile = 1_1Pd_CeO2_cycle-00375.chi
backgroundfile = background-00000.chi
mode = xray
bgscale = 1.007
composition = CeO2
outputtype = gr
qmaxinst = 28.8974762299
qmin = 0.5
qmax = 27.9
rmax = 50.0
rmin = 0.0
rstep = 0.01
rpoly = 1.8657

[Misc]
inputdir = G:/SankarDec16/1Pd/Chi
savedir = D:/DATA/APS_CeO2/1Pd
backgroundfilefull = G:/SankarDec16/Background/background-00000.chi

#### start data
#S 1
#L r($\AA$)  G($\AA^{-2}$)
0 0
0.01 -0.00448628
0.02 -0.0086339
0.03 -0.0120942
0.04 -0.0146047
0.05 -0.0160194
0.06 -0.016104
0.07 -0.0150153
0.08 -0.0126785
0.09 -0.00939286
0.1 -0.00536553
0.11 -0.000913416
0.12 0.00361868
0.13 0.00784322
0.14 0.011487
0.15 0.0142148
0.16 0.0158313
0.17 0.0162593
0.18 0.0153403
0.19 0.0133059
0.2 0.0101673
0.21 0.00627336
0.22 0.00188265
0.23 -0.00264895
0.24 -0.00699755
0.25 -0.0107458
0.26 -0.0136994
0.27 -0.0155531
0.28 -0.0161884
0.29 -0.0156006
0.3 -0.0137155
0.31 -0.0108277
0.32 -0.0070338
0.33 -0.00271599
0.34 0.00182902
0.35 0.0062235
0.36 0.0101806
0.37 0.0132736
0.38 0.0153968
0.39 0.01629
0.4 0.0159175
0.41 0.0143477
0.42 0.0115941
0.43 0.00800053
0.44 0.00374406
0.45 -0.000778484
0.46 -0.00524684
0.47 -0.00927982
0.48 -0.0126419
0.49 -0.0149184
0.5 -0.0160971
0.51 -0.0159764
0.52 -0.014605
0.53 -0.0121214
0.54 -0.00862672
0.55 -0.00449677
0.56 1.91433e-05
0.57 0.00452905
0.58 0.00870503
0.59 0.012181
0.6 0.0147849
0.61 0.0161343
0.62 0.0163116
0.63 0.0151837
0.64 0.0128821
0.65 0.00960836
0.66 0.00554666
0.67 0.00108642
0.68 -0.00346309
0.69 -0.00773384
0.7 -0.0114066
0.71 -0.0141482
0.72 -0.0158585
0.73 -0.0162062
0.74 -0.015364
0.75 -0.0132737
0.76 -0.0101422
0.77 -0.00622382
0.78 -0.00177539
0.79 0.00281984
0.8 0.00721015
0.81 0.0110702
0.82 0.0141071
0.83 0.0160387
0.84 0.0168419
0.85 0.0162554
0.86 0.014532
0.87 0.0116914
0.88 0.00800385
0.89 0.00376056
0.9 -0.000725656
0.91 -0.0051026
0.92 -0.00900194
0.93 -0.0121654
0.94 -0.0143514
0.95 -0.0153574
0.96 -0.0152455
0.97 -0.0138627
0.98 -0.0115317
0.99 -0.00837054
1 -0.00470992
1.01 -0.000868981
1.02 0.00277757
1.03 0.00593997
1.04 0.00823497
1.05 0.00950337
1.06 0.00957575
1.07 0.00835658
1.08 0.00602432
1.09 0.00257147
1.1 -0.00157818
1.11 -0.00616245
1.12 -0.0107469
1.13 -0.0149479
1.14 -0.0182517
1.15 -0.0204155
1.16 -0.020944
1.17 -0.0197546
1.18 -0.0166875
1.19 -0.0116821
1.2 -0.00504717
1.21 0.00321025
1.22 0.0124885
1.23 0.0224448
1.24 0.0325062
1.25 0.0421683
1.26 0.0507667
1.27 0.0579553
1.28 0.0630594
1.29 0.065899
1.3 0.066174
1.31 0.0636539
1.32 0.0586205
1.33 0.0507892
1.34 0.0408292
1.35 0.0288794
1.36 0.0154723
1.37 0.00112013
1.38 -0.0136736
1.39 -0.028349
1.4 -0.0423405
1.41 -0.0552203
1.42 -0.0665647
1.43 -0.0759376
1.44 -0.0833002
1.45 -0.0880949
1.46 -0.0906091
1.47 -0.0905946
1.48 -0.0881773
1.49 -0.0835488
1.5 -0.0766506
1.51 -0.0679577
1.52 -0.0574641
1.53 -0.0455958
1.54 -0.0325745
1.55 -0.0186845
1.56 -0.00429131
1.57 0.0103127
1.58 0.0247536
1.59 0.038659
1.6 0.0516425
1.61 0.0633932
1.62 0.0733495
1.63 0.0814013
1.64 0.0869311
1.65 0.0898715
1.66 0.0899403
1.67 0.0868733
1.68 0.0809425
1.69 0.0717216
1.7 0.0598773
1.71 0.0454429
1.72 0.0289345
1.73 0.0109014
1.74 -0.00814621
1.75 -0.0274692
1.76 -0.0463919
1.77 -0.064267
1.78 -0.0804853
1.79 -0.0943934
1.8 -0.105846
1.81 -0.114093
1.82 -0.119491
1.83 -0.121805
1.84 -0.12135
1.85 -0.118569
1.86 -0.113777
1.87 -0.107792
1.88 -0.101149
1.89 -0.094604
1.9 -0.0887709
1.91 -0.0843141
1.92 -0.08151
1.93 -0.0810091
1.94 -0.0826118
1.95 -0.0864837
1.96 -0.09232
1.97 -0.099679
1.98 -0.108103
1.99 -0.11683
2 -0.125114
2.01 -0.132196
2.02 -0.137327
2.03 -0.13966
2.04 -0.138941
2.05 -0.134107
2.06 -0.125462
2.07 -0.112494
2.08 -0.0953491
2.09 -0.0743578
2.1 -0.0494485
2.11 -0.0215062
2.12 0.00939205
2.13 0.042476
2.14 0.0773528
2.15 0.113612
2.16 0.150791
2.17 0.188728
2.18 0.227126
2.19 0.265926
2.2 0.305063
2.21 0.344507
2.22 0.384265
2.23 0.424233
2.24 0.464276
2.25 0.504102
2.26 0.543307
2.27 0.581215
2.28 0.617283
2.29 0.650149
2.3 0.679259
2.31 0.70315
2.32 0.720736
2.33 0.731277
2.34 0.732879
2.35 0.72595
2.36 0.708745
2.37 0.681941
2.38 0.645414
2.39 0.599343
2.4 0.545477
2.41 0.483893
2.42 0.417257
2.43 0.346848
2.44 0.274873
2.45 0.203246
2.46 0.134268
2.47 0.0693273
2.48 0.0106706
2.49 -0.0409442
2.5 -0.084517
2.51 -0.11924
2.52 -0.146018
2.53 -0.164
2.54 -0.175324
2.55 -0.180524
2.56 -0.181315
2.57 -0.17934
2.58 -0.176155
2.59 -0.173385
2.6 -0.172554
2.61 -0.174648
2.62 -0.180475
2.63 -0.190632
2.64 -0.204692
2.65 -0.222899
2.66 -0.243936
2.67 -0.267101
2.68 -0.291076
2.69 -0.314676
2.7 -0.336453
2.71 -0.3556
2.72 -0.370825
2.73 -0.381867
2.74 -0.388411
2.75 -0.390438
2.76 -0.388869
2.77 -0.384067
2.78 -0.377622
2.79 -0.370673
2.8 -0.364735
2.81 -0.361011
2.82 -0.361137
2.83 -0.365522
2.84 -0.375404
2.85 -0.390526
2.86 -0.4108
2.87 -0.435698
2.88 -0.463794
2.89 -0.494017
2.9 -0.524415
2.91 -0.553249
2.92 -0.57864
2.93 -0.599234
2.94 -0.612929
2.95 -0.619689
2.96 -0.618025
2.97 -0.608691
2.98 -0.592042
2.99 -0.568996
3 -0.5416
3.01 -0.511325
3.02 -0.480748
3.03 -0.452067
3.04 -0.427609
3.05 -0.408997
3.06 -0.398714
3.07 -0.396715
3.08 -0.404663
3.09 -0.421554
3.1 -0.446858
3.11 -0.47939
3.12 -0.516714
3.13 -0.557042
3.14 -0.597455
3.15 -0.635461
3.16 -0.668533
3.17 -0.694994
3.18 -0.712297
3.19 -0.720737
3.2 -0.718866
3.21 -0.70811
3.22 -0.689456
3.23 -0.6647
3.24 -0.636665
3.25 -0.608028
3.26 -0.581846
3.27 -0.561236
3.28 -0.54894
3.29 -0.546585
3.3 -0.557026
3.31 -0.57926
3.32 -0.614682
3.33 -0.661011
3.34 -0.716627
3.35 -0.778888
3.36 -0.844139
3.37 -0.908677
3.38 -0.968842
3.39 -1.02067
3.4 -1.06091
3.41 -1.0878
3.42 -1.09797
3.43 -1.09306
3.44 -1.07163
3.45 -1.03684
3.46 -0.990958
3.47 -0.9375
3.48 -0.881015
3.49 -0.826161
3.5 -0.777155
3.51 -0.738537
3.52 -0.713636
3.53 -0.703854
3.54 -0.711852
3.55 -0.734562
3.56 -0.771325
3.57 -0.816553
3.58 -0.864921
3.59 -0.908524
3.6 -0.940409
3.61 -0.948345
3.62 -0.926728
3.63 -0.864263
3.64 -0.753454
3.65 -0.590682
3.66 -0.364909
3.67 -0.0823669
3.68 0.264097
3.69 0.665656
3.7 1.11774
3.71 1.61281
3.72 2.13641
3.73 2.67832
3.74 3.22128
3.75 3.75007
3.76 4.24787
3.77 4.70202
3.78 5.09118
3.79 5.41201
3.8 5.64452
3.81 5.78846
3.82 5.83793
3.83 5.78756
3.84 5.64962
3.85 5.4153
3.86 5.10659
3.87 4.72718
3.88 4.29235
3.89 3.81749
3.9 3.31489
3.91 2.80225
3.92 2.29333
3.93 1.80154
3.94 1.33815
3.95 0.915115
3.96 0.534862
3.97 0.210273
3.98 -0.064187
3.99 -0.283893
4 -0.452275
4.01 -0.575287
4.02 -0.653823
4.03 -0.699796
4.04 -0.716244
4.05 -0.713135
4.06 -0.696661
4.07 -0.673369
4.08 -0.648971
4.09 -0.628404
4.1 -0.614371
4.11 -0.609439
4.12 -0.614309
4.13 -0.628275
4.14 -0.651014
4.15 -0.679524
4.16 -0.711979
4.17 -0.745199
4.18 -0.776566
4.19 -0.803052
4.2 -0.823067
4.21 -0.833374
4.22 -0.834026
4.23 -0.823406
4.24 -0.801531
4.25 -0.769215
4.26 -0.726092
4.27 -0.674608
4.28 -0.615018
4.29 -0.549472
4.3 -0.479201
4.31 -0.405495
4.32 -0.329797
4.33 -0.252933
4.34 -0.175877
4.35 -0.0992197
4.36 -0.0234574
4.37 0.0511306
4.38 0.124063
4.39 0.195267
4.4 0.264117
4.41 0.330302
4.42 0.393179
4.43 0.451716
4.44 0.505522
4.45 0.552583
4.46 0.592719
4.47 0.624177
4.48 0.645952
4.49 0.657633
4.5 0.657176
4.51 0.645731
4.52 0.621671
4.53 0.586263
4.54 0.539855
4.55 0.483006
4.56 0.417964
4.57 0.345141
4.58 0.267416
4.59 0.186228
4.6 0.103764
4.61 0.0218252
4.62 -0.0575062
4.63 -0.133108
4.64 -0.203147
4.65 -0.267099
4.66 -0.324291
4.67 -0.374126
4.68 -0.417439
4.69 -0.453548
4.7 -0.484072
4.71 -0.509286
4.72 -0.530261
4.73 -0.548057
4.74 -0.563336
4.75 -0.577213
4.76 -0.590232
4.77 -0.603023
4.78 -0.615923
4.79 -0.629151
4.8 -0.6427
4.81 -0.656504
4.82 -0.670318
4.83 -0.683877
4.84 -0.696863
4.85 -0.709048
4.86 -0.720065
4.87 -0.729911
4.88 -0.738343
4.89 -0.745486
4.9 -0.751405
4.91 -0.756229
4.92 -0.760268
4.93 -0.763675
4.94 -0.766792
4.95 -0.769826
4.96 -0.772996
4.97 -0.776433
4.98 -0.780279
4.99 -0.784518
5 -0.789194
5.01 -0.79423
5.02 -0.799576
5.03 -0.805185
5.04 -0.810992
5.05 -0.81702
5.06 -0.823264
5.07 -0.829798
5.08 -0.836701
5.09 -0.844024
5.1 -0.851864
5.11 -0.860129
5.12 -0.868732
5.13 -0.877349
5.14 -0.885541
5.15 -0.892529
5.16 -0.897627
5.17 -0.899234
5.18 -0.896506
5.19 -0.887598
5.2 -0.87089
5.21 -0.845289
5.22 -0.807937
5.23 -0.759063
5.24 -0.695952
5.25 -0.618959
5.26 -0.527586
5.27 -0.421416
5.28 -0.302766
5.29 -0.171222
5.3 -0.030681
5.31 0.116997
5.32 0.268205
5.33 0.419468
5.34 0.56632
5.35 0.705517
5.36 0.831852
5.37 0.942412
5.38 1.03375
5.39 1.10173
5.4 1.14681
5.41 1.16356
5.42 1.15534
5.43 1.12032
5.44 1.06024
5.45 0.978193
5.46 0.874636
5.47 0.755568
5.48 0.622868
5.49 0.481802
5.5 0.336095
5.51 0.189993
5.52 0.0469298
5.53 -0.0887713
5.54 -0.215308
5.55 -0.329724
5.56 -0.430518
5.57 -0.51755
5.58 -0.588824
5.59 -0.646713
5.6 -0.690259
5.61 -0.721795
5.62 -0.742457
5.63 -0.753407
5.64 -0.757058
5.65 -0.753821
5.66 -0.74589
5.67 -0.733833
5.68 -0.718489
5.69 -0.700412
5.7 -0.67944
5.71 -0.655877
5.72 -0.629121
5.73 -0.599074
5.74 -0.565368
5.75 -0.527534
5.76 -0.485915
5.77 -0.440015
5.78 -0.390811
5.79 -0.338676
5.8 -0.28469
5.81 -0.230041
5.82 -0.176257
5.83 -0.124682
5.84 -0.077271
5.85 -0.0353097
5.86 -0.000205681
5.87 0.0263522
5.88 0.0444398
5.89 0.0519931
5.9 0.0502673
5.91 0.0386644
5.92 0.0179476
5.93 -0.0106009
5.94 -0.0466191
5.95 -0.0878323
5.96 -0.13341
5.97 -0.181493
5.98 -0.230825
5.99 -0.28011
6 -0.328455
6.01 -0.374886
6.02 -0.419244
6.03 -0.46123
6.04 -0.501031
6.05 -0.539091
6.06 -0.575792
6.07 -0.61189
6.08 -0.647944
6.09 -0.684509
6.1 -0.721948
6.11 -0.760495
6.12 -0.799966
6.13 -0.840123
6.14 -0.880269
6.15 -0.919591
6.16 -0.957022
6.17 -0.991672
6.18 -1.02194
6.19 -1.04747
6.2 -1.06676
6.21 -1.07974
6.22 -1.08609
6.23 -1.08566
6.24 -1.07965
6.25 -1.06816
6.26 -1.05316
6.27 -1.0358
6.28 -1.01781
6.29 -1.00065
6.3 -0.98602
6.31 -0.974586
6.32 -0.967387
6.33 -0.964081
6.34 -0.964043
6.35 -0.965783
6.36 -0.967059
6.37 -0.964356
6.38 -0.954492
6.39 -0.932708
6.4 -0.894168
6.41 -0.83545
6.42 -0.748732
6.43 -0.633726
6.44 -0.482984
6.45 -0.296466
6.46 -0.0723137
6.47 0.191639
6.48 0.489965
6.49 0.825105
6.5 1.18759
6.51 1.57385
6.52 1.9756
6.53 2.38432
6.54 2.79019
6.55 3.18422
6.56 3.55437
6.57 3.89224
6.58 4.18879
6.59 4.43261
6.6 4.62303
6.61 4.74513
6.62 4.8046
6.63 4.79475
6.64 4.71695
6.65 4.5771
6.66 4.37234
6.67 4.11708
6.68 3.81252
6.69 3.47138
6.7 3.10201
6.71 2.71385
6.72 2.31782
6.73 1.9234
6.74 1.53926
6.75 1.17394
6.76 0.834528
6.77 0.524533
6.78 0.252179
6.79 0.0147383
6.8 -0.182211
6.81 -0.342121
6.82 -0.466056
6.83 -0.554981
6.84 -0.615713
6.85 -0.648059
6.86 -0.660119
6.87 -0.654484
6.88 -0.635988
6.89 -0.608927
6.9 -0.57624
6.91 -0.541499
6.92 -0.506892
6.93 -0.474234
6.94 -0.444637
6.95 -0.41899
6.96 -0.397064
6.97 -0.379339
6.98 -0.364912
6.99 -0.353613
7 -0.344917
7.01 -0.338341
7.02 -0.333898
7.03 -0.331267
7.04 -0.330859
7.05 -0.332879
7.06 -0.337832
7.07 -0.346559
7.08 -0.359241
7.09 -0.377214
7.1 -0.40026
7.11 -0.429089
7.12 -0.463709
7.13 -0.503615
7.14 -0.54891
7.15 -0.598118
7.16 -0.650657
7.17 -0.704959
7.18 -0.759721
7.19 -0.813315
7.2 -0.864536
7.21 -0.911451
7.22 -0.953453
7.23 -0.989242
7.24 -1.01821
7.25 -1.04049
7.26 -1.0553
7.27 -1.06403
7.28 -1.06662
7.29 -1.0645
7.3 -1.05867
7.31 -1.05023
7.32 -1.04048
7.33 -1.03037
7.34 -1.02074
7.35 -1.01212
7.36 -1.00468
7.37 -0.998123
7.38 -0.991848
7.39 -0.984834
7.4 -0.975555
7.41 -0.962453
7.42 -0.943773
7.43 -0.917056
7.44 -0.881458
7.45 -0.833564
7.46 -0.773554
7.47 -0.699419
7.48 -0.610662
7.49 -0.508059
7.5 -0.390444
7.51 -0.260934
7.52 -0.119797
7.53 0.0297271
7.54 0.185131
7.55 0.343227
7.56 0.500627
7.57 0.653194
7.58 0.797978
7.59 0.930993
7.6 1.04887
7.61 1.14987
7.62 1.22911
7.63 1.28777
7.64 1.32193
7.65 1.33277
7.66 1.32016
7.67 1.28356
7.68 1.22674
7.69 1.14848
7.7 1.05395
7.71 0.944523
7.72 0.823652
7.73 0.694924
7.74 0.561147
7.75 0.426187
7.76 0.293263
7.77 0.165433
7.78 0.0453696
7.79 -0.0636965
7.8 -0.161038
7.81 -0.24283
7.82 -0.309897
7.83 -0.36036
7.84 -0.394098
7.85 -0.412283
7.86 -0.413697
7.87 -0.401704
7.88 -0.376187
7.89 -0.340117
7.9 -0.295464
7.91 -0.244446
7.92 -0.190084
7.93 -0.1348
7.94 -0.0813375
7.95 -0.0322683
7.96 0.00994474
7.97 0.0438654
7.98 0.0665044
7.99 0.0782067
8 0.0767599
8.01 0.062813
8.02 0.0364703
8.03 -0.0022069
8.04 -0.0508435
8.05 -0.109341
8.06 -0.174545
8.07 -0.24496
8.08 -0.318157
8.09 -0.391979
8.1 -0.464106
8.11 -0.532975
8.12 -0.596535
8.13 -0.653917
8.14 -0.704368
8.15 -0.747144
8.16 -0.783214
8.17 -0.812134
8.18 -0.835786
8.19 -0.854947
8.2 -0.871157
8.21 -0.88588
8.22 -0.900445
8.23 -0.915925
8.24 -0.933211
8.25 -0.952474
8.26 -0.973491
8.27 -0.995414
8.28 -1.01682
8.29 -1.03534
8.3 -1.04874
8.31 -1.05371
8.32 -1.04675
8.33 -1.02546
8.34 -0.984095
8.35 -0.922427
8.36 -0.835097
8.37 -0.721804
8.38 -0.581227
8.39 -0.411411
8.4 -0.216192
8.41 0.00655264
8.42 0.250328
8.43 0.512927
8.44 0.788914
8.45 1.07238
8.46 1.35715
8.47 1.6367
8.48 1.90336
8.49 2.15106
8.5 2.37381
8.51 2.56374
8.52 2.71998
8.53 2.83269
8.54 2.90479
8.55 2.93173
8.56 2.9136
8.57 2.85405
8.58 2.75018
8.59 2.61123
8.6 2.43717
8.61 2.23577
8.62 2.01209
8.63 1.77146
8.64 1.52123
8.65 1.26652
8.66 1.01357
8.67 0.767531
8.68 0.533285
8.69 0.313573
8.7 0.113761
8.71 -0.0668334
8.72 -0.224437
8.73 -0.360168
8.74 -0.474175
8.75 -0.566202
8.76 -0.640016
8.77 -0.694827
8.78 -0.735355
8.79 -0.76289
8.8 -0.780254
8.81 -0.790304
8.82 -0.794759
8.83 -0.796422
8.84 -0.796862
8.85 -0.797793
8.86 -0.800358
8.87 -0.805655
8.88 -0.813903
8.89 -0.825881
8.9 -0.841106
8.91 -0.859601
8.92 -0.880906
8.93 -0.904363
8.94 -0.929546
8.95 -0.955584
8.96 -0.981895
8.97 -1.0078
8.98 -1.03275
8.99 -1.05614
9 -1.07777
9.01 -1.09702
9.02 -1.11397
9.03 -1.12835
9.04 -1.14012
9.05 -1.14946
9.06 -1.1561
9.07 -1.16049
9.08 -1.16239
9.09 -1.16203
9.1 -1.15938
9.11 -1.15422
9.12 -1.14669
9.13 -1.13615
9.14 -1.1227
9.15 -1.10576
9.16 -1.08492
9.17 -1.06001
9.18 -1.03003
9.19 -0.995317
9.2 -0.95497
9.21 -0.909207
9.22 -0.858003
9.23 -0.801231
9.24 -0.739873
9.25 -0.673901
9.26 -0.604793
9.27 -0.533393
9.28 -0.461146
9.29 -0.389447
9.3 -0.320212
9.31 -0.254696
9.32 -0.195079
9.33 -0.142603
9.34 -0.0986094
9.35 -0.0649448
9.36 -0.0412718
9.37 -0.029792
9.38 -0.0290763
9.39 -0.039635
9.4 -0.0606514
9.41 -0.0904885
9.42 -0.128684
9.43 -0.172434
9.44 -0.220437
9.45 -0.270251
9.46 -0.319949
9.47 -0.367298
9.48 -0.410912
9.49 -0.448475
9.5 -0.479568
9.51 -0.502966
9.52 -0.518327
9.53 -0.526241
9.54 -0.526299
9.55 -0.520459
9.56 -0.509257
9.57 -0.494611
9.58 -0.478039
9.59 -0.46131
9.6 -0.445941
9.61 -0.433831
9.62 -0.425855
9.63 -0.423271
9.64 -0.42678
9.65 -0.43628
9.66 -0.452544
9.67 -0.474285
9.68 -0.501524
9.69 -0.53298
9.7 -0.567716
9.71 -0.60472
9.72 -0.642751
9.73 -0.680833
9.74 -0.718055
9.75 -0.753632
9.76 -0.78693
9.77 -0.8177
9.78 -0.845232
9.79 -0.869728
9.8 -0.890533
9.81 -0.907519
9.82 -0.920189
9.83 -0.927389
9.84 -0.928728
9.85 -0.921628
9.86 -0.905291
9.87 -0.876903
9.88 -0.833739
9.89 -0.774236
9.9 -0.692837
9.91 -0.589821
9.92 -0.459729
9.93 -0.301962
9.94 -0.114877
9.95 0.104498
9.96 0.352639
9.97 0.633065
9.98 0.939558
9.99 1.27077
10 1.62176
10.01 1.98623
10.02 2.35854
10.03 2.7306
10.04 3.0943
10.05 3.44164
10.06 3.76506
10.07 4.05425
10.08 4.30651
10.09 4.50894
10.1 4.66272
10.11 4.76086
10.12 4.80121
10.13 4.78703
10.14 4.71216
10.15 4.58765
10.16 4.41169
10.17 4.19348
10.18 3.93915
10.19 3.65464
10.2 3.35049
10.21 3.03253
10.22 2.71045
10.23 2.39116
10.24 2.08204
10.25 1.78771
10.26 1.51568
10.27 1.26624
10.28 1.04455
10.29 0.849887
10.3 0.682134
10.31 0.541712
10.32 0.423665
10.33 0.328442
10.34 0.249843
10.35 0.185545
10.36 0.131501
10.37 0.0838123
10.38 0.0395864
10.39 -0.00438685
10.4 -0.0504482
10.41 -0.10026
10.42 -0.154835
10.43 -0.215025
10.44 -0.280121
10.45 -0.350255
10.46 -0.423795
10.47 -0.499727
10.48 -0.576435
10.49 -0.65246
10.5 -0.725939
10.51 -0.795856
10.52 -0.860482
10.53 -0.919083
10.54 -0.970944
10.55 -1.01505
10.56 -1.05204
10.57 -1.08075
10.58 -1.10239
10.59 -1.11679
10.6 -1.12445
10.61 -1.12627
10.62 -1.12206
10.63 -1.11316
10.64 -1.0995
10.65 -1.08188
10.66 -1.06069
10.67 -1.03611
10.68 -1.00884
10.69 -0.978817
10.7 -0.946748
10.71 -0.912853
10.72 -0.877604
10.73 -0.841532
10.74 -0.805165
10.75 -0.769148
10.76 -0.734231
10.77 -0.701117
10.78 -0.67051
10.79 -0.643427
10.8 -0.620135
10.81 -0.601976
10.82 -0.588886
10.83 -0.581642
10.84 -0.580571
10.85 -0.585388
10.86 -0.59688
10.87 -0.613915
10.88 -0.636788
10.89 -0.664557
10.9 -0.696584
10.91 -0.732263
10.92 -0.770377
10.93 -0.810267
10.94 -0.850744
10.95 -0.890927
10.96 -0.929822
10.97 -0.966761
10.98 -1.00062
10.99 -1.03125
11 -1.05776
11.01 -1.0801
11.02 -1.09813
11.03 -1.1116
11.04 -1.1212
11.05 -1.1267
11.06 -1.1291
11.07 -1.12877
11.08 -1.12649
11.09 -1.12307
11.1 -1.11923
11.11 -1.11574
11.12 -1.11333
11.13 -1.11247
11.14 -1.11352
11.15 -1.11674
11.16 -1.12177
11.17 -1.12842
11.18 -1.13575
11.19 -1.14274
11.2 -1.14788
11.21 -1.14976
11.22 -1.14566
11.23 -1.13436
11.24 -1.11263
11.25 -1.0787
11.26 -1.03053
11.27 -0.964824
11.28 -0.881961
11.29 -0.777732
11.3 -0.653924
11.31 -0.509022
11.32 -0.343513
11.33 -0.159865
11.34 0.042277
11.35 0.257765
11.36 0.484808
11.37 0.718527
11.38 0.954772
11.39 1.18832
11.4 1.41491
11.41 1.62783
11.42 1.82384
11.43 1.99741
11.44 2.14409
11.45 2.26265
11.46 2.3461
11.47 2.3977
11.48 2.41274
11.49 2.39372
11.5 2.34179
11.51 2.25697
11.52 2.14558
11.53 2.00733
11.54 1.84961
11.55 1.67539
11.56 1.4897
11.57 1.29751
11.58 1.10303
11.59 0.910581
11.6 0.724167
11.61 0.546707
11.62 0.380473
11.63 0.228271
11.64 0.0895235
11.65 -0.0331637
11.66 -0.141932
11.67 -0.23657
11.68 -0.318315
11.69 -0.389398
11.7 -0.450238
11.71 -0.503978
11.72 -0.551533
11.73 -0.594974
11.74 -0.635606
11.75 -0.674463
11.76 -0.712444
11.77 -0.74985
11.78 -0.786779
11.79 -0.82289
11.8 -0.857489
11.81 -0.889876
11.82 -0.918463
11.83 -0.942586
11.84 -0.960351
11.85 -0.970752
11.86 -0.972651
11.87 -0.964167
11.88 -0.945592
11.89 -0.914505
11.9 -0.871914
11.91 -0.81686
11.92 -0.749383
11.93 -0.670681
11.94 -0.579903
11.95 -0.479667
11.96 -0.370081
11.97 -0.253275
11.98 -0.130874
11.99 -0.00462209
12 0.123153
12.01 0.250275
12.02 0.374547
12.03 0.493601
12.04 0.604983
12.05 0.707311
12.06 0.797007
12.07 0.874161
12.08 0.935738
12.09 0.981463
12.1 1.01069
12.11 1.02183
12.12 1.01698
12.13 0.994171
12.14 0.956496
12.15 0.904276
12.16 0.839295
12.17 0.764236
12.18 0.680174
12.19 0.590636
12.2 0.497397
12.21 0.403145
12.22 0.309925
12.23 0.220022
12.24 0.134578
12.25 0.0557197
12.26 -0.0164581
12.27 -0.0811044
12.28 -0.138167
12.29 -0.188523
12.3 -0.232036
12.31 -0.270646
12.32 -0.304992
12.33 -0.336705
12.34 -0.367013
12.35 -0.397169
12.36 -0.428118
12.37 -0.460794
12.38 -0.495383
