# xPDFsuite Configuration #
[PDF]
wavelength = 0.1432
dataformat = twotheta
inputfile = 1_1Pd_CeO2_cycle-00345.chi
backgroundfile = background-00000.chi
mode = xray
bgscale = 1.007
composition = CeO2
outputtype = gr
qmaxinst = 28.8974762299
qmin = 0.5
qmax = 27.9
rmax = 50.0
rmin = 0.0
rstep = 0.01
rpoly = 1.8657

[Misc]
inputdir = G:/SankarDec16/1Pd/Chi
savedir = D:/DATA/APS_CeO2/1Pd
backgroundfilefull = G:/SankarDec16/Background/background-00000.chi

#### start data
#S 1
#L r($\AA$)  G($\AA^{-2}$)
0 0
0.01 -0.00610206
0.02 -0.0117452
0.03 -0.0164568
0.04 -0.0198808
0.05 -0.0218189
0.06 -0.021952
0.07 -0.0204919
0.08 -0.0173352
0.09 -0.012886
0.1 -0.00742381
0.11 -0.00137643
0.12 0.00478843
0.13 0.010547
0.14 0.0155266
0.15 0.0192717
0.16 0.0215147
0.17 0.0221475
0.18 0.0209513
0.19 0.0182362
0.2 0.0140122
0.21 0.00874985
0.22 0.00279644
0.23 -0.00336789
0.24 -0.0093023
0.25 -0.0144427
0.26 -0.0185196
0.27 -0.0211164
0.28 -0.022066
0.29 -0.0213562
0.3 -0.0188784
0.31 -0.015027
0.32 -0.00992483
0.33 -0.00408742
0.34 0.00208641
0.35 0.00808624
0.36 0.0135188
0.37 0.0178059
0.38 0.0207941
0.39 0.022125
0.4 0.0217402
0.41 0.0197239
0.42 0.0160832
0.43 0.0112788
0.44 0.00554046
0.45 -0.000594834
0.46 -0.00669545
0.47 -0.0122442
0.48 -0.016914
0.49 -0.0201396
0.5 -0.0218907
0.51 -0.0218844
0.52 -0.0201738
0.53 -0.0169361
0.54 -0.012294
0.55 -0.00675322
0.56 -0.000640141
0.57 0.0055118
0.58 0.0112584
0.59 0.0160994
0.6 0.0197896
0.61 0.0218033
0.62 0.0222351
0.63 0.020891
0.64 0.0179336
0.65 0.0136249
0.66 0.00819852
0.67 0.00218143
0.68 -0.00401815
0.69 -0.00989479
0.7 -0.0150123
0.71 -0.0189105
0.72 -0.0214375
0.73 -0.0221309
0.74 -0.0212058
0.75 -0.0185656
0.76 -0.0144745
0.77 -0.0092667
0.78 -0.00327435
0.79 0.00297878
0.8 0.00902359
0.81 0.0144059
0.82 0.0187192
0.83 0.0215645
0.84 0.0228897
0.85 0.0223173
0.86 0.02017
0.87 0.0164504
0.88 0.0115074
0.89 0.00572657
0.9 -0.000485187
0.91 -0.00663784
0.92 -0.0122369
0.93 -0.0169087
0.94 -0.0203077
0.95 -0.0221309
0.96 -0.0224322
0.97 -0.0209636
0.98 -0.0181351
0.99 -0.0140667
1 -0.00917797
1.01 -0.00388461
1.02 0.00134222
1.03 0.00609333
1.04 0.00987464
1.05 0.012442
1.06 0.0135537
1.07 0.0130564
1.08 0.0111474
1.09 0.00778632
1.1 0.00349253
1.11 -0.0014258
1.12 -0.00643337
1.13 -0.0110536
1.14 -0.0146609
1.15 -0.0169448
1.16 -0.0173112
1.17 -0.0156608
1.18 -0.0118174
1.19 -0.00573996
1.2 0.00217563
1.21 0.0118445
1.22 0.022519
1.23 0.0337089
1.24 0.0446765
1.25 0.0547881
1.26 0.0631708
1.27 0.0694574
1.28 0.0727984
1.29 0.0730645
1.3 0.0699568
1.31 0.063306
1.32 0.0535895
1.33 0.0406398
1.34 0.0254151
1.35 0.00829119
1.36 -0.00991213
1.37 -0.0284516
1.38 -0.0464736
1.39 -0.0633383
1.4 -0.0781581
1.41 -0.0905204
1.42 -0.0999294
1.43 -0.10594
1.44 -0.108757
1.45 -0.107826
1.46 -0.103856
1.47 -0.0968125
1.48 -0.0871929
1.49 -0.075512
1.5 -0.0621186
1.51 -0.0477185
1.52 -0.0327144
1.53 -0.0176568
1.54 -0.00295247
1.55 0.0109703
1.56 0.023912
1.57 0.0354183
1.58 0.045521
1.59 0.0539512
1.6 0.0606638
1.61 0.0656782
1.62 0.0687815
1.63 0.0702118
1.64 0.0697454
1.65 0.0675772
1.66 0.0636966
1.67 0.0581069
1.68 0.051057
1.69 0.0424332
1.7 0.0326303
1.71 0.0217354
1.72 0.0100519
1.73 -0.00211839
1.74 -0.0144512
1.75 -0.0265928
1.76 -0.0381337
1.77 -0.0487685
1.78 -0.0581766
1.79 -0.066026
1.8 -0.0723096
1.81 -0.0766521
1.82 -0.0793573
1.83 -0.0803869
1.84 -0.0800368
1.85 -0.0786599
1.86 -0.076604
1.87 -0.0743838
1.88 -0.072481
1.89 -0.0713433
1.9 -0.0713799
1.91 -0.0729993
1.92 -0.0762369
1.93 -0.0814657
1.94 -0.0883197
1.95 -0.0967342
1.96 -0.106262
1.97 -0.116398
1.98 -0.126511
1.99 -0.135965
2 -0.143917
2.01 -0.149782
2.02 -0.152903
2.03 -0.152572
2.04 -0.148765
2.05 -0.140575
2.06 -0.128554
2.07 -0.112392
2.08 -0.0924372
2.09 -0.0691608
2.1 -0.0427042
2.11 -0.0139466
2.12 0.0168842
2.13 0.0491019
2.14 0.0823472
2.15 0.1163
2.16 0.150703
2.17 0.185534
2.18 0.220763
2.19 0.256553
2.2 0.293089
2.21 0.330528
2.22 0.36916
2.23 0.40891
2.24 0.44987
2.25 0.491683
2.26 0.533938
2.27 0.575886
2.28 0.616734
2.29 0.654983
2.3 0.689717
2.31 0.719192
2.32 0.741974
2.33 0.757046
2.34 0.762106
2.35 0.757463
2.36 0.741014
2.37 0.713455
2.38 0.674601
2.39 0.62464
2.4 0.565622
2.41 0.497679
2.42 0.42397
2.43 0.346068
2.44 0.26663
2.45 0.187951
2.46 0.112835
2.47 0.0428998
2.48 -0.0191346
2.49 -0.0724256
2.5 -0.115817
2.51 -0.148414
2.52 -0.171402
2.53 -0.18388
2.54 -0.188536
2.55 -0.186166
2.56 -0.17898
2.57 -0.169065
2.58 -0.158517
2.59 -0.149306
2.6 -0.143491
2.61 -0.142249
2.62 -0.146628
2.63 -0.157408
2.64 -0.173933
2.65 -0.196606
2.66 -0.223571
2.67 -0.25393
2.68 -0.285888
2.69 -0.317809
2.7 -0.347742
2.71 -0.37447
2.72 -0.396183
2.73 -0.412361
2.74 -0.422417
2.75 -0.426102
2.76 -0.424495
2.77 -0.417758
2.78 -0.407948
2.79 -0.396338
2.8 -0.384856
2.81 -0.375104
2.82 -0.369135
2.83 -0.367745
2.84 -0.372598
2.85 -0.383682
2.86 -0.401132
2.87 -0.424601
2.88 -0.452535
2.89 -0.483983
2.9 -0.516612
2.91 -0.548526
2.92 -0.577488
2.93 -0.601812
2.94 -0.619018
2.95 -0.628795
2.96 -0.629301
2.97 -0.621152
2.98 -0.604574
2.99 -0.580411
3 -0.550902
3.01 -0.517534
3.02 -0.483268
3.03 -0.450544
3.04 -0.422062
3.05 -0.399756
3.06 -0.386519
3.07 -0.382471
3.08 -0.389619
3.09 -0.406979
3.1 -0.434068
3.11 -0.469669
3.12 -0.511057
3.13 -0.55631
3.14 -0.602054
3.15 -0.645468
3.16 -0.683596
3.17 -0.714435
3.18 -0.734977
3.19 -0.745417
3.2 -0.743955
3.21 -0.732089
3.22 -0.710817
3.23 -0.682053
3.24 -0.649
3.25 -0.614562
3.26 -0.582317
3.27 -0.555791
3.28 -0.538196
3.29 -0.531499
3.3 -0.539046
3.31 -0.55987
3.32 -0.595702
3.33 -0.644097
3.34 -0.703346
3.35 -0.770586
3.36 -0.841699
3.37 -0.912617
3.38 -0.979113
3.39 -1.03672
3.4 -1.08168
3.41 -1.11188
3.42 -1.12343
3.43 -1.11805
3.44 -1.09399
3.45 -1.0547
3.46 -1.00268
3.47 -0.941804
3.48 -0.877237
3.49 -0.814214
3.5 -0.757613
3.51 -0.712662
3.52 -0.683305
3.53 -0.671318
3.54 -0.680033
3.55 -0.706184
3.56 -0.749481
3.57 -0.80386
3.58 -0.863677
3.59 -0.920478
3.6 -0.966476
3.61 -0.988633
3.62 -0.980438
3.63 -0.929636
3.64 -0.827861
3.65 -0.670941
3.66 -0.446822
3.67 -0.161935
3.68 0.191551
3.69 0.604292
3.7 1.07146
3.71 1.58502
3.72 2.12944
3.73 2.69379
3.74 3.25953
3.75 3.81035
3.76 4.32828
3.77 4.79983
3.78 5.20232
3.79 5.53232
3.8 5.76881
3.81 5.91179
3.82 5.95533
3.83 5.89423
3.84 5.74176
3.85 5.48938
3.86 5.16051
3.87 4.75965
3.88 4.30326
3.89 3.80768
3.9 3.28637
3.91 2.75753
3.92 2.2359
3.93 1.73502
3.94 1.26638
3.95 0.842026
3.96 0.463747
3.97 0.144442
3.98 -0.122512
3.99 -0.332993
4 -0.491303
4.01 -0.604135
4.02 -0.673182
4.03 -0.710845
4.04 -0.720817
4.05 -0.713234
4.06 -0.69445
4.07 -0.671061
4.08 -0.648367
4.09 -0.631215
4.1 -0.621613
4.11 -0.621714
4.12 -0.63162
4.13 -0.650152
4.14 -0.67641
4.15 -0.707186
4.16 -0.740239
4.17 -0.772424
4.18 -0.801132
4.19 -0.823461
4.2 -0.838245
4.21 -0.842509
4.22 -0.836865
4.23 -0.820133
4.24 -0.792812
4.25 -0.756042
4.26 -0.709921
4.27 -0.656885
4.28 -0.597445
4.29 -0.533533
4.3 -0.466215
4.31 -0.396487
4.32 -0.32532
4.33 -0.253107
4.34 -0.180328
4.35 -0.107092
4.36 -0.033479
4.37 0.0404477
4.38 0.114591
4.39 0.188672
4.4 0.262176
4.41 0.334383
4.42 0.404315
4.43 0.470448
4.44 0.531831
4.45 0.585775
4.46 0.631623
4.47 0.66701
4.48 0.690509
4.49 0.701547
4.5 0.697649
4.51 0.680372
4.52 0.648
4.53 0.602401
4.54 0.544391
4.55 0.475179
4.56 0.397738
4.57 0.31332
4.58 0.225404
4.59 0.136183
4.6 0.0483711
4.61 -0.0360245
4.62 -0.114366
4.63 -0.185997
4.64 -0.248914
4.65 -0.30327
4.66 -0.348882
4.67 -0.385838
4.68 -0.415809
4.69 -0.438963
4.7 -0.457654
4.71 -0.47296
4.72 -0.48656
4.73 -0.49979
4.74 -0.51393
4.75 -0.52968
4.76 -0.54781
4.77 -0.568306
4.78 -0.591047
4.79 -0.615603
4.8 -0.641127
4.81 -0.666754
4.82 -0.691482
4.83 -0.714269
4.84 -0.734189
4.85 -0.750728
4.86 -0.762922
4.87 -0.771143
4.88 -0.774939
4.89 -0.775041
4.9 -0.771956
4.91 -0.766434
4.92 -0.759582
4.93 -0.752324
4.94 -0.745706
4.95 -0.740667
4.96 -0.737989
4.97 -0.738053
4.98 -0.741539
4.99 -0.748047
5 -0.757783
5.01 -0.770066
5.02 -0.784402
5.03 -0.800122
5.04 -0.816414
5.05 -0.83254
5.06 -0.847864
5.07 -0.861778
5.08 -0.873867
5.09 -0.883994
5.1 -0.891809
5.11 -0.897638
5.12 -0.901322
5.13 -0.90316
5.14 -0.903191
5.15 -0.901286
5.16 -0.897461
5.17 -0.890897
5.18 -0.881283
5.19 -0.867412
5.2 -0.848058
5.21 -0.822218
5.22 -0.78736
5.23 -0.743192
5.24 -0.68692
5.25 -0.618187
5.26 -0.535906
5.27 -0.43888
5.28 -0.32873
5.29 -0.204084
5.3 -0.0683989
5.31 0.0771695
5.32 0.229365
5.33 0.38471
5.34 0.539052
5.35 0.688436
5.36 0.827502
5.37 0.952436
5.38 1.05906
5.39 1.14226
5.4 1.20168
5.41 1.23067
5.42 1.23208
5.43 1.20316
5.44 1.1452
5.45 1.06123
5.46 0.951204
5.47 0.821931
5.48 0.67529
5.49 0.517559
5.5 0.353224
5.51 0.187531
5.52 0.0249565
5.53 -0.128977
5.54 -0.27167
5.55 -0.399156
5.56 -0.509255
5.57 -0.601605
5.58 -0.673483
5.59 -0.727933
5.6 -0.763781
5.61 -0.78425
5.62 -0.791106
5.63 -0.786349
5.64 -0.773462
5.65 -0.753844
5.66 -0.730622
5.67 -0.705297
5.68 -0.67945
5.69 -0.653967
5.7 -0.62941
5.71 -0.605636
5.72 -0.582307
5.73 -0.558628
5.74 -0.533732
5.75 -0.506459
5.76 -0.476228
5.77 -0.441707
5.78 -0.40304
5.79 -0.359791
5.8 -0.312389
5.81 -0.261725
5.82 -0.208717
5.83 -0.155101
5.84 -0.102649
5.85 -0.053278
5.86 -0.00888344
5.87 0.0281744
5.88 0.057146
5.89 0.0751201
5.9 0.0826394
5.91 0.0783262
5.92 0.0623578
5.93 0.0357823
5.94 -0.00161586
5.95 -0.0471098
5.96 -0.100024
5.97 -0.157831
5.98 -0.218761
5.99 -0.280821
6 -0.342276
6.01 -0.401272
6.02 -0.456926
6.03 -0.508132
6.04 -0.554463
6.05 -0.596112
6.06 -0.632827
6.07 -0.665819
6.08 -0.695427
6.09 -0.722867
6.1 -0.748986
6.11 -0.774677
6.12 -0.800623
6.13 -0.827407
6.14 -0.855118
6.15 -0.883745
6.16 -0.912878
6.17 -0.941936
6.18 -0.969999
6.19 -0.996338
6.2 -1.01976
6.21 -1.03961
6.22 -1.0552
6.23 -1.06579
6.24 -1.07179
6.25 -1.07261
6.26 -1.06943
6.27 -1.06269
6.28 -1.05348
6.29 -1.04293
6.3 -1.03211
6.31 -1.02193
6.32 -1.01314
6.33 -1.00585
6.34 -0.999726
6.35 -0.993729
6.36 -0.986309
6.37 -0.974485
6.38 -0.955747
6.39 -0.92591
6.4 -0.880646
6.41 -0.816793
6.42 -0.72698
6.43 -0.610704
6.44 -0.460655
6.45 -0.276389
6.46 -0.055715
6.47 0.203995
6.48 0.497879
6.49 0.828973
6.5 1.18829
6.51 1.57278
6.52 1.97456
6.53 2.38522
6.54 2.79528
6.55 3.19537
6.56 3.57348
6.57 3.92063
6.58 4.22734
6.59 4.48156
6.6 4.68199
6.61 4.81289
6.62 4.87946
6.63 4.87431
6.64 4.79837
6.65 4.65738
6.66 4.44793
6.67 4.18497
6.68 3.86951
6.69 3.51489
6.7 3.12996
6.71 2.72477
6.72 2.31105
6.73 1.89905
6.74 1.49818
6.75 1.11777
6.76 0.765574
6.77 0.445423
6.78 0.166294
6.79 -0.0748097
6.8 -0.271879
6.81 -0.428782
6.82 -0.546825
6.83 -0.62729
6.84 -0.677742
6.85 -0.698351
6.86 -0.698029
6.87 -0.679904
6.88 -0.649421
6.89 -0.611292
6.9 -0.569019
6.91 -0.526236
6.92 -0.485491
6.93 -0.448491
6.94 -0.416296
6.95 -0.389702
6.96 -0.368082
6.97 -0.351797
6.98 -0.339483
6.99 -0.330732
7 -0.324718
7.01 -0.320749
7.02 -0.31865
7.03 -0.318053
7.04 -0.319316
7.05 -0.322728
7.06 -0.32889
7.07 -0.338795
7.08 -0.352774
7.09 -0.372359
7.1 -0.397423
7.11 -0.428794
7.12 -0.466506
7.13 -0.509991
7.14 -0.559292
7.15 -0.61271
7.16 -0.669446
7.17 -0.727652
7.18 -0.785746
7.19 -0.841746
7.2 -0.89431
7.21 -0.94109
7.22 -0.981542
7.23 -1.01421
7.24 -1.03856
7.25 -1.05496
7.26 -1.06275
7.27 -1.06382
7.28 -1.05846
7.29 -1.04862
7.3 -1.03573
7.31 -1.02144
7.32 -1.00733
7.33 -0.994946
7.34 -0.985091
7.35 -0.978561
7.36 -0.975448
7.37 -0.975193
7.38 -0.977078
7.39 -0.979422
7.4 -0.980308
7.41 -0.977495
7.42 -0.968645
7.43 -0.950583
7.44 -0.922077
7.45 -0.878906
7.46 -0.821197
7.47 -0.746531
7.48 -0.654371
7.49 -0.545745
7.5 -0.419451
7.51 -0.279359
7.52 -0.126049
7.53 0.0364604
7.54 0.205029
7.55 0.375694
7.56 0.544523
7.57 0.70651
7.58 0.858475
7.59 0.995904
7.6 1.11523
7.61 1.21487
7.62 1.28971
7.63 1.34162
7.64 1.36684
7.65 1.36728
7.66 1.34336
7.67 1.29521
7.68 1.22723
7.69 1.13891
7.7 1.0358
7.71 0.919773
7.72 0.794538
7.73 0.663653
7.74 0.530163
7.75 0.397423
7.76 0.268566
7.77 0.146081
7.78 0.0321878
7.79 -0.0704209
7.8 -0.161523
7.81 -0.23787
7.82 -0.300591
7.83 -0.348186
7.84 -0.380725
7.85 -0.399328
7.86 -0.402899
7.87 -0.394368
7.88 -0.373462
7.89 -0.342652
7.9 -0.303494
7.91 -0.257699
7.92 -0.207909
7.93 -0.155991
7.94 -0.104528
7.95 -0.055783
7.96 -0.0121343
7.97 0.0248457
7.98 0.0521903
7.99 0.0697521
8 0.0750741
8.01 0.0682702
8.02 0.0489921
8.03 0.0167463
8.04 -0.0264423
8.05 -0.0810841
8.06 -0.144122
8.07 -0.214377
8.08 -0.289471
8.09 -0.367064
8.1 -0.444852
8.11 -0.520711
8.12 -0.592334
8.13 -0.658273
8.14 -0.717295
8.15 -0.768081
8.16 -0.811226
8.17 -0.845666
8.18 -0.873171
8.19 -0.894194
8.2 -0.910216
8.21 -0.922879
8.22 -0.933486
8.23 -0.943662
8.24 -0.95454
8.25 -0.966854
8.26 -0.980839
8.27 -0.99619
8.28 -1.01185
8.29 -1.02598
8.3 -1.03648
8.31 -1.04029
8.32 -1.03391
8.33 -1.01476
8.34 -0.977022
8.35 -0.919932
8.36 -0.837798
8.37 -0.729759
8.38 -0.594006
8.39 -0.427994
8.4 -0.235252
8.41 -0.0130229
8.42 0.232209
8.43 0.498512
8.44 0.780419
8.45 1.07174
8.46 1.36621
8.47 1.65665
8.48 1.93497
8.49 2.19442
8.5 2.42842
8.51 2.62834
8.52 2.79294
8.53 2.9115
8.54 2.98687
8.55 3.01404
8.56 2.99301
8.57 2.92764
8.58 2.81488
8.59 2.66473
8.6 2.47735
8.61 2.26126
8.62 2.02213
8.63 1.76599
8.64 1.50078
8.65 1.23243
8.66 0.967551
8.67 0.71183
8.68 0.470485
8.69 0.246256
8.7 0.0448779
8.71 -0.13484
8.72 -0.289066
8.73 -0.419458
8.74 -0.526557
8.75 -0.610556
8.76 -0.675802
8.77 -0.721979
8.78 -0.754273
8.79 -0.774388
8.8 -0.785478
8.81 -0.790524
8.82 -0.79154
8.83 -0.791118
8.84 -0.790901
8.85 -0.792317
8.86 -0.796289
8.87 -0.80365
8.88 -0.814267
8.89 -0.828628
8.9 -0.845971
8.91 -0.866076
8.92 -0.888298
8.93 -0.911933
8.94 -0.936427
8.95 -0.961075
8.96 -0.985331
8.97 -1.00874
8.98 -1.03097
8.99 -1.05164
9 -1.07079
9.01 -1.08806
9.02 -1.10369
9.03 -1.11755
9.04 -1.12969
9.05 -1.14024
9.06 -1.14898
9.07 -1.15609
9.08 -1.16124
9.09 -1.16435
9.1 -1.16516
9.11 -1.16314
9.12 -1.15821
9.13 -1.14939
9.14 -1.13669
9.15 -1.11934
9.16 -1.09686
9.17 -1.06919
9.18 -1.03526
9.19 -0.995759
9.2 -0.949914
9.21 -0.8983
9.22 -0.841198
9.23 -0.778863
9.24 -0.712547
9.25 -0.642675
9.26 -0.570854
9.27 -0.498213
9.28 -0.426326
9.29 -0.356524
9.3 -0.290871
9.31 -0.230252
9.32 -0.176779
9.33 -0.131298
9.34 -0.0948196
9.35 -0.0687883
9.36 -0.052486
9.37 -0.0476302
9.38 -0.0525241
9.39 -0.0673062
9.4 -0.0909109
9.41 -0.121669
9.42 -0.158836
9.43 -0.199923
9.44 -0.243585
9.45 -0.287747
9.46 -0.330783
9.47 -0.370831
9.48 -0.406965
9.49 -0.437338
9.5 -0.461934
9.51 -0.479967
9.52 -0.491466
9.53 -0.497165
9.54 -0.497076
9.55 -0.492928
9.56 -0.485435
9.57 -0.476204
9.58 -0.466502
9.59 -0.457786
9.6 -0.451046
9.61 -0.447737
9.62 -0.448198
9.63 -0.453173
9.64 -0.462856
9.65 -0.476864
9.66 -0.495379
9.67 -0.517227
9.68 -0.542073
9.69 -0.568855
9.7 -0.5968
9.71 -0.625107
9.72 -0.653128
9.73 -0.680248
9.74 -0.706259
9.75 -0.730951
9.76 -0.754359
9.77 -0.776695
9.78 -0.798036
9.79 -0.818672
9.8 -0.83854
9.81 -0.857469
9.82 -0.874958
9.83 -0.889849
9.84 -0.901138
9.85 -0.906092
9.86 -0.903057
9.87 -0.888655
9.88 -0.85936
9.89 -0.812941
9.9 -0.742897
9.91 -0.649109
9.92 -0.52527
9.93 -0.370522
9.94 -0.182955
9.95 0.0407467
9.96 0.296566
9.97 0.588278
9.98 0.908784
9.99 1.25638
10 1.62536
10.01 2.00863
10.02 2.39972
10.03 2.78976
10.04 3.16974
10.05 3.53104
10.06 3.86554
10.07 4.16228
10.08 4.41867
10.09 4.62115
10.1 4.7715
10.11 4.86273
10.12 4.89309
10.13 4.86655
10.14 4.7773
10.15 4.63732
10.16 4.44536
10.17 4.21138
10.18 3.94207
10.19 3.64403
10.2 3.32801
10.21 3.00046
10.22 2.67091
10.23 2.34648
10.24 2.0344
10.25 1.73896
10.26 1.46757
10.27 1.21993
10.28 1.00093
10.29 0.809356
10.3 0.644745
10.31 0.507161
10.32 0.391453
10.33 0.297809
10.34 0.220062
10.35 0.155869
10.36 0.101311
10.37 0.0527051
10.38 0.00738404
10.39 -0.0375724
10.4 -0.0842022
10.41 -0.133922
10.42 -0.187544
10.43 -0.245694
10.44 -0.307722
10.45 -0.373616
10.46 -0.442005
10.47 -0.512002
10.48 -0.582291
10.49 -0.65174
10.5 -0.718885
10.51 -0.78303
10.52 -0.842881
10.53 -0.897963
10.54 -0.947785
10.55 -0.991601
10.56 -1.0299
10.57 -1.06171
10.58 -1.08787
10.59 -1.10804
10.6 -1.12234
10.61 -1.13124
10.62 -1.13411
10.63 -1.13186
10.64 -1.12393
10.65 -1.11078
10.66 -1.09251
10.67 -1.06897
10.68 -1.04099
10.69 -1.00827
10.7 -0.97188
10.71 -0.932192
10.72 -0.890049
10.73 -0.846431
10.74 -0.802299
10.75 -0.758778
10.76 -0.717116
10.77 -0.678388
10.78 -0.643604
10.79 -0.614138
10.8 -0.590166
10.81 -0.573302
10.82 -0.56312
10.83 -0.560286
10.84 -0.564774
10.85 -0.575868
10.86 -0.593955
10.87 -0.617423
10.88 -0.6461
10.89 -0.678679
10.9 -0.714227
10.91 -0.751804
10.92 -0.790271
10.93 -0.828729
10.94 -0.86633
10.95 -0.902315
10.96 -0.93604
10.97 -0.967247
10.98 -0.995227
10.99 -1.02027
11 -1.04196
11.01 -1.06057
11.02 -1.07627
11.03 -1.0891
11.04 -1.09967
11.05 -1.10796
11.06 -1.11463
11.07 -1.11992
11.08 -1.12424
11.09 -1.12799
11.1 -1.13148
11.11 -1.13502
11.12 -1.13889
11.13 -1.14322
11.14 -1.14807
11.15 -1.15339
11.16 -1.15891
11.17 -1.1642
11.18 -1.16864
11.19 -1.17133
11.2 -1.17106
11.21 -1.16681
11.22 -1.15621
11.23 -1.13844
11.24 -1.11067
11.25 -1.0714
11.26 -1.01883
11.27 -0.949901
11.28 -0.864902
11.29 -0.759747
11.3 -0.635933
11.31 -0.491791
11.32 -0.327497
11.33 -0.145193
11.34 0.0558427
11.35 0.270737
11.36 0.498046
11.37 0.733053
11.38 0.971716
11.39 1.20891
11.4 1.44014
11.41 1.65864
11.42 1.86074
11.43 2.04059
11.44 2.19326
11.45 2.31711
11.46 2.40452
11.47 2.45852
11.48 2.47386
11.49 2.45286
11.5 2.39657
11.51 2.30481
11.52 2.18432
11.53 2.03477
11.54 1.86419
11.55 1.67598
11.56 1.4758
11.57 1.26922
11.58 1.06125
11.59 0.85666
11.6 0.660236
11.61 0.475261
11.62 0.304326
11.63 0.150665
11.64 0.0133815
11.65 -0.104589
11.66 -0.206062
11.67 -0.291061
11.68 -0.361406
11.69 -0.420017
11.7 -0.467942
11.71 -0.509055
11.72 -0.54499
11.73 -0.578393
11.74 -0.611034
11.75 -0.644521
11.76 -0.67967
11.77 -0.717266
11.78 -0.756954
11.79 -0.798327
11.8 -0.840286
11.81 -0.88154
11.82 -0.920056
11.83 -0.954418
11.84 -0.982116
11.85 -1.00152
11.86 -1.01098
11.87 -1.00798
11.88 -0.992747
11.89 -0.962269
11.9 -0.917815
11.91 -0.858336
11.92 -0.784095
11.93 -0.696749
11.94 -0.595677
11.95 -0.484219
11.96 -0.362932
11.97 -0.234574
11.98 -0.101276
11.99 0.0346074
12 0.170501
12.01 0.303621
12.02 0.431798
12.03 0.552426
12.04 0.663051
12.05 0.762563
12.06 0.847339
12.07 0.91806
12.08 0.971881
12.09 1.00904
12.1 1.02929
12.11 1.03148
12.12 1.01808
12.13 0.987546
12.14 0.943167
12.15 0.885531
12.16 0.816571
12.17 0.738915
12.18 0.653811
12.19 0.564473
12.2 0.472668
12.21 0.380796
12.22 0.290679
12.23 0.204369
12.24 0.122717
12.25 0.0476105
12.26 -0.0210767
12.27 -0.0826932
12.28 -0.137354
12.29 -0.185988
12.3 -0.22863
12.31 -0.267114
12.32 -0.302141
12.33 -0.335227
12.34 -0.367506
12.35 -0.400136
12.36 -0.433873
12.37 -0.469532
12.38 -0.507116
12.39 -0.546601
12.4 -0.5874
