# xPDFsuite Configuration #
[PDF]
wavelength = 0.1432
dataformat = twotheta
inputfile = 1_1Pd_CeO2_cycle-00416.chi
backgroundfile = background-00000.chi
mode = xray
bgscale = 1.007
composition = CeO2
outputtype = gr
qmaxinst = 28.8974762299
qmin = 0.5
qmax = 27.9
rmax = 50.0
rmin = 0.0
rstep = 0.01
rpoly = 1.8657

[Misc]
inputdir = G:/SankarDec16/1Pd/Chi
savedir = D:/DATA/APS_CeO2/1Pd
backgroundfilefull = G:/SankarDec16/Background/background-00000.chi

#### start data
#S 1
#L r($\AA$)  G($\AA^{-2}$)
0 0
0.01 -0.00475175
0.02 -0.00914454
0.03 -0.0128088
0.04 -0.0154665
0.05 -0.016963
0.06 -0.01705
0.07 -0.0158939
0.08 -0.0134159
0.09 -0.00993313
0.1 -0.00566558
0.11 -0.000949333
0.12 0.0038502
0.13 0.00832202
0.14 0.012177
0.15 0.0150599
0.16 0.0167642
0.17 0.0172087
0.18 0.0162261
0.19 0.0140624
0.2 0.0107302
0.21 0.00660008
0.22 0.00194638
0.23 -0.00285319
0.24 -0.00745561
0.25 -0.0114182
0.26 -0.0145358
0.27 -0.0164856
0.28 -0.0171427
0.29 -0.0165035
0.3 -0.0144905
0.31 -0.0114171
0.32 -0.00738694
0.33 -0.00280589
0.34 0.00201086
0.35 0.00666238
0.36 0.0108452
0.37 0.0141069
0.38 0.0163368
0.39 0.0172603
0.4 0.0168409
0.41 0.0151531
0.42 0.0122131
0.43 0.00838657
0.44 0.00386343
0.45 -0.000935105
0.46 -0.00566867
0.47 -0.00993275
0.48 -0.0134788
0.49 -0.0158672
0.5 -0.0170874
0.51 -0.0169272
0.52 -0.0154407
0.53 -0.012777
0.54 -0.00904605
0.55 -0.00464769
0.56 0.000151038
0.57 0.00493416
0.58 0.00935319
0.59 0.0130199
0.6 0.0157536
0.61 0.0171493
0.62 0.0172976
0.63 0.01606
0.64 0.0135787
0.65 0.0100705
0.66 0.00573413
0.67 0.000984005
0.68 -0.0038488
0.69 -0.00837402
0.7 -0.0122526
0.71 -0.0151317
0.72 -0.0169078
0.73 -0.0172308
0.74 -0.0162882
0.75 -0.0140214
0.76 -0.010654
0.77 -0.00645891
0.78 -0.00171299
0.79 0.00317627
0.8 0.0078323
0.81 0.0119109
0.82 0.0151014
0.83 0.0171061
0.84 0.0179042
0.85 0.0172215
0.86 0.0153316
0.87 0.0122602
0.88 0.00829932
0.89 0.00376194
0.9 -0.00101401
0.91 -0.00565438
0.92 -0.00976364
0.93 -0.0130696
0.94 -0.0153164
0.95 -0.0162911
0.96 -0.0160655
0.97 -0.0144811
0.98 -0.0118879
0.99 -0.00841814
1 -0.00443039
1.01 -0.000269511
1.02 0.00365732
1.03 0.00704066
1.04 0.00946469
1.05 0.0107607
1.06 0.0107461
1.07 0.00931792
1.08 0.0066712
1.09 0.00279492
1.1 -0.00185081
1.11 -0.00698531
1.12 -0.0121396
1.13 -0.0168992
1.14 -0.0207111
1.15 -0.0233092
1.16 -0.0241579
1.17 -0.0231616
1.18 -0.0201414
1.19 -0.0150212
1.2 -0.00812454
1.21 0.000560702
1.22 0.0103956
1.23 0.0210325
1.24 0.0318705
1.25 0.0423784
1.26 0.0518683
1.27 0.0599632
1.28 0.065963
1.29 0.0696639
1.3 0.0707447
1.31 0.0689522
1.32 0.0645618
1.33 0.0572579
1.34 0.0477152
1.35 0.0360501
1.36 0.0227877
1.37 0.00843591
1.38 -0.00652949
1.39 -0.0215367
1.4 -0.0360527
1.41 -0.0496407
1.42 -0.0618872
1.43 -0.0723639
1.44 -0.0810074
1.45 -0.087276
1.46 -0.0914065
1.47 -0.0931337
1.48 -0.0925346
1.49 -0.0897507
1.5 -0.0846572
1.51 -0.0776714
1.52 -0.0686977
1.53 -0.0581054
1.54 -0.0460443
1.55 -0.0327196
1.56 -0.0184922
1.57 -0.00354577
1.58 0.0116847
1.59 0.0268647
1.6 0.0415622
1.61 0.0554017
1.62 0.0677783
1.63 0.0784529
1.64 0.0867227
1.65 0.0923897
1.66 0.0950584
1.67 0.094331
1.68 0.0904103
1.69 0.0827087
1.7 0.0718989
1.71 0.0579254
1.72 0.0413079
1.73 0.0226351
1.74 0.00241545
1.75 -0.0184718
1.76 -0.0392992
1.77 -0.0592676
1.78 -0.0776529
1.79 -0.0936603
1.8 -0.107041
1.81 -0.116888
1.82 -0.123519
1.83 -0.126602
1.84 -0.126433
1.85 -0.123476
1.86 -0.118035
1.87 -0.111052
1.88 -0.10311
1.89 -0.0951065
1.9 -0.0877683
1.91 -0.0818969
1.92 -0.0778665
1.93 -0.0764799
1.94 -0.0775666
1.95 -0.0813783
1.96 -0.0876153
1.97 -0.0958
1.98 -0.105459
1.99 -0.115694
2 -0.125677
2.01 -0.134492
2.02 -0.141257
2.03 -0.144961
2.04 -0.145258
2.05 -0.140894
2.06 -0.132175
2.07 -0.118494
2.08 -0.100011
2.09 -0.0771231
2.1 -0.0497951
2.11 -0.0190977
2.12 0.0147698
2.13 0.0508297
2.14 0.0885056
2.15 0.127165
2.16 0.16622
2.17 0.205241
2.18 0.243927
2.19 0.282066
2.2 0.319592
2.21 0.35654
2.22 0.392912
2.23 0.428844
2.24 0.464296
2.25 0.499242
2.26 0.533487
2.27 0.566615
2.28 0.598272
2.29 0.627403
2.3 0.653532
2.31 0.675403
2.32 0.691996
2.33 0.702557
2.34 0.705279
2.35 0.700352
2.36 0.686022
2.37 0.662721
2.38 0.63016
2.39 0.588309
2.4 0.538708
2.41 0.481216
2.42 0.418358
2.43 0.351245
2.44 0.281995
2.45 0.212496
2.46 0.144973
2.47 0.0809373
2.48 0.022634
2.49 -0.0290259
2.5 -0.0729403
2.51 -0.108174
2.52 -0.135506
2.53 -0.153971
2.54 -0.16564
2.55 -0.170987
2.56 -0.171719
2.57 -0.169512
2.58 -0.165968
2.59 -0.162816
2.6 -0.161692
2.61 -0.163697
2.62 -0.169756
2.63 -0.180596
2.64 -0.195811
2.65 -0.215776
2.66 -0.239082
2.67 -0.265025
2.68 -0.292162
2.69 -0.319159
2.7 -0.34438
2.71 -0.366809
2.72 -0.384887
2.73 -0.398155
2.74 -0.406083
2.75 -0.408422
2.76 -0.40609
2.77 -0.399193
2.78 -0.38953
2.79 -0.378219
2.8 -0.366988
2.81 -0.357298
2.82 -0.351057
2.83 -0.349054
2.84 -0.352927
2.85 -0.362781
2.86 -0.37889
2.87 -0.401129
2.88 -0.428149
2.89 -0.459354
2.9 -0.492564
2.91 -0.526181
2.92 -0.558115
2.93 -0.586706
2.94 -0.609611
2.95 -0.626226
2.96 -0.634627
2.97 -0.635
2.98 -0.627192
2.99 -0.611522
3 -0.589784
3.01 -0.562734
3.02 -0.533048
3.03 -0.502576
3.04 -0.473715
3.05 -0.448331
3.06 -0.42896
3.07 -0.416231
3.08 -0.412116
3.09 -0.416325
3.1 -0.428899
3.11 -0.449356
3.12 -0.475743
3.13 -0.507103
3.14 -0.540693
3.15 -0.57457
3.16 -0.606377
3.17 -0.634381
3.18 -0.656267
3.19 -0.671726
3.2 -0.679266
3.21 -0.679625
3.22 -0.673303
3.23 -0.661472
3.24 -0.646327
3.25 -0.629825
3.26 -0.614564
3.27 -0.603059
3.28 -0.597669
3.29 -0.599865
3.3 -0.612076
3.31 -0.633656
3.32 -0.665815
3.33 -0.706761
3.34 -0.755168
3.35 -0.808808
3.36 -0.864618
3.37 -0.91935
3.38 -0.969905
3.39 -1.0128
3.4 -1.04522
3.41 -1.06564
3.42 -1.07109
3.43 -1.06311
3.44 -1.04046
3.45 -1.00601
3.46 -0.96189
3.47 -0.91133
3.48 -0.85845
3.49 -0.807589
3.5 -0.762518
3.51 -0.727411
3.52 -0.705255
3.53 -0.697253
3.54 -0.705757
3.55 -0.727797
3.56 -0.762585
3.57 -0.804777
3.58 -0.849238
3.59 -0.888358
3.6 -0.915573
3.61 -0.919076
3.62 -0.893643
3.63 -0.828427
3.64 -0.716299
3.65 -0.55385
3.66 -0.330476
3.67 -0.0522478
3.68 0.287717
3.69 0.680885
3.7 1.12285
3.71 1.60634
3.72 2.11742
3.73 2.64624
3.74 3.17614
3.75 3.69241
3.76 4.1788
3.77 4.62306
3.78 5.0045
3.79 5.31984
3.8 5.54968
3.81 5.69369
3.82 5.74603
3.83 5.70139
3.84 5.57156
3.85 5.34779
3.86 5.05134
3.87 4.68561
3.88 4.2653
3.89 3.80526
3.9 3.31723
3.91 2.81846
3.92 2.32213
3.93 1.84134
3.94 1.38703
3.95 0.970811
3.96 0.595237
3.97 0.272785
3.98 -0.00165031
3.99 -0.223483
4 -0.395846
4.01 -0.524334
4.02 -0.60962
4.03 -0.663099
4.04 -0.687503
4.05 -0.692373
4.06 -0.683568
4.07 -0.667272
4.08 -0.649029
4.09 -0.6334
4.1 -0.623123
4.11 -0.62059
4.12 -0.626523
4.13 -0.640334
4.14 -0.661681
4.15 -0.687875
4.16 -0.717169
4.17 -0.746678
4.18 -0.773987
4.19 -0.796305
4.2 -0.812253
4.21 -0.818837
4.22 -0.816231
4.23 -0.802997
4.24 -0.77925
4.25 -0.74583
4.26 -0.702493
4.27 -0.651563
4.28 -0.593362
4.29 -0.529904
4.3 -0.462355
4.31 -0.391926
4.32 -0.319903
4.33 -0.247054
4.34 -0.174193
4.35 -0.101822
4.36 -0.0303269
4.37 0.040097
4.38 0.109074
4.39 0.176573
4.4 0.24207
4.41 0.305281
4.42 0.365616
4.43 0.422112
4.44 0.474358
4.45 0.52046
4.46 0.560179
4.47 0.591835
4.48 0.614427
4.49 0.62752
4.5 0.629137
4.51 0.620324
4.52 0.5995
4.53 0.567829
4.54 0.525609
4.55 0.473327
4.56 0.413101
4.57 0.345253
4.58 0.27251
4.59 0.196175
4.6 0.118285
4.61 0.0405233
4.62 -0.0352283
4.63 -0.107883
4.64 -0.1758
4.65 -0.238464
4.66 -0.295263
4.67 -0.345657
4.68 -0.390359
4.69 -0.428764
4.7 -0.462273
4.71 -0.491102
4.72 -0.516151
4.73 -0.538305
4.74 -0.558055
4.75 -0.576329
4.76 -0.593476
4.77 -0.609978
4.78 -0.626032
4.79 -0.641702
4.8 -0.656982
4.81 -0.671635
4.82 -0.685533
4.83 -0.698372
4.84 -0.709923
4.85 -0.720079
4.86 -0.72854
4.87 -0.735503
4.88 -0.740839
4.89 -0.744845
4.9 -0.74772
4.91 -0.74974
4.92 -0.751292
4.93 -0.752676
4.94 -0.754228
4.95 -0.756219
4.96 -0.75886
4.97 -0.76223
4.98 -0.766469
4.99 -0.771436
5 -0.777134
5.01 -0.783373
5.02 -0.790025
5.03 -0.79696
5.04 -0.804048
5.05 -0.811244
5.06 -0.818522
5.07 -0.825929
5.08 -0.833545
5.09 -0.841445
5.1 -0.849744
5.11 -0.858402
5.12 -0.867367
5.13 -0.876364
5.14 -0.884987
5.15 -0.892494
5.16 -0.898204
5.17 -0.900534
5.18 -0.898614
5.19 -0.89058
5.2 -0.874767
5.21 -0.850038
5.22 -0.813474
5.23 -0.765263
5.24 -0.702623
5.25 -0.625886
5.26 -0.534526
5.27 -0.428105
5.28 -0.308978
5.29 -0.176731
5.3 -0.0353435
5.31 0.113271
5.32 0.265417
5.33 0.417535
5.34 0.565047
5.35 0.704652
5.36 0.831031
5.37 0.941239
5.38 1.03179
5.39 1.09852
5.4 1.14197
5.41 1.15669
5.42 1.14619
5.43 1.10872
5.44 1.04618
5.45 0.961809
5.46 0.856247
5.47 0.735609
5.48 0.601984
5.49 0.460721
5.5 0.315649
5.51 0.171126
5.52 0.0305063
5.53 -0.10177
5.54 -0.224109
5.55 -0.333601
5.56 -0.428931
5.57 -0.510165
5.58 -0.575521
5.59 -0.627616
5.6 -0.665768
5.61 -0.69253
5.62 -0.709254
5.63 -0.717359
5.64 -0.719282
5.65 -0.715735
5.66 -0.708764
5.67 -0.699031
5.68 -0.687273
5.69 -0.673858
5.7 -0.658541
5.71 -0.641275
5.72 -0.621259
5.73 -0.598058
5.74 -0.571025
5.75 -0.539354
5.76 -0.503194
5.77 -0.46166
5.78 -0.415686
5.79 -0.365422
5.8 -0.311892
5.81 -0.256361
5.82 -0.200277
5.83 -0.14531
5.84 -0.0934863
5.85 -0.046445
5.86 -0.00586706
5.87 0.0262122
5.88 0.0495592
5.89 0.0616934
5.9 0.0636627
5.91 0.0545444
5.92 0.0349084
5.93 0.00599821
5.94 -0.0320472
5.95 -0.076684
5.96 -0.12712
5.97 -0.181151
5.98 -0.237251
5.99 -0.293761
6 -0.349369
6.01 -0.40261
6.02 -0.452948
6.03 -0.49961
6.04 -0.542397
6.05 -0.581568
6.06 -0.617026
6.07 -0.649742
6.08 -0.68
6.09 -0.708679
6.1 -0.73635
6.11 -0.763556
6.12 -0.790696
6.13 -0.817981
6.14 -0.845381
6.15 -0.872697
6.16 -0.899509
6.17 -0.925368
6.18 -0.949465
6.19 -0.971448
6.2 -0.990449
6.21 -1.00623
6.22 -1.0185
6.23 -1.027
6.24 -1.03228
6.25 -1.03426
6.26 -1.03398
6.27 -1.03198
6.28 -1.02914
6.29 -1.02621
6.3 -1.02392
6.31 -1.02254
6.32 -1.02222
6.33 -1.02242
6.34 -1.02226
6.35 -1.02
6.36 -1.01396
6.37 -1.00048
6.38 -0.977416
6.39 -0.940489
6.4 -0.88581
6.41 -0.810854
6.42 -0.708894
6.43 -0.580408
6.44 -0.419097
6.45 -0.225491
6.46 0.00166709
6.47 0.263888
6.48 0.556098
6.49 0.880096
6.5 1.22742
6.51 1.59471
6.52 1.97458
6.53 2.3595
6.54 2.74066
6.55 3.11025
6.56 3.45751
6.57 3.77504
6.58 4.05481
6.59 4.28652
6.6 4.4696
6.61 4.59036
6.62 4.65385
6.63 4.65367
6.64 4.59074
6.65 4.47006
6.66 4.28838
6.67 4.05865
6.68 3.7812
6.69 3.46741
6.7 3.12455
6.71 2.76081
6.72 2.38643
6.73 2.00953
6.74 1.63873
6.75 1.28189
6.76 0.946028
6.77 0.635028
6.78 0.35695
6.79 0.110232
6.8 -0.0992544
6.81 -0.273832
6.82 -0.413735
6.83 -0.518958
6.84 -0.595472
6.85 -0.642085
6.86 -0.66642
6.87 -0.6704
6.88 -0.658527
6.89 -0.635132
6.9 -0.602838
6.91 -0.565881
6.92 -0.52652
6.93 -0.487308
6.94 -0.44991
6.95 -0.415889
6.96 -0.385679
6.97 -0.360487
6.98 -0.339854
6.99 -0.324148
7 -0.31316
7.01 -0.306443
7.02 -0.304297
7.03 -0.305942
7.04 -0.311759
7.05 -0.321399
7.06 -0.334933
7.07 -0.35266
7.08 -0.374214
7.09 -0.400299
7.1 -0.430308
7.11 -0.464454
7.12 -0.502424
7.13 -0.543641
7.14 -0.587871
7.15 -0.634013
7.16 -0.681411
7.17 -0.728955
7.18 -0.775678
7.19 -0.820372
7.2 -0.862358
7.21 -0.900195
7.22 -0.933722
7.23 -0.962096
7.24 -0.985085
7.25 -1.00297
7.26 -1.01538
7.27 -1.02348
7.28 -1.02742
7.29 -1.02833
7.3 -1.02701
7.31 -1.02431
7.32 -1.02109
7.33 -1.01799
7.34 -1.01541
7.35 -1.01351
7.36 -1.01208
7.37 -1.01061
7.38 -1.00811
7.39 -1.00359
7.4 -0.995277
7.41 -0.981739
7.42 -0.961288
7.43 -0.93157
7.44 -0.892075
7.45 -0.839548
7.46 -0.774574
7.47 -0.695435
7.48 -0.601993
7.49 -0.495287
7.5 -0.374552
7.51 -0.243
7.52 -0.101223
7.53 0.0475182
7.54 0.200664
7.55 0.35498
7.56 0.507338
7.57 0.653596
7.58 0.791219
7.59 0.916448
7.6 1.02629
7.61 1.11939
7.62 1.19129
7.63 1.24348
7.64 1.27253
7.65 1.27987
7.66 1.26562
7.67 1.22956
7.68 1.17534
7.69 1.10208
7.7 1.01457
7.71 0.914146
7.72 0.803923
7.73 0.687059
7.74 0.566001
7.75 0.444012
7.76 0.323771
7.77 0.207772
7.78 0.0981704
7.79 -0.00244766
7.8 -0.0935331
7.81 -0.172008
7.82 -0.238537
7.83 -0.291554
7.84 -0.330865
7.85 -0.357298
7.86 -0.369612
7.87 -0.370383
7.88 -0.359152
7.89 -0.338108
7.9 -0.308581
7.91 -0.272002
7.92 -0.230843
7.93 -0.186612
7.94 -0.141795
7.95 -0.0983726
7.96 -0.0585425
7.97 -0.0238335
7.98 0.00310228
7.99 0.0219067
8 0.0303153
8.01 0.0282167
8.02 0.0151256
8.03 -0.00962339
8.04 -0.0444155
8.05 -0.0900091
8.06 -0.143826
8.07 -0.205077
8.08 -0.271832
8.09 -0.342071
8.1 -0.414014
8.11 -0.485597
8.12 -0.55491
8.13 -0.620452
8.14 -0.680975
8.15 -0.735109
8.16 -0.783012
8.17 -0.823447
8.18 -0.857574
8.19 -0.885411
8.2 -0.90786
8.21 -0.926112
8.22 -0.940806
8.23 -0.953378
8.24 -0.964428
8.25 -0.974665
8.26 -0.984276
8.27 -0.992964
8.28 -1.00017
8.29 -1.00425
8.3 -1.00386
8.31 -0.996519
8.32 -0.979517
8.33 -0.950903
8.34 -0.905854
8.35 -0.84394
8.36 -0.760367
8.37 -0.654468
8.38 -0.52469
8.39 -0.368778
8.4 -0.189683
8.41 0.0151598
8.42 0.240289
8.43 0.484246
8.44 0.742483
8.45 1.00973
8.46 1.28078
8.47 1.5493
8.48 1.80834
8.49 2.05183
8.5 2.27385
8.51 2.46661
8.52 2.62861
8.53 2.75003
8.54 2.83289
8.55 2.87224
8.56 2.86751
8.57 2.82172
8.58 2.73135
8.59 2.60519
8.6 2.44266
8.61 2.25128
8.62 2.03589
8.63 1.8016
8.64 1.55596
8.65 1.30391
8.66 1.05212
8.67 0.805842
8.68 0.570272
8.69 0.348468
8.7 0.146009
8.71 -0.0374715
8.72 -0.198012
8.73 -0.336559
8.74 -0.45316
8.75 -0.547485
8.76 -0.623327
8.77 -0.679895
8.78 -0.722009
8.79 -0.751026
8.8 -0.769859
8.81 -0.781435
8.82 -0.78754
8.83 -0.790982
8.84 -0.793336
8.85 -0.796259
8.86 -0.800823
8.87 -0.808008
8.88 -0.817935
8.89 -0.831205
8.9 -0.847263
8.91 -0.865994
8.92 -0.886857
8.93 -0.909198
8.94 -0.932503
8.95 -0.95605
8.96 -0.979276
8.97 -1.00168
8.98 -1.02287
8.99 -1.04244
9 -1.06038
9.01 -1.07629
9.02 -1.09042
9.03 -1.10266
9.04 -1.11311
9.05 -1.12195
9.06 -1.12907
9.07 -1.13474
9.08 -1.13877
9.09 -1.14118
9.1 -1.14182
9.11 -1.1403
9.12 -1.13658
9.13 -1.12982
9.14 -1.11997
9.15 -1.10631
9.16 -1.08829
9.17 -1.06574
9.18 -1.03754
9.19 -1.00412
9.2 -0.964583
9.21 -0.919253
9.22 -0.868197
9.23 -0.811389
9.24 -0.749928
9.25 -0.683882
9.26 -0.6148
9.27 -0.543578
9.28 -0.471679
9.29 -0.400472
9.3 -0.331837
9.31 -0.266943
9.32 -0.207871
9.33 -0.155759
9.34 -0.111843
9.35 -0.0778413
9.36 -0.05339
9.37 -0.0405606
9.38 -0.0379804
9.39 -0.0461446
9.4 -0.0643076
9.41 -0.0909532
9.42 -0.125729
9.43 -0.166018
9.44 -0.210699
9.45 -0.257511
9.46 -0.304695
9.47 -0.350223
9.48 -0.392753
9.49 -0.430184
9.5 -0.462021
9.51 -0.487097
9.52 -0.505007
9.53 -0.516192
9.54 -0.520179
9.55 -0.518665
9.56 -0.512032
9.57 -0.501964
9.58 -0.489781
9.59 -0.477024
9.6 -0.465098
9.61 -0.45566
9.62 -0.449579
9.63 -0.448003
9.64 -0.451614
9.65 -0.460391
9.66 -0.47506
9.67 -0.49454
9.68 -0.518882
9.69 -0.546978
9.7 -0.578005
9.71 -0.611069
9.72 -0.645055
9.73 -0.679077
9.74 -0.712302
9.75 -0.744003
9.76 -0.773587
9.77 -0.800814
9.78 -0.82501
9.79 -0.846354
9.8 -0.864222
9.81 -0.878488
9.82 -0.888678
9.83 -0.893703
9.84 -0.893192
9.85 -0.884708
9.86 -0.867486
9.87 -0.83885
9.88 -0.796191
9.89 -0.737994
9.9 -0.658919
9.91 -0.559175
9.92 -0.433471
9.93 -0.281146
9.94 -0.100531
9.95 0.111361
9.96 0.351222
9.97 0.622623
9.98 0.919638
9.99 1.24111
10 1.58236
10.01 1.93735
10.02 2.30077
10.03 2.6647
10.04 3.02136
10.05 3.36292
10.06 3.68196
10.07 3.96842
10.08 4.2195
10.09 4.42256
10.1 4.57857
10.11 4.68058
10.12 4.72632
10.13 4.71884
10.14 4.65195
10.15 4.53636
10.16 4.37014
10.17 4.16222
10.18 3.9185
10.19 3.64471
10.2 3.35115
10.21 3.04341
10.22 2.73102
10.23 2.42066
10.24 2.11951
10.25 1.83212
10.26 1.56568
10.27 1.32058
10.28 1.10173
10.29 0.908438
10.3 0.74057
10.31 0.598477
10.32 0.477436
10.33 0.377803
10.34 0.293715
10.35 0.222963
10.36 0.161764
10.37 0.106509
10.38 0.0545925
10.39 0.00311952
10.4 -0.0499054
10.41 -0.105865
10.42 -0.165518
10.43 -0.229388
10.44 -0.296763
10.45 -0.36743
10.46 -0.439945
10.47 -0.51323
10.48 -0.585813
10.49 -0.656515
10.5 -0.723621
10.51 -0.786574
10.52 -0.843951
10.53 -0.895441
10.54 -0.940688
10.55 -0.979117
10.56 -1.01155
10.57 -1.0373
10.58 -1.05755
10.59 -1.07235
10.6 -1.08217
10.61 -1.08774
10.62 -1.08885
10.63 -1.0864
10.64 -1.08013
10.65 -1.07039
10.66 -1.05722
10.67 -1.0404
10.68 -1.02032
10.69 -0.996507
10.7 -0.969533
10.71 -0.939385
10.72 -0.906442
10.73 -0.871331
10.74 -0.834482
10.75 -0.796887
10.76 -0.759374
10.77 -0.722969
10.78 -0.688626
10.79 -0.657628
10.8 -0.630485
10.81 -0.608777
10.82 -0.592558
10.83 -0.582722
10.84 -0.579624
10.85 -0.582913
10.86 -0.593342
10.87 -0.609588
10.88 -0.631816
10.89 -0.658902
10.9 -0.690063
10.91 -0.724538
10.92 -0.761077
10.93 -0.798939
10.94 -0.837034
10.95 -0.874568
10.96 -0.910737
10.97 -0.945078
10.98 -0.976786
10.99 -1.0059
11 -1.0319
11.01 -1.0549
11.02 -1.07491
11.03 -1.09189
11.04 -1.10632
11.05 -1.11809
11.06 -1.12779
11.07 -1.13556
11.08 -1.1417
11.09 -1.14659
11.1 -1.15033
11.11 -1.15328
11.12 -1.15552
11.13 -1.15719
11.14 -1.15832
11.15 -1.15879
11.16 -1.15851
11.17 -1.15698
11.18 -1.1539
11.19 -1.14852
11.2 -1.13995
11.21 -1.1275
11.22 -1.10924
11.23 -1.08468
11.24 -1.05153
11.25 -1.00866
11.26 -0.954574
11.27 -0.886743
11.28 -0.805372
11.29 -0.706922
11.3 -0.592524
11.31 -0.460577
11.32 -0.310985
11.33 -0.145382
11.34 0.0372455
11.35 0.232834
11.36 0.440518
11.37 0.656355
11.38 0.876976
11.39 1.09812
11.4 1.31567
11.41 1.52384
11.42 1.71898
11.43 1.89576
11.44 2.04937
11.45 2.1779
11.46 2.27402
11.47 2.33987
11.48 2.37008
11.49 2.36618
11.5 2.32859
11.51 2.25645
11.52 2.15574
11.53 2.02538
11.54 1.87288
11.55 1.70103
11.56 1.51501
11.57 1.3203
11.58 1.12137
11.59 0.92337
11.6 0.730875
11.61 0.547546
11.62 0.376254
11.63 0.220494
11.64 0.0799273
11.65 -0.0422457
11.66 -0.148331
11.67 -0.238035
11.68 -0.312846
11.69 -0.375484
11.7 -0.42675
11.71 -0.470531
11.72 -0.508366
11.73 -0.543005
11.74 -0.576315
11.75 -0.610024
11.76 -0.645148
11.77 -0.682621
11.78 -0.722262
11.79 -0.7638
11.8 -0.806258
11.81 -0.848386
11.82 -0.888248
11.83 -0.924361
11.84 -0.954236
11.85 -0.976159
11.86 -0.98842
11.87 -0.988457
11.88 -0.976392
11.89 -0.949195
11.9 -0.908087
11.91 -0.852013
11.92 -0.781248
11.93 -0.69747
11.94 -0.600115
11.95 -0.492542
11.96 -0.375368
11.97 -0.251355
11.98 -0.122631
11.99 0.00847666
12 0.139482
12.01 0.267708
12.02 0.391138
12.03 0.507346
12.04 0.614101
12.05 0.710441
12.06 0.793079
12.07 0.862725
12.08 0.916812
12.09 0.955596
12.1 0.978857
12.11 0.985497
12.12 0.977709
12.13 0.953952
12.14 0.917107
12.15 0.86752
12.16 0.806751
12.17 0.737094
12.18 0.659358
12.19 0.576528
12.2 0.489977
12.21 0.401956
12.22 0.314172
12.23 0.228529
12.24 0.146126
12.25 0.0688056
12.26 -0.0031261
12.27 -0.0687664
12.28 -0.127814
12.29 -0.180796
12.3 -0.227258
12.31 -0.268726
12.32 -0.305449
12.33 -0.338733
12.34 -0.36956
12.35 -0.3989
12.36 -0.42777
12.37 -0.456935
12.38 -0.486888
12.39 -0.517909
12.4 -0.549922
