# xPDFsuite Configuration #
[PDF]
wavelength = 0.1432
dataformat = twotheta
inputfile = 1_1Pd_CeO2_cycle-00341.chi
backgroundfile = background-00000.chi
mode = xray
bgscale = 1.007
composition = CeO2
outputtype = gr
qmaxinst = 28.8974762299
qmin = 0.5
qmax = 27.9
rmax = 50.0
rmin = 0.0
rstep = 0.01
rpoly = 1.8657

[Misc]
inputdir = G:/SankarDec16/1Pd/Chi
savedir = D:/DATA/APS_CeO2/1Pd
backgroundfilefull = G:/SankarDec16/Background/background-00000.chi

#### start data
#S 1
#L r($\AA$)  G($\AA^{-2}$)
0 0
0.01 -0.00654054
0.02 -0.0125866
0.03 -0.0176293
0.04 -0.0212854
0.05 -0.0233422
0.06 -0.023458
0.07 -0.0218622
0.08 -0.0184466
0.09 -0.0136484
0.1 -0.00777081
0.11 -0.00127727
0.12 0.00532902
0.13 0.0114815
0.14 0.0167825
0.15 0.0207427
0.16 0.0230785
0.17 0.0236783
0.18 0.0223129
0.19 0.0193216
0.2 0.014723
0.21 0.00902801
0.22 0.00261526
0.23 -0.00399445
0.24 -0.0103289
0.25 -0.0157778
0.26 -0.0200599
0.27 -0.0227307
0.28 -0.0236197
0.29 -0.0227228
0.3 -0.0199349
0.31 -0.0156885
0.32 -0.0101283
0.33 -0.00381373
0.34 0.00282015
0.35 0.00922068
0.36 0.0149705
0.37 0.0194463
0.38 0.0224973
0.39 0.0237464
0.4 0.0231451
0.41 0.0207975
0.42 0.0167282
0.43 0.0114419
0.44 0.00520223
0.45 -0.00141015
0.46 -0.00792584
0.47 -0.0137875
0.48 -0.0186541
0.49 -0.0219204
0.5 -0.0235743
0.51 -0.0233253
0.52 -0.0212503
0.53 -0.0175565
0.54 -0.0123982
0.55 -0.00632694
0.56 0.000287106
0.57 0.00687111
0.58 0.0129448
0.59 0.0179739
0.6 0.0217115
0.61 0.023601
0.62 0.0237703
0.63 0.0220308
0.64 0.0185816
0.65 0.0137232
0.66 0.00773273
0.67 0.00118126
0.68 -0.00547285
0.69 -0.011693
0.7 -0.0170124
0.71 -0.0209465
0.72 -0.0233554
0.73 -0.0237593
0.74 -0.0224202
0.75 -0.0192606
0.76 -0.0145919
0.77 -0.00879257
0.78 -0.00224767
0.79 0.00448166
0.8 0.010874
0.81 0.016457
0.82 0.0208032
0.83 0.0235045
0.84 0.0245357
0.85 0.0235218
0.86 0.0208441
0.87 0.0165419
0.88 0.0110211
0.89 0.00471615
0.9 -0.00190301
0.91 -0.00832044
0.92 -0.0139871
0.93 -0.0185285
0.94 -0.0215907
0.95 -0.0228794
0.96 -0.0224952
0.97 -0.0202161
0.98 -0.0165275
0.99 -0.0116091
1 -0.00595472
1.01 -3.93583e-05
1.02 0.00557954
1.03 0.0104732
1.04 0.0140723
1.05 0.0161414
1.06 0.0164276
1.07 0.0147854
1.08 0.0114759
1.09 0.00647506
1.1 0.000403996
1.11 -0.0063673
1.12 -0.0132125
1.13 -0.0195789
1.14 -0.0247393
1.15 -0.0283387
1.16 -0.0296826
1.17 -0.0286511
1.18 -0.0250238
1.19 -0.0187231
1.2 -0.0101838
1.21 0.000568981
1.22 0.0126973
1.23 0.0257166
1.24 0.038834
1.25 0.0513602
1.26 0.0623908
1.27 0.0714764
1.28 0.0777259
1.29 0.0809371
1.3 0.0807523
1.31 0.0769285
1.32 0.0698915
1.33 0.0593662
1.34 0.0462767
1.35 0.0308963
1.36 0.0139773
1.37 -0.0037833
1.38 -0.021658
1.39 -0.0389752
1.4 -0.0549693
1.41 -0.0691785
1.42 -0.0811178
1.43 -0.0903256
1.44 -0.0968786
1.45 -0.100203
1.46 -0.100797
1.47 -0.0985021
1.48 -0.0936129
1.49 -0.0864643
1.5 -0.0771518
1.51 -0.0662524
1.52 -0.0538945
1.53 -0.0405478
1.54 -0.0264858
1.55 -0.0120264
1.56 0.00252032
1.57 0.0168239
1.58 0.0306226
1.59 0.0435633
1.6 0.0553307
1.61 0.0656755
1.62 0.0740743
1.63 0.0804788
1.64 0.0842996
1.65 0.0855091
1.66 0.0838534
1.67 0.0791049
1.68 0.0715648
1.69 0.0608738
1.7 0.0477368
1.71 0.0322761
1.72 0.0150908
1.73 -0.00319832
1.74 -0.0219259
1.75 -0.0403404
1.76 -0.0576013
1.77 -0.073073
1.78 -0.0861068
1.79 -0.0960447
1.8 -0.102884
1.81 -0.10591
1.82 -0.105747
1.83 -0.102357
1.84 -0.0963554
1.85 -0.0884581
1.86 -0.0793881
1.87 -0.0701506
1.88 -0.0617234
1.89 -0.0549749
1.9 -0.0507172
1.91 -0.0497691
1.92 -0.0521938
1.93 -0.0587901
1.94 -0.0688436
1.95 -0.0823144
1.96 -0.0984002
1.97 -0.116176
1.98 -0.134586
1.99 -0.152404
2 -0.168202
2.01 -0.180878
2.02 -0.189279
2.03 -0.192181
2.04 -0.189497
2.05 -0.17977
2.06 -0.163934
2.07 -0.141601
2.08 -0.113504
2.09 -0.0805864
2.1 -0.043442
2.11 -0.00366591
2.12 0.0378624
2.13 0.0798083
2.14 0.121211
2.15 0.161108
2.16 0.199099
2.17 0.234457
2.18 0.267515
2.19 0.298257
2.2 0.327224
2.21 0.355054
2.22 0.38244
2.23 0.410126
2.24 0.438844
2.25 0.469001
2.26 0.500856
2.27 0.534396
2.28 0.569079
2.29 0.604208
2.3 0.638605
2.31 0.6708
2.32 0.699089
2.33 0.722026
2.34 0.737005
2.35 0.743498
2.36 0.738841
2.37 0.722931
2.38 0.694917
2.39 0.654244
2.4 0.602629
2.41 0.539414
2.42 0.467907
2.43 0.389367
2.44 0.306639
2.45 0.222375
2.46 0.139606
2.47 0.0607163
2.48 -0.0110979
2.49 -0.0742483
2.5 -0.126974
2.51 -0.167701
2.52 -0.197287
2.53 -0.214132
2.54 -0.221023
2.55 -0.218484
2.56 -0.208892
2.57 -0.194652
2.58 -0.178081
2.59 -0.161828
2.6 -0.148399
2.61 -0.139624
2.62 -0.137087
2.63 -0.142165
2.64 -0.154456
2.65 -0.174959
2.66 -0.20167
2.67 -0.233873
2.68 -0.269555
2.69 -0.306732
2.7 -0.343153
2.71 -0.376966
2.72 -0.405849
2.73 -0.428684
2.74 -0.444359
2.75 -0.452055
2.76 -0.452677
2.77 -0.445803
2.78 -0.43374
2.79 -0.417625
2.8 -0.399676
2.81 -0.381905
2.82 -0.366732
2.83 -0.355635
2.84 -0.350852
2.85 -0.352999
2.86 -0.362775
2.87 -0.380443
2.88 -0.404614
2.89 -0.434985
2.9 -0.468934
2.91 -0.504738
2.92 -0.539863
2.93 -0.572199
2.94 -0.598926
2.95 -0.619005
2.96 -0.630045
2.97 -0.631992
2.98 -0.624498
2.99 -0.607778
3 -0.583853
3.01 -0.553553
3.02 -0.520056
3.03 -0.485592
3.04 -0.453094
3.05 -0.424868
3.06 -0.404067
3.07 -0.391501
3.08 -0.389639
3.09 -0.398136
3.1 -0.417038
3.11 -0.445709
3.12 -0.481666
3.13 -0.523585
3.14 -0.567954
3.15 -0.612164
3.16 -0.653097
3.17 -0.68845
3.18 -0.715028
3.19 -0.732436
3.2 -0.738509
3.21 -0.734197
3.22 -0.720056
3.23 -0.697515
3.24 -0.669555
3.25 -0.638592
3.26 -0.608292
3.27 -0.582003
3.28 -0.563055
3.29 -0.553646
3.3 -0.55726
3.31 -0.573393
3.32 -0.604048
3.33 -0.647204
3.34 -0.70148
3.35 -0.764367
3.36 -0.831907
3.37 -0.900365
3.38 -0.965438
3.39 -1.02275
3.4 -1.06844
3.41 -1.10019
3.42 -1.11398
3.43 -1.11118
3.44 -1.08983
3.45 -1.0531
3.46 -1.00325
3.47 -0.94394
3.48 -0.880274
3.49 -0.8173
3.5 -0.760026
3.51 -0.713686
3.52 -0.682388
3.53 -0.668097
3.54 -0.67435
3.55 -0.698115
3.56 -0.739347
3.57 -0.792159
3.58 -0.851065
3.59 -0.907754
3.6 -0.954396
3.61 -0.978055
3.62 -0.972008
3.63 -0.923919
3.64 -0.825201
3.65 -0.671465
3.66 -0.450402
3.67 -0.168241
3.68 0.183114
3.69 0.594446
3.7 1.06105
3.71 1.575
3.72 2.12065
3.73 2.68713
3.74 3.25563
3.75 3.80972
3.76 4.33116
3.77 4.80623
3.78 5.21197
3.79 5.54475
3.8 5.78327
3.81 5.92743
3.82 5.97119
3.83 5.90927
3.84 5.75508
3.85 5.50003
3.86 5.16785
3.87 4.76319
3.88 4.30278
3.89 3.80321
3.9 3.27825
3.91 2.74629
3.92 2.22236
3.93 1.72008
3.94 1.25107
3.95 0.827469
3.96 0.450909
3.97 0.134342
3.98 -0.129156
3.99 -0.335602
4 -0.489569
4.01 -0.598002
4.02 -0.662886
4.03 -0.696823
4.04 -0.703793
4.05 -0.694048
4.06 -0.67407
4.07 -0.650564
4.08 -0.628713
4.09 -0.613454
4.1 -0.606526
4.11 -0.609985
4.12 -0.623701
4.13 -0.646269
4.14 -0.676545
4.15 -0.711113
4.16 -0.747479
4.17 -0.782359
4.18 -0.813005
4.19 -0.836382
4.2 -0.851384
4.21 -0.854909
4.22 -0.847769
4.23 -0.82882
4.24 -0.798726
4.25 -0.758808
4.26 -0.709331
4.27 -0.652934
4.28 -0.590325
4.29 -0.523594
4.3 -0.453955
4.31 -0.382557
4.32 -0.310381
4.33 -0.237989
4.34 -0.165753
4.35 -0.0938212
4.36 -0.0221968
4.37 0.049173
4.38 0.120255
4.39 0.190964
4.4 0.260898
4.41 0.329516
4.42 0.395984
4.43 0.458952
4.44 0.51756
4.45 0.569326
4.46 0.613606
4.47 0.648161
4.48 0.671595
4.49 0.68331
4.5 0.680893
4.51 0.665742
4.52 0.636135
4.53 0.593766
4.54 0.539324
4.55 0.47385
4.56 0.400141
4.57 0.319236
4.58 0.234466
4.59 0.147827
4.6 0.0618823
4.61 -0.0214317
4.62 -0.0996597
4.63 -0.17205
4.64 -0.236698
4.65 -0.293606
4.66 -0.342496
4.67 -0.383305
4.68 -0.417462
4.69 -0.444924
4.7 -0.467777
4.71 -0.486837
4.72 -0.503529
4.73 -0.519024
4.74 -0.534306
4.75 -0.550112
4.76 -0.567009
4.77 -0.585108
4.78 -0.604352
4.79 -0.624441
4.8 -0.644834
4.81 -0.664871
4.82 -0.683932
4.83 -0.701297
4.84 -0.716398
4.85 -0.728973
4.86 -0.73847
4.87 -0.745285
4.88 -0.749273
4.89 -0.751072
4.9 -0.751161
4.91 -0.750192
4.92 -0.748912
4.93 -0.748061
4.94 -0.748198
4.95 -0.749896
4.96 -0.75349
4.97 -0.759023
4.98 -0.766674
4.99 -0.775949
5 -0.78666
5.01 -0.798178
5.02 -0.809997
5.03 -0.821512
5.04 -0.832299
5.05 -0.84178
5.06 -0.849877
5.07 -0.85637
5.08 -0.861354
5.09 -0.865084
5.1 -0.867761
5.11 -0.869859
5.12 -0.871652
5.13 -0.873415
5.14 -0.875211
5.15 -0.876854
5.16 -0.877947
5.17 -0.877497
5.18 -0.874591
5.19 -0.867597
5.2 -0.854737
5.21 -0.834581
5.22 -0.804
5.23 -0.762555
5.24 -0.706992
5.25 -0.637001
5.26 -0.551496
5.27 -0.449379
5.28 -0.332746
5.29 -0.20048
5.3 -0.0567129
5.31 0.0968765
5.32 0.256389
5.33 0.41786
5.34 0.57641
5.35 0.727947
5.36 0.866545
5.37 0.988467
5.38 1.08953
5.39 1.16473
5.4 1.21428
5.41 1.23182
5.42 1.22101
5.43 1.17973
5.44 1.11004
5.45 1.0156
5.46 0.897229
5.47 0.761982
5.48 0.612471
5.49 0.454972
5.5 0.294069
5.51 0.13501
5.52 -0.0183503
5.53 -0.16061
5.54 -0.29013
5.55 -0.40352
5.56 -0.499454
5.57 -0.578283
5.58 -0.638209
5.59 -0.682684
5.6 -0.711342
5.61 -0.727561
5.62 -0.733323
5.63 -0.730776
5.64 -0.722878
5.65 -0.711074
5.66 -0.697585
5.67 -0.683458
5.68 -0.669489
5.69 -0.655871
5.7 -0.642355
5.71 -0.628303
5.72 -0.612646
5.73 -0.594345
5.74 -0.572281
5.75 -0.545101
5.76 -0.512615
5.77 -0.473407
5.78 -0.428367
5.79 -0.377426
5.8 -0.321669
5.81 -0.262583
5.82 -0.201765
5.83 -0.141385
5.84 -0.0838236
5.85 -0.031212
5.86 0.0143541
5.87 0.0503692
5.88 0.0764211
5.89 0.0895739
5.9 0.091006
5.91 0.0796866
5.92 0.0563711
5.93 0.0226154
5.94 -0.0211827
5.95 -0.0719626
5.96 -0.128513
5.97 -0.188164
5.98 -0.249
5.99 -0.308934
6 -0.366571
6.01 -0.420069
6.02 -0.469135
6.03 -0.512996
6.04 -0.551752
6.05 -0.586048
6.06 -0.616183
6.07 -0.643642
6.08 -0.669232
6.09 -0.694267
6.1 -0.719705
6.11 -0.746499
6.12 -0.775019
6.13 -0.805821
6.14 -0.838475
6.15 -0.872686
6.16 -0.907601
6.17 -0.942271
6.18 -0.975344
6.19 -1.00589
6.2 -1.03238
6.21 -1.05412
6.22 -1.07038
6.23 -1.08046
6.24 -1.08502
6.25 -1.0836
6.26 -1.0778
6.27 -1.06831
6.28 -1.05658
6.29 -1.04397
6.3 -1.0319
6.31 -1.02133
6.32 -1.01319
6.33 -1.00749
6.34 -1.00382
6.35 -1.00097
6.36 -0.997061
6.37 -0.988835
6.38 -0.973429
6.39 -0.946308
6.4 -0.902819
6.41 -0.839623
6.42 -0.749008
6.43 -0.630591
6.44 -0.476907
6.45 -0.287756
6.46 -0.0611417
6.47 0.205278
6.48 0.506224
6.49 0.844327
6.5 1.21018
6.51 1.60033
6.52 2.00648
6.53 2.42007
6.54 2.8312
6.55 3.2307
6.56 3.60636
6.57 3.94951
6.58 4.25088
6.59 4.49877
6.6 4.69233
6.61 4.81625
6.62 4.8762
6.63 4.86523
6.64 4.78467
6.65 4.64045
6.66 4.42959
6.67 4.16683
6.68 3.85336
6.69 3.50223
6.7 3.12202
6.71 2.72246
6.72 2.31482
6.73 1.90888
6.74 1.51361
6.75 1.13786
6.76 0.789007
6.77 0.47069
6.78 0.191481
6.79 -0.0514212
6.8 -0.252174
6.81 -0.414319
6.82 -0.53892
6.83 -0.626915
6.84 -0.685375
6.85 -0.714021
6.86 -0.72129
6.87 -0.709843
6.88 -0.684716
6.89 -0.650413
6.9 -0.610007
6.91 -0.567305
6.92 -0.524647
6.93 -0.484032
6.94 -0.446723
6.95 -0.413794
6.96 -0.385096
6.97 -0.36134
6.98 -0.341639
6.99 -0.325987
7 -0.313937
7.01 -0.305013
7.02 -0.299406
7.03 -0.296657
7.04 -0.297306
7.05 -0.301433
7.06 -0.309493
7.07 -0.322275
7.08 -0.339741
7.09 -0.363173
7.1 -0.392079
7.11 -0.427006
7.12 -0.467723
7.13 -0.513525
7.14 -0.564237
7.15 -0.618252
7.16 -0.674714
7.17 -0.731965
7.18 -0.788584
7.19 -0.842809
7.2 -0.893555
7.21 -0.938752
7.22 -0.978053
7.23 -1.01023
7.24 -1.03489
7.25 -1.05241
7.26 -1.06224
7.27 -1.06607
7.28 -1.06413
7.29 -1.05809
7.3 -1.04915
7.31 -1.03865
7.32 -1.02792
7.33 -1.01813
7.34 -1.00996
7.35 -1.00393
7.36 -1.00005
7.37 -0.997786
7.38 -0.996323
7.39 -0.99429
7.4 -0.98985
7.41 -0.981117
7.42 -0.96604
7.43 -0.941805
7.44 -0.907483
7.45 -0.859272
7.46 -0.797474
7.47 -0.719955
7.48 -0.626318
7.49 -0.517568
7.5 -0.392642
7.51 -0.255099
7.52 -0.105472
7.53 0.0525734
7.54 0.21617
7.55 0.381697
7.56 0.545537
7.57 0.703063
7.58 0.851301
7.59 0.986004
7.6 1.10376
7.61 1.20297
7.62 1.27864
7.63 1.33241
7.64 1.36044
7.65 1.36432
7.66 1.34424
7.67 1.30001
7.68 1.23574
7.69 1.15055
7.7 1.04983
7.71 0.935179
7.72 0.810178
7.73 0.678395
7.74 0.542747
7.75 0.406848
7.76 0.273874
7.77 0.146611
7.78 0.0275262
7.79 -0.0803885
7.8 -0.176627
7.81 -0.257589
7.82 -0.324213
7.83 -0.374739
7.84 -0.409074
7.85 -0.428322
7.86 -0.431211
7.87 -0.420899
7.88 -0.397085
7.89 -0.362498
7.9 -0.318885
7.91 -0.268184
7.92 -0.213316
7.93 -0.156402
7.94 -0.100249
7.95 -0.047339
7.96 -0.000222694
7.97 0.0394651
7.98 0.0685888
7.99 0.0871197
8 0.0925409
8.01 0.0851189
8.02 0.0646126
8.03 0.0306557
8.04 -0.0145312
8.05 -0.0713264
8.06 -0.136503
8.07 -0.208753
8.08 -0.285589
8.09 -0.36462
8.1 -0.443459
8.11 -0.520033
8.12 -0.592021
8.13 -0.658059
8.14 -0.716982
8.15 -0.767558
8.16 -0.810476
8.17 -0.844766
8.18 -0.872262
8.19 -0.893486
8.2 -0.909952
8.21 -0.923299
8.22 -0.934844
8.23 -0.94614
8.24 -0.958286
8.25 -0.971928
8.26 -0.987228
8.27 -1.00379
8.28 -1.02049
8.29 -1.0354
8.3 -1.04639
8.31 -1.05036
8.32 -1.0438
8.33 -1.02417
8.34 -0.985649
8.35 -0.927565
8.36 -0.844275
8.37 -0.735009
8.38 -0.598036
8.39 -0.430896
8.4 -0.237172
8.41 -0.014191
8.42 0.231556
8.43 0.498107
8.44 0.780004
8.45 1.0711
8.46 1.36516
8.47 1.65508
8.48 1.93286
8.49 2.19183
8.5 2.42547
8.51 2.62527
8.52 2.78999
8.53 2.90904
8.54 2.98523
8.55 3.01358
8.56 2.99405
8.57 2.93045
8.58 2.81967
8.59 2.67161
8.6 2.48634
8.61 2.27225
8.62 2.03491
8.63 1.7802
8.64 1.51606
8.65 1.24821
8.66 0.983312
8.67 0.72697
8.68 0.484406
8.69 0.258418
8.7 0.0547328
8.71 -0.127691
8.72 -0.284966
8.73 -0.418604
8.74 -0.529025
8.75 -0.616275
8.76 -0.684589
8.77 -0.733479
8.78 -0.768069
8.79 -0.78994
8.8 -0.802175
8.81 -0.807758
8.82 -0.808604
8.83 -0.807418
8.84 -0.805814
8.85 -0.805334
8.86 -0.806983
8.87 -0.811689
8.88 -0.819462
8.89 -0.8309
8.9 -0.845375
8.91 -0.862784
8.92 -0.882597
8.93 -0.904173
8.94 -0.927083
8.95 -0.950604
8.96 -0.974268
8.97 -0.99758
8.98 -1.02018
8.99 -1.04168
9 -1.06198
9.01 -1.08072
9.02 -1.09799
9.03 -1.1136
9.04 -1.12749
9.05 -1.13972
9.06 -1.14998
9.07 -1.1584
9.08 -1.16461
9.09 -1.16851
9.1 -1.16984
9.11 -1.16807
9.12 -1.16319
9.13 -1.15423
9.14 -1.14129
9.15 -1.12363
9.16 -1.10086
9.17 -1.07296
9.18 -1.03895
9.19 -0.999497
9.2 -0.953898
9.21 -0.902713
9.22 -0.846214
9.23 -0.784634
9.24 -0.719172
9.25 -0.650202
9.26 -0.579264
9.27 -0.507418
9.28 -0.436166
9.29 -0.366792
9.3 -0.301274
9.31 -0.2405
9.32 -0.186521
9.33 -0.140203
9.34 -0.10257
9.35 -0.0750797
9.36 -0.0570913
9.37 -0.0503526
9.38 -0.0532603
9.39 -0.0660154
9.4 -0.0876304
9.41 -0.116493
9.42 -0.151937
9.43 -0.191492
9.44 -0.233862
9.45 -0.27697
9.46 -0.319185
9.47 -0.358634
9.48 -0.394341
9.49 -0.424437
9.5 -0.448844
9.51 -0.46674
9.52 -0.478113
9.53 -0.483674
9.54 -0.483417
9.55 -0.479082
9.56 -0.471404
9.57 -0.462035
9.58 -0.452295
9.59 -0.443723
9.6 -0.437359
9.61 -0.434782
9.62 -0.436356
9.63 -0.442912
9.64 -0.454682
9.65 -0.471267
9.66 -0.492896
9.67 -0.518277
9.68 -0.547046
9.69 -0.578
9.7 -0.610239
9.71 -0.642792
9.72 -0.67486
9.73 -0.705602
9.74 -0.734693
9.75 -0.761733
9.76 -0.78662
9.77 -0.809537
9.78 -0.830372
9.79 -0.849557
9.8 -0.866948
9.81 -0.88253
9.82 -0.895916
9.83 -0.906083
9.84 -0.912265
9.85 -0.911901
9.86 -0.903577
9.87 -0.884115
9.88 -0.850198
9.89 -0.799712
9.9 -0.726376
9.91 -0.630043
9.92 -0.504536
9.93 -0.348928
9.94 -0.161258
9.95 0.0618474
9.96 0.316563
9.97 0.606745
9.98 0.925509
9.99 1.27129
10 1.63852
10.01 2.02024
10.02 2.41009
10.03 2.79922
10.04 3.17864
10.05 3.53971
10.06 3.87424
10.07 4.17117
10.08 4.42779
10.09 4.63041
10.1 4.78066
10.11 4.87143
10.12 4.90086
10.13 4.87289
10.14 4.78159
10.15 4.63905
10.16 4.44402
10.17 4.20659
10.18 3.9336
10.19 3.6318
10.2 3.31215
10.21 2.98132
10.22 2.64902
10.23 2.32255
10.24 2.00933
10.25 1.71366
10.26 1.44316
10.27 1.19736
10.28 0.981215
10.29 0.793321
10.3 0.633056
10.31 0.500297
10.32 0.389626
10.33 0.300981
10.34 0.227946
10.35 0.167929
10.36 0.116785
10.37 0.0707296
10.38 0.0268455
10.39 -0.0176855
10.4 -0.0650197
10.41 -0.116428
10.42 -0.172606
10.43 -0.234045
10.44 -0.299821
10.45 -0.369737
10.46 -0.442144
10.47 -0.515931
10.48 -0.589549
10.49 -0.661736
10.5 -0.730791
10.51 -0.796059
10.52 -0.856119
10.53 -0.91059
10.54 -0.959058
10.55 -1.00087
10.56 -1.03674
10.57 -1.06583
10.58 -1.08921
10.59 -1.10672
10.6 -1.11867
10.61 -1.12565
10.62 -1.12718
10.63 -1.12417
10.64 -1.11613
10.65 -1.10344
10.66 -1.08613
10.67 -1.06397
10.68 -1.03759
10.69 -1.00657
10.7 -0.971821
10.71 -0.933549
10.72 -0.892468
10.73 -0.849492
10.74 -0.805461
10.75 -0.761562
10.76 -0.719013
10.77 -0.678998
10.78 -0.642627
10.79 -0.611407
10.8 -0.585673
10.81 -0.567217
10.82 -0.555746
10.83 -0.55208
10.84 -0.556313
10.85 -0.567755
10.86 -0.58691
10.87 -0.61205
10.88 -0.643014
10.89 -0.678343
10.9 -0.716973
10.91 -0.757797
10.92 -0.79949
10.93 -0.84094
10.94 -0.881149
10.95 -0.919177
10.96 -0.954241
10.97 -0.986051
10.98 -1.01374
10.99 -1.03774
11 -1.05758
11.01 -1.07371
11.02 -1.0864
11.03 -1.09586
11.04 -1.10288
11.05 -1.10766
11.06 -1.11101
11.07 -1.11337
11.08 -1.11528
11.09 -1.11721
11.1 -1.11962
11.11 -1.12275
11.12 -1.12691
11.13 -1.13214
11.14 -1.1384
11.15 -1.14553
11.16 -1.15308
11.17 -1.1605
11.18 -1.16701
11.19 -1.17156
11.2 -1.17283
11.21 -1.16973
11.22 -1.15979
11.23 -1.14223
11.24 -1.11417
11.25 -1.07422
11.26 -1.0206
11.27 -0.950369
11.28 -0.863922
11.29 -0.757275
11.3 -0.632036
11.31 -0.48663
11.32 -0.321319
11.33 -0.13828
11.34 0.0631331
11.35 0.278087
11.36 0.505114
11.37 0.739554
11.38 0.977414
11.39 1.21362
11.4 1.44376
11.41 1.66112
11.42 1.8621
11.43 2.04089
11.44 2.19259
11.45 2.3156
11.46 2.40229
11.47 2.45568
11.48 2.47051
11.49 2.44906
11.5 2.39237
11.51 2.30024
11.52 2.17935
11.53 2.02939
11.54 1.8584
11.55 1.66978
11.56 1.46923
11.57 1.26236
11.58 1.05423
11.59 0.84967
11.6 0.653517
11.61 0.469091
11.62 0.299013
11.63 0.146553
11.64 0.0107666
11.65 -0.105398
11.66 -0.20485
11.67 -0.287676
11.68 -0.355804
11.69 -0.412257
11.7 -0.458228
11.71 -0.497679
11.72 -0.532389
11.73 -0.565076
11.74 -0.59757
11.75 -0.631561
11.76 -0.667792
11.77 -0.7071
11.78 -0.74898
11.79 -0.79295
11.8 -0.837762
11.81 -0.881968
11.82 -0.92335
11.83 -0.960339
11.84 -0.990231
11.85 -1.01127
11.86 -1.0217
11.87 -1.01889
11.88 -1.00311
11.89 -0.971254
11.9 -0.924754
11.91 -0.862617
11.92 -0.785259
11.93 -0.694525
11.94 -0.58997
11.95 -0.475136
11.96 -0.350791
11.97 -0.219855
11.98 -0.0845931
11.99 0.052474
12 0.1888
12.01 0.32146
12.02 0.448425
12.03 0.56711
12.04 0.675185
12.05 0.771711
12.06 0.853194
12.07 0.920527
12.08 0.97103
12.09 1.0051
12.1 1.02263
12.11 1.0226
12.12 1.00746
12.13 0.975814
12.14 0.930833
12.15 0.873091
12.16 0.80443
12.17 0.727353
12.18 0.643011
12.19 0.554476
12.2 0.463406
12.21 0.372111
12.22 0.282357
12.23 0.196151
12.24 0.114386
12.25 0.0389678
12.26 -0.030117
12.27 -0.0921128
12.28 -0.146989
12.29 -0.195559
12.3 -0.237658
12.31 -0.275076
12.32 -0.30836
12.33 -0.339017
12.34 -0.368185
12.35 -0.39704
12.36 -0.426515
12.37 -0.457535
12.38 -0.490363
12.39 -0.525208
12.4 -0.561781
12.41 -0.599382
