# xPDFsuite Configuration #
[PDF]
wavelength = 0.1432
dataformat = twotheta
inputfile = 1_1Pd_CeO2_cycle-00070.chi
backgroundfile = background-00000.chi
mode = xray
bgscale = 1.007
composition = CeO2
outputtype = gr
qmaxinst = 28.8974762299
qmin = 0.5
qmax = 27.9
rmax = 50.0
rmin = 0.0
rstep = 0.01
rpoly = 1.8657

[Misc]
inputdir = G:/SankarDec16/1Pd/Chi
savedir = D:/DATA/APS_CeO2/1Pd
backgroundfilefull = G:/SankarDec16/Background/background-00000.chi

#### start data
#S 1
#L r($\AA$)  G($\AA^{-2}$)
0 0
0.01 -0.00649534
0.02 -0.0125032
0.03 -0.0175214
0.04 -0.0211715
0.05 -0.0232424
0.06 -0.0233945
0.07 -0.021852
0.08 -0.0185039
0.09 -0.0137789
0.1 -0.00797263
0.11 -0.00153891
0.12 0.00502518
0.13 0.0111641
0.14 0.0164801
0.15 0.0204889
0.16 0.0229038
0.17 0.0236083
0.18 0.0223668
0.19 0.0195069
0.2 0.0150358
0.21 0.00945208
0.22 0.00312287
0.23 -0.0034429
0.24 -0.00977554
0.25 -0.0152764
0.26 -0.0196553
0.27 -0.0224675
0.28 -0.0235313
0.29 -0.0228298
0.3 -0.0202425
0.31 -0.0161858
0.32 -0.0107848
0.33 -0.00458613
0.34 0.00198828
0.35 0.00839672
0.36 0.0142182
0.37 0.0188379
0.38 0.0220861
0.39 0.023578
0.4 0.0232449
0.41 0.021171
0.42 0.0173565
0.43 0.012288
0.44 0.00620333
0.45 -0.000327084
0.46 -0.00684556
0.47 -0.0128016
0.48 -0.017842
0.49 -0.0213635
0.5 -0.0233247
0.51 -0.0234186
0.52 -0.0216929
0.53 -0.0183293
0.54 -0.0134492
0.55 -0.00758832
0.56 -0.00108641
0.57 0.00548739
0.58 0.0116604
0.59 0.0168976
0.6 0.0209302
0.61 0.0231935
0.62 0.0237771
0.63 0.0224655
0.64 0.0194216
0.65 0.0149171
0.66 0.00918994
0.67 0.00280069
0.68 -0.00382323
0.69 -0.0101393
0.7 -0.0156809
0.71 -0.0199522
0.72 -0.0227811
0.73 -0.0236663
0.74 -0.0228245
0.75 -0.0201415
0.76 -0.0158879
0.77 -0.0104127
0.78 -0.00405941
0.79 0.00261143
0.8 0.0091052
0.81 0.0149299
0.82 0.0196465
0.83 0.02282
0.84 0.0243822
0.85 0.0239169
0.86 0.0217557
0.87 0.0178877
0.88 0.0126751
0.89 0.00652397
0.9 -0.000140289
0.91 -0.00678717
0.92 -0.0128897
0.93 -0.0180347
0.94 -0.0218414
0.95 -0.0239685
0.96 -0.0244566
0.97 -0.023016
0.98 -0.0200718
0.99 -0.0157305
1 -0.0104284
1.01 -0.00460496
1.02 0.00124924
1.03 0.00668075
1.04 0.0111629
1.05 0.0144098
1.06 0.016144
1.07 0.0161729
1.08 0.0146783
1.09 0.0115764
1.1 0.00739734
1.11 0.00243049
1.12 -0.0027801
1.13 -0.0077423
1.14 -0.0118271
1.15 -0.0146879
1.16 -0.0157212
1.17 -0.0147969
1.18 -0.0117211
1.19 -0.00643488
1.2 0.00068077
1.21 0.0095511
1.22 0.0194347
1.23 0.029846
1.24 0.0400501
1.25 0.0494158
1.26 0.0570784
1.27 0.0626769
1.28 0.0653824
1.29 0.0650839
1.3 0.0615117
1.31 0.0545394
1.32 0.044666
1.33 0.0318026
1.34 0.0169136
1.35 0.000438665
1.36 -0.0167776
1.37 -0.0339864
1.38 -0.0502922
1.39 -0.0651171
1.4 -0.0775657
1.41 -0.0873147
1.42 -0.0939357
1.43 -0.0970873
1.44 -0.0970835
1.45 -0.0935262
1.46 -0.087225
1.47 -0.0783075
1.48 -0.0673895
1.49 -0.0550615
1.5 -0.0418361
1.51 -0.0283634
1.52 -0.0151671
1.53 -0.00269185
1.54 0.00869684
1.55 0.0186627
1.56 0.0271991
1.57 0.0339773
1.58 0.0392754
1.59 0.0430291
1.6 0.0454255
1.61 0.0466634
1.62 0.0468075
1.63 0.0461436
1.64 0.0446982
1.65 0.0426422
1.66 0.0400161
1.67 0.0368282
1.68 0.0331344
1.69 0.0288259
1.7 0.0239719
1.71 0.0185041
1.72 0.0124476
1.73 0.00585895
1.74 -0.00123648
1.75 -0.00867042
1.76 -0.0163373
1.77 -0.0240419
1.78 -0.031614
1.79 -0.0388503
1.8 -0.0456413
1.81 -0.0517661
1.82 -0.0572503
1.83 -0.0620172
1.84 -0.066142
1.85 -0.0697562
1.86 -0.0730024
1.87 -0.0761333
1.88 -0.0793928
1.89 -0.0830249
1.9 -0.087252
1.91 -0.0922926
1.92 -0.0981598
1.93 -0.105012
1.94 -0.112611
1.95 -0.120826
1.96 -0.129303
1.97 -0.137652
1.98 -0.145302
1.99 -0.151829
2 -0.156482
2.01 -0.158859
2.02 -0.158431
2.03 -0.154629
2.04 -0.147522
2.05 -0.136336
2.06 -0.121648
2.07 -0.103225
2.08 -0.0814384
2.09 -0.0567508
2.1 -0.0293475
2.11 -3.59796e-05
2.12 0.0309232
2.13 0.0629066
2.14 0.0955705
2.15 0.128612
2.16 0.161831
2.17 0.195191
2.18 0.228734
2.19 0.262636
2.2 0.297128
2.21 0.332414
2.22 0.368833
2.23 0.406375
2.24 0.445206
2.25 0.485039
2.26 0.525538
2.27 0.56605
2.28 0.60581
2.29 0.643454
2.3 0.678036
2.31 0.707883
2.32 0.731547
2.33 0.747969
2.34 0.754838
2.35 0.75233
2.36 0.738277
2.37 0.713227
2.38 0.67687
2.39 0.629242
2.4 0.572287
2.41 0.505953
2.42 0.433366
2.43 0.355982
2.44 0.276437
2.45 0.197054
2.46 0.120621
2.47 0.0489109
2.48 -0.0152965
2.49 -0.0709773
2.5 -0.116831
2.51 -0.151783
2.52 -0.176887
2.53 -0.191041
2.54 -0.196885
2.55 -0.195099
2.56 -0.18788
2.57 -0.177362
2.58 -0.165657
2.59 -0.154917
2.6 -0.147314
2.61 -0.144237
2.62 -0.146915
2.63 -0.15635
2.64 -0.172008
2.65 -0.194535
2.66 -0.222066
2.67 -0.253803
2.68 -0.287896
2.69 -0.322588
2.7 -0.355808
2.71 -0.38606
2.72 -0.411277
2.73 -0.430626
2.74 -0.443216
2.75 -0.44844
2.76 -0.447239
2.77 -0.439339
2.78 -0.426896
2.79 -0.411006
2.8 -0.393707
2.81 -0.376821
2.82 -0.362564
2.83 -0.352226
2.84 -0.347849
2.85 -0.349952
2.86 -0.359166
2.87 -0.375738
2.88 -0.3984
2.89 -0.426935
2.9 -0.458961
2.91 -0.492971
2.92 -0.526692
2.93 -0.558218
2.94 -0.585036
2.95 -0.606138
2.96 -0.619354
2.97 -0.624533
2.98 -0.621268
2.99 -0.609619
3 -0.591286
3.01 -0.566808
3.02 -0.538955
3.03 -0.509549
3.04 -0.481114
3.05 -0.455676
3.06 -0.435919
3.07 -0.422697
3.08 -0.418163
3.09 -0.42219
3.1 -0.434943
3.11 -0.456039
3.12 -0.483498
3.13 -0.516391
3.14 -0.551812
3.15 -0.587704
3.16 -0.62151
3.17 -0.651312
3.18 -0.674537
3.19 -0.690757
3.2 -0.698232
3.21 -0.697658
3.22 -0.689468
3.23 -0.674813
3.24 -0.656062
3.25 -0.635212
3.26 -0.615175
3.27 -0.598675
3.28 -0.588372
3.29 -0.585994
3.3 -0.594308
3.31 -0.612799
3.32 -0.642968
3.33 -0.683036
3.34 -0.731724
3.35 -0.786791
3.36 -0.844934
3.37 -0.902826
3.38 -0.956989
3.39 -1.0037
3.4 -1.03981
3.41 -1.06354
3.42 -1.0716
3.43 -1.06546
3.44 -1.04368
3.45 -1.00922
3.46 -0.964285
3.47 -0.912317
3.48 -0.85776
3.49 -0.805327
3.5 -0.759184
3.51 -0.723964
3.52 -0.703061
3.53 -0.697923
3.54 -0.711362
3.55 -0.740242
3.56 -0.783993
3.57 -0.83688
3.58 -0.893451
3.59 -0.945565
3.6 -0.985959
3.61 -1.00196
3.62 -0.987579
3.63 -0.930983
3.64 -0.824179
3.65 -0.663213
3.66 -0.436339
3.67 -0.149877
3.68 0.203898
3.69 0.615904
3.7 1.08151
3.71 1.59297
3.72 2.1351
3.73 2.69729
3.74 3.26128
3.75 3.81104
3.76 4.32873
3.77 4.80088
3.78 5.20488
3.79 5.53704
3.8 5.77619
3.81 5.92196
3.82 5.96809
3.83 5.90896
3.84 5.75757
3.85 5.50487
3.86 5.17422
3.87 4.76986
3.88 4.30825
3.89 3.80589
3.9 3.27632
3.91 2.73826
3.92 2.2068
3.93 1.69606
3.94 1.21808
3.95 0.785567
3.96 0.400667
3.97 0.0770855
3.98 -0.191773
3.99 -0.401344
4 -0.555905
4.01 -0.66236
4.02 -0.722381
4.03 -0.749098
4.04 -0.746507
4.05 -0.725538
4.06 -0.693181
4.07 -0.656822
4.08 -0.622317
4.09 -0.595418
4.1 -0.57835
4.11 -0.573829
4.12 -0.58212
4.13 -0.601927
4.14 -0.632508
4.15 -0.669949
4.16 -0.711822
4.17 -0.754187
4.18 -0.793832
4.19 -0.827102
4.2 -0.852205
4.21 -0.865331
4.22 -0.866764
4.23 -0.854765
4.24 -0.829614
4.25 -0.792505
4.26 -0.743358
4.27 -0.685216
4.28 -0.618756
4.29 -0.546623
4.3 -0.470441
4.31 -0.391902
4.32 -0.312553
4.33 -0.233565
4.34 -0.155711
4.35 -0.0796093
4.36 -0.00552596
4.37 0.0665507
4.38 0.136396
4.39 0.204328
4.4 0.270039
4.41 0.333511
4.42 0.394332
4.43 0.451684
4.44 0.505157
4.45 0.55287
4.46 0.59441
4.47 0.627923
4.48 0.652143
4.49 0.666396
4.5 0.668331
4.51 0.658865
4.52 0.636065
4.53 0.601064
4.54 0.554089
4.55 0.495614
4.56 0.428042
4.57 0.35178
4.58 0.270035
4.59 0.184447
4.6 0.0975288
4.61 0.0113598
4.62 -0.0716134
4.63 -0.1501
4.64 -0.221953
4.65 -0.286598
4.66 -0.343295
4.67 -0.391436
4.68 -0.432091
4.69 -0.464642
4.7 -0.491101
4.71 -0.511994
4.72 -0.528751
4.73 -0.542719
4.74 -0.55494
4.75 -0.566654
4.76 -0.578703
4.77 -0.591708
4.78 -0.606021
4.79 -0.621811
4.8 -0.638788
4.81 -0.656744
4.82 -0.675025
4.83 -0.693064
4.84 -0.71017
4.85 -0.725835
4.86 -0.739293
4.87 -0.75047
4.88 -0.758832
4.89 -0.764567
4.9 -0.767764
4.91 -0.76864
4.92 -0.767832
4.93 -0.765665
4.94 -0.76291
4.95 -0.76009
4.96 -0.757799
4.97 -0.756438
4.98 -0.756531
4.99 -0.758112
5 -0.761489
5.01 -0.766502
5.02 -0.773065
5.03 -0.78103
5.04 -0.790025
5.05 -0.799916
5.06 -0.810316
5.07 -0.821041
5.08 -0.831874
5.09 -0.842664
5.1 -0.853258
5.11 -0.863559
5.12 -0.873361
5.13 -0.882461
5.14 -0.890524
5.15 -0.896942
5.16 -0.901269
5.17 -0.902139
5.18 -0.898924
5.19 -0.889993
5.2 -0.873863
5.21 -0.849477
5.22 -0.814033
5.23 -0.767572
5.24 -0.707245
5.25 -0.633105
5.26 -0.544354
5.27 -0.440172
5.28 -0.322621
5.29 -0.190764
5.3 -0.0484271
5.31 0.102839
5.32 0.259476
5.33 0.417866
5.34 0.573534
5.35 0.722707
5.36 0.859864
5.37 0.981456
5.38 1.08346
5.39 1.161
5.4 1.21408
5.41 1.23632
5.42 1.23093
5.43 1.19551
5.44 1.13163
5.45 1.04254
5.46 0.92851
5.47 0.796351
5.48 0.648171
5.49 0.490161
5.5 0.326786
5.51 0.163242
5.52 0.00374759
5.53 -0.146233
5.54 -0.284438
5.55 -0.407087
5.56 -0.51227
5.57 -0.599847
5.58 -0.66737
5.59 -0.718019
5.6 -0.750869
5.61 -0.769214
5.62 -0.774915
5.63 -0.770066
5.64 -0.75803
5.65 -0.740301
5.66 -0.719762
5.67 -0.697843
5.68 -0.675922
5.69 -0.654676
5.7 -0.634448
5.71 -0.614863
5.72 -0.595325
5.73 -0.574845
5.74 -0.552366
5.75 -0.526511
5.76 -0.496698
5.77 -0.461351
5.78 -0.420775
5.79 -0.374491
5.8 -0.323059
5.81 -0.267571
5.82 -0.209088
5.83 -0.149674
5.84 -0.0913499
5.85 -0.0363488
5.86 0.0131554
5.87 0.0544658
5.88 0.0867019
5.89 0.106563
5.9 0.114646
5.91 0.109397
5.92 0.091028
5.93 0.0607444
5.94 0.0183586
5.95 -0.0330094
5.96 -0.0924967
5.97 -0.157173
5.98 -0.224939
5.99 -0.293398
6 -0.360551
6.01 -0.42408
6.02 -0.483017
6.03 -0.535975
6.04 -0.582453
6.05 -0.622722
6.06 -0.656446
6.07 -0.685214
6.08 -0.709466
6.09 -0.730831
6.1 -0.750478
6.11 -0.769697
6.12 -0.789507
6.13 -0.810937
6.14 -0.834265
6.15 -0.859787
6.16 -0.887236
6.17 -0.916012
6.18 -0.945332
6.19 -0.974147
6.2 -1.00122
6.21 -1.02551
6.22 -1.04606
6.23 -1.06179
6.24 -1.07278
6.25 -1.07806
6.26 -1.07864
6.27 -1.07467
6.28 -1.06715
6.29 -1.05722
6.3 -1.04588
6.31 -1.03432
6.32 -1.0234
6.33 -1.01355
6.34 -1.00472
6.35 -0.996188
6.36 -0.986655
6.37 -0.973488
6.38 -0.954258
6.39 -0.924952
6.4 -0.881243
6.41 -0.81984
6.42 -0.733283
6.43 -0.620714
6.44 -0.474536
6.45 -0.293904
6.46 -0.0762547
6.47 0.181497
6.48 0.474686
6.49 0.806863
6.5 1.16897
6.51 1.55818
6.52 1.96649
6.53 2.38522
6.54 2.80473
6.55 3.21506
6.56 3.60374
6.57 3.96117
6.58 4.2773
6.59 4.53936
6.6 4.74574
6.61 4.87984
6.62 4.9469
6.63 4.93911
6.64 4.85739
6.65 4.70776
6.66 4.48681
6.67 4.21027
6.68 3.87949
6.69 3.50867
6.7 3.10732
6.71 2.68633
6.72 2.25805
6.73 1.8337
6.74 1.42294
6.75 1.03575
6.76 0.680123
6.77 0.359814
6.78 0.0841122
6.79 -0.150705
6.8 -0.338687
6.81 -0.484484
6.82 -0.58998
6.83 -0.657162
6.84 -0.694323
6.85 -0.702411
6.86 -0.690857
6.87 -0.6634
6.88 -0.625883
6.89 -0.58311
6.9 -0.538978
6.91 -0.496668
6.92 -0.458793
6.93 -0.426506
6.94 -0.400453
6.95 -0.380915
6.96 -0.366659
6.97 -0.357466
6.98 -0.351492
6.99 -0.347838
7 -0.345321
7.01 -0.343134
7.02 -0.340776
7.03 -0.338191
7.04 -0.335683
7.05 -0.333961
7.06 -0.333949
7.07 -0.337055
7.08 -0.344085
7.09 -0.357058
7.1 -0.37622
7.11 -0.402808
7.12 -0.437145
7.13 -0.478753
7.14 -0.527953
7.15 -0.582776
7.16 -0.642481
7.17 -0.704869
7.18 -0.768097
7.19 -0.82985
7.2 -0.888389
7.21 -0.94099
7.22 -0.98679
7.23 -1.02401
7.24 -1.05188
7.25 -1.07068
7.26 -1.07954
7.27 -1.08054
7.28 -1.07393
7.29 -1.0619
7.3 -1.04607
7.31 -1.02836
7.32 -1.0106
7.33 -0.994609
7.34 -0.981425
7.35 -0.972055
7.36 -0.966748
7.37 -0.964993
7.38 -0.966199
7.39 -0.96855
7.4 -0.970136
7.41 -0.968544
7.42 -0.961299
7.43 -0.945065
7.44 -0.918435
7.45 -0.877022
7.46 -0.820837
7.47 -0.747347
7.48 -0.655952
7.49 -0.547684
7.5 -0.421308
7.51 -0.280803
7.52 -0.126787
7.53 0.0366005
7.54 0.206125
7.55 0.37772
7.56 0.547376
7.57 0.709997
7.58 0.86239
7.59 1.00002
7.6 1.11933
7.61 1.2188
7.62 1.29335
7.63 1.34496
7.64 1.36992
7.65 1.37022
7.66 1.34632
7.67 1.2984
7.68 1.23082
7.69 1.14308
7.7 1.04065
7.71 0.925311
7.72 0.80066
7.73 0.670153
7.74 0.536678
7.75 0.403537
7.76 0.273726
7.77 0.149725
7.78 0.033745
7.79 -0.0715086
7.8 -0.165671
7.81 -0.245411
7.82 -0.311635
7.83 -0.362653
7.84 -0.398292
7.85 -0.419488
7.86 -0.424835
7.87 -0.417204
7.88 -0.396066
7.89 -0.363896
7.9 -0.322228
7.91 -0.272772
7.92 -0.218414
7.93 -0.16109
7.94 -0.103746
7.95 -0.0488909
7.96 0.000750532
7.97 0.0433221
7.98 0.0754558
7.99 0.0968579
8 0.104728
8.01 0.0991242
8.02 0.0796266
8.03 0.0456832
8.04 -0.000425539
8.05 -0.0592027
8.06 -0.127178
8.07 -0.20294
8.08 -0.283739
8.09 -0.36691
8.1 -0.44975
8.11 -0.529923
8.12 -0.604775
8.13 -0.672755
8.14 -0.732539
8.15 -0.782732
8.16 -0.824154
8.17 -0.855746
8.18 -0.879667
8.19 -0.896602
8.2 -0.908391
8.21 -0.916994
8.22 -0.924113
8.23 -0.931574
8.24 -0.940856
8.25 -0.952788
8.26 -0.967688
8.27 -0.985322
8.28 -1.00439
8.29 -1.02305
8.3 -1.03879
8.31 -1.04831
8.32 -1.04773
8.33 -1.03412
8.34 -1.00124
8.35 -0.948104
8.36 -0.868624
8.37 -0.761815
8.38 -0.625744
8.39 -0.457729
8.4 -0.261528
8.41 -0.0342963
8.42 0.217067
8.43 0.490451
8.44 0.780032
8.45 1.07928
8.46 1.38153
8.47 1.67931
8.48 1.96416
8.49 2.2291
8.5 2.46734
8.51 2.67002
8.52 2.83599
8.53 2.95429
8.54 3.02804
8.55 3.05224
8.56 3.02705
8.57 2.95659
8.58 2.83791
8.59 2.68134
8.6 2.4872
8.61 2.26425
8.62 2.01833
8.63 1.75564
8.64 1.48425
8.65 1.21025
8.66 0.940275
8.67 0.680132
8.68 0.435089
8.69 0.207881
8.7 0.00437824
8.71 -0.1767
8.72 -0.331401
8.73 -0.461428
8.74 -0.567309
8.75 -0.64919
8.76 -0.711535
8.77 -0.753945
8.78 -0.781783
8.79 -0.796792
8.8 -0.802261
8.81 -0.801343
8.82 -0.796206
8.83 -0.789657
8.84 -0.78356
8.85 -0.77955
8.86 -0.778742
8.87 -0.782215
8.88 -0.789876
8.89 -0.802487
8.9 -0.819188
8.91 -0.839837
8.92 -0.863716
8.93 -0.889942
8.94 -0.917885
8.95 -0.946513
8.96 -0.975086
8.97 -1.00284
8.98 -1.02919
8.99 -1.05348
9 -1.07558
9.01 -1.09487
9.02 -1.11157
9.03 -1.12547
9.04 -1.13667
9.05 -1.14546
9.06 -1.15169
9.07 -1.15587
9.08 -1.15788
9.09 -1.15795
9.1 -1.15608
9.11 -1.15202
9.12 -1.14584
9.13 -1.13683
9.14 -1.12494
9.15 -1.10945
9.16 -1.08978
9.17 -1.06567
9.18 -1.03587
9.19 -1.00069
9.2 -0.959066
9.21 -0.911228
9.22 -0.857154
9.23 -0.796736
9.24 -0.73115
9.25 -0.660466
9.26 -0.586441
9.27 -0.510151
9.28 -0.433341
9.29 -0.357639
9.3 -0.285344
9.31 -0.217807
9.32 -0.15753
9.33 -0.105793
9.34 -0.0639788
9.35 -0.033981
9.36 -0.0151804
9.37 -0.00973332
9.38 -0.0157687
9.39 -0.0335066
9.4 -0.0616965
9.41 -0.0983262
9.42 -0.142414
9.43 -0.190921
9.44 -0.242082
9.45 -0.293322
9.46 -0.342592
9.47 -0.387528
9.48 -0.427065
9.49 -0.458873
9.5 -0.48309
9.51 -0.498826
9.52 -0.506283
9.53 -0.506545
9.54 -0.499852
9.55 -0.488511
9.56 -0.473657
9.57 -0.457426
9.58 -0.441527
9.59 -0.427935
9.6 -0.417804
9.61 -0.413093
9.62 -0.414008
9.63 -0.421418
9.64 -0.435368
9.65 -0.455141
9.66 -0.480731
9.67 -0.510389
9.68 -0.543402
9.69 -0.578196
9.7 -0.613578
9.71 -0.648266
9.72 -0.681432
9.73 -0.71201
9.74 -0.739887
9.75 -0.764736
9.76 -0.786714
9.77 -0.806321
9.78 -0.823786
9.79 -0.839887
9.8 -0.854865
9.81 -0.868969
9.82 -0.882019
9.83 -0.893212
9.84 -0.901658
9.85 -0.904899
9.86 -0.901164
9.87 -0.887069
9.88 -0.8589
9.89 -0.814149
9.9 -0.746039
9.91 -0.654089
9.92 -0.53163
9.93 -0.377503
9.94 -0.189551
9.95 0.0358182
9.96 0.294531
9.97 0.590547
9.98 0.916473
9.99 1.27047
10 1.64648
10.01 2.03703
10.02 2.4352
10.03 2.83172
10.04 3.21704
10.05 3.58222
10.06 3.91884
10.07 4.21556
10.08 4.46993
10.09 4.66806
10.1 4.81215
10.11 4.89528
10.12 4.91609
10.13 4.87898
10.14 4.77853
10.15 4.62728
10.16 4.42443
10.17 4.18039
10.18 3.90218
10.19 3.59679
10.2 3.27501
10.21 2.94361
10.22 2.6119
10.23 2.28698
10.24 1.97591
10.25 1.68265
10.26 1.41445
10.27 1.17059
10.28 0.955735
10.29 0.76839
10.3 0.607899
10.31 0.474164
10.32 0.361999
10.33 0.271539
10.34 0.196721
10.35 0.135285
10.36 0.0834619
10.37 0.0377014
10.38 -0.00449111
10.39 -0.045975
10.4 -0.0886882
10.41 -0.134083
10.42 -0.18304
10.43 -0.236328
10.44 -0.293509
10.45 -0.354863
10.46 -0.419277
10.47 -0.486196
10.48 -0.554613
10.49 -0.623539
10.5 -0.691895
10.51 -0.758826
10.52 -0.823211
10.53 -0.884317
10.54 -0.941421
10.55 -0.993459
10.56 -1.04041
10.57 -1.08081
10.58 -1.11495
10.59 -1.14194
10.6 -1.16134
10.61 -1.17337
10.62 -1.17674
10.63 -1.17258
10.64 -1.15998
10.65 -1.13972
10.66 -1.11221
10.67 -1.07763
10.68 -1.03755
10.69 -0.992216
10.7 -0.9435
10.71 -0.892475
10.72 -0.840727
10.73 -0.789656
10.74 -0.741065
10.75 -0.695957
10.76 -0.656065
10.77 -0.622181
10.78 -0.59507
10.79 -0.57581
10.8 -0.563758
10.81 -0.560023
10.82 -0.563248
10.83 -0.573357
10.84 -0.589492
10.85 -0.610409
10.86 -0.635599
10.87 -0.663454
10.88 -0.693257
10.89 -0.723907
10.9 -0.754657
10.91 -0.784803
10.92 -0.813997
10.93 -0.841783
10.94 -0.868233
10.95 -0.893293
10.96 -0.917121
10.97 -0.939982
10.98 -0.962
10.99 -0.983483
11 -1.0045
11.01 -1.02515
11.02 -1.04537
11.03 -1.06496
11.04 -1.08376
11.05 -1.10131
11.06 -1.11741
11.07 -1.13161
11.08 -1.1436
11.09 -1.15331
11.1 -1.1603
11.11 -1.16497
11.12 -1.16719
11.13 -1.16739
11.14 -1.16591
11.15 -1.16307
11.16 -1.15937
11.17 -1.15495
11.18 -1.15002
11.19 -1.1444
11.2 -1.13758
11.21 -1.12892
11.22 -1.11679
11.23 -1.10016
11.24 -1.07649
11.25 -1.04388
11.26 -1.00011
11.27 -0.941614
11.28 -0.86783
11.29 -0.773903
11.3 -0.660489
11.31 -0.525094
11.32 -0.36712
11.33 -0.188366
11.34 0.0127204
11.35 0.230915
11.36 0.465095
11.37 0.710001
11.38 0.961094
11.39 1.21263
11.4 1.45912
11.41 1.69291
11.42 1.90934
11.43 2.1016
11.44 2.26387
11.45 2.39408
11.46 2.48361
11.47 2.53586
11.48 2.54511
11.49 2.51423
11.5 2.44476
11.51 2.3371
11.52 2.19906
11.53 2.03114
11.54 1.84253
11.55 1.63759
11.56 1.42298
11.57 1.20482
11.58 0.989179
11.59 0.780639
11.6 0.584532
11.61 0.403733
11.62 0.240463
11.63 0.0975427
11.64 -0.0269673
11.65 -0.130777
11.66 -0.21781
11.67 -0.288963
11.68 -0.346999
11.69 -0.395397
11.7 -0.436167
11.71 -0.473112
11.72 -0.508379
11.73 -0.544322
11.74 -0.582426
11.75 -0.623963
11.76 -0.668875
11.77 -0.717396
11.78 -0.768227
11.79 -0.820208
11.8 -0.871435
11.81 -0.920139
11.82 -0.963468
11.83 -1.00008
11.84 -1.02703
11.85 -1.04296
11.86 -1.04648
11.87 -1.03538
11.88 -1.01062
11.89 -0.96969
11.9 -0.914648
11.91 -0.845078
11.92 -0.761907
11.93 -0.667173
11.94 -0.560909
11.95 -0.446359
11.96 -0.324394
11.97 -0.197509
11.98 -0.0675861
11.99 0.0633171
12 0.193246
12.01 0.31985
12.02 0.441577
12.03 0.55632
12.04 0.662113
12.05 0.758081
12.06 0.841036
12.07 0.911483
12.08 0.966692
12.09 1.00658
12.1 1.03059
12.11 1.03717
12.12 1.02827
12.13 1.00185
12.14 0.960745
12.15 0.905098
12.16 0.836493
12.17 0.757493
12.18 0.669033
12.19 0.574698
12.2 0.47629
12.21 0.376686
12.22 0.278144
12.23 0.183267
12.24 0.0934463
12.25 0.0112528
12.26 -0.0630455
12.27 -0.128287
12.28 -0.184234
12.29 -0.231821
12.3 -0.270719
12.31 -0.303278
12.32 -0.330234
12.33 -0.35368
12.34 -0.375256
12.35 -0.396729
12.36 -0.419497
12.37 -0.445111
12.38 -0.474059
12.39 -0.506891
12.4 -0.543455
