# xPDFsuite Configuration #
[PDF]
wavelength = 0.1432
dataformat = twotheta
inputfile = 1_1Pd_CeO2_cycle-00168.chi
backgroundfile = background-00000.chi
mode = xray
bgscale = 1.007
composition = CeO2
outputtype = gr
qmaxinst = 28.8974762299
qmin = 0.5
qmax = 27.9
rmax = 50.0
rmin = 0.0
rstep = 0.01
rpoly = 1.8657

[Misc]
inputdir = G:/SankarDec16/1Pd/Chi
savedir = D:/DATA/APS_CeO2/1Pd
backgroundfilefull = G:/SankarDec16/Background/background-00000.chi

#### start data
#S 1
#L r($\AA$)  G($\AA^{-2}$)
0 0
0.01 -0.00586752
0.02 -0.0112932
0.03 -0.0158221
0.04 -0.0191115
0.05 -0.0209707
0.06 -0.0210929
0.07 -0.0196821
0.08 -0.0166396
0.09 -0.0123547
0.1 -0.00709691
0.11 -0.00127858
0.12 0.00465011
0.13 0.0101844
0.14 0.0149663
0.15 0.0185575
0.16 0.0207011
0.17 0.0212942
0.18 0.0201272
0.19 0.0174998
0.2 0.013423
0.21 0.00835082
0.22 0.00261835
0.23 -0.00331137
0.24 -0.00901439
0.25 -0.013947
0.26 -0.0178516
0.27 -0.0203277
0.28 -0.0212163
0.29 -0.0205073
0.3 -0.0180984
0.31 -0.0143709
0.32 -0.00944525
0.33 -0.00381875
0.34 0.00212358
0.35 0.0078897
0.36 0.0131021
0.37 0.017204
0.38 0.0200501
0.39 0.0212973
0.4 0.0208919
0.41 0.0189175
0.42 0.0153841
0.43 0.0107369
0.44 0.00520026
0.45 -0.000708415
0.46 -0.0065726
0.47 -0.0118942
0.48 -0.0163604
0.49 -0.0194276
0.5 -0.0210703
0.51 -0.0210189
0.52 -0.0193282
0.53 -0.0161717
0.54 -0.0116719
0.55 -0.00631699
0.56 -0.000424687
0.57 0.00549164
0.58 0.0110039
0.59 0.0156312
0.6 0.0191408
0.61 0.021028
0.62 0.0213889
0.63 0.0200406
0.64 0.0171439
0.65 0.0129547
0.66 0.00770241
0.67 0.0018952
0.68 -0.00407056
0.69 -0.00970973
0.7 -0.0146031
0.71 -0.0183098
0.72 -0.0206881
0.73 -0.0212966
0.74 -0.0203481
0.75 -0.0177547
0.76 -0.0137759
0.77 -0.00873675
0.78 -0.00296212
0.79 0.00304482
0.8 0.00882994
0.81 0.0139601
0.82 0.0180468
0.83 0.0207117
0.84 0.0219118
0.85 0.0212924
0.86 0.0191714
0.87 0.0155615
0.88 0.0108061
0.89 0.00528154
0.9 -0.000610944
0.91 -0.00640295
0.92 -0.0116122
0.93 -0.0158864
0.94 -0.0188972
0.95 -0.0203612
0.96 -0.0203435
0.97 -0.0186186
0.98 -0.0155978
0.99 -0.0114151
1 -0.00649335
1.01 -0.00124795
1.02 0.00383996
1.03 0.0083725
1.04 0.0118446
1.05 0.0140203
1.06 0.0146549
1.07 0.0135903
1.08 0.0110311
1.09 0.00692003
1.1 0.0017903
1.11 -0.00405791
1.12 -0.0100821
1.13 -0.0157944
1.14 -0.0205605
1.15 -0.0240406
1.16 -0.0256134
1.17 -0.0251386
1.18 -0.0223939
1.19 -0.0172749
1.2 -0.010137
1.21 -0.000959081
1.22 0.00953249
1.23 0.0209398
1.24 0.0325722
1.25 0.0438193
1.26 0.0538907
1.27 0.0623578
1.28 0.068426
1.29 0.0718778
1.3 0.072368
1.31 0.0696446
1.32 0.0640523
1.33 0.0553049
1.34 0.0442012
1.35 0.0309511
1.36 0.0162055
1.37 0.000576953
1.38 -0.0153088
1.39 -0.0308342
1.4 -0.0453308
1.41 -0.0583639
1.42 -0.0694934
1.43 -0.0782976
1.44 -0.0848225
1.45 -0.088558
1.46 -0.0899265
1.47 -0.0887863
1.48 -0.085393
1.49 -0.0800397
1.5 -0.0728128
1.51 -0.064214
1.52 -0.0543531
1.53 -0.0436283
1.54 -0.0322608
1.55 -0.0204962
1.56 -0.00857669
1.57 0.00327794
1.58 0.0148722
1.59 0.0259762
1.6 0.0363748
1.61 0.0458933
1.62 0.0541743
1.63 0.0611542
1.64 0.0664034
1.65 0.0698498
1.66 0.0712597
1.67 0.0703899
1.68 0.0673852
1.69 0.0618526
1.7 0.054235
1.71 0.0444841
1.72 0.0329354
1.73 0.0199739
1.74 0.00592526
1.75 -0.00862271
1.76 -0.0231984
1.77 -0.0372708
1.78 -0.0503706
1.79 -0.0619934
1.8 -0.0719893
1.81 -0.0798239
1.82 -0.0857337
1.83 -0.0895826
1.84 -0.0916353
1.85 -0.092253
1.86 -0.0917588
1.87 -0.0907591
1.88 -0.0897437
1.89 -0.0892506
1.9 -0.0897355
1.91 -0.0916515
1.92 -0.0950775
1.93 -0.10038
1.94 -0.107197
1.95 -0.115418
1.96 -0.124541
1.97 -0.134
1.98 -0.143045
1.99 -0.151012
2 -0.156925
2.01 -0.160192
2.02 -0.160117
2.03 -0.155983
2.04 -0.147873
2.05 -0.134908
2.06 -0.117853
2.07 -0.0965566
2.08 -0.0716083
2.09 -0.0436992
2.1 -0.0133054
2.11 0.0185427
2.12 0.0512494
2.13 0.084029
2.14 0.116347
2.15 0.147732
2.16 0.178082
2.17 0.207202
2.18 0.235462
2.19 0.263137
2.2 0.29078
2.21 0.318917
2.22 0.348267
2.23 0.379161
2.24 0.412212
2.25 0.447399
2.26 0.484686
2.27 0.523704
2.28 0.563633
2.29 0.603429
2.3 0.641791
2.31 0.677042
2.32 0.707425
2.33 0.73153
2.34 0.746723
2.35 0.752708
2.36 0.746896
2.37 0.729432
2.38 0.699643
2.39 0.657174
2.4 0.6039
2.41 0.539341
2.42 0.46685
2.43 0.387766
2.44 0.304919
2.45 0.2209
2.46 0.138681
2.47 0.0605006
2.48 -0.0105619
2.49 -0.0730592
2.5 -0.125349
2.51 -0.165975
2.52 -0.195826
2.53 -0.213396
2.54 -0.221391
2.55 -0.220318
2.56 -0.212443
2.57 -0.200048
2.58 -0.185299
2.59 -0.170703
2.6 -0.158587
2.61 -0.150672
2.62 -0.148434
2.63 -0.153152
2.64 -0.164467
2.65 -0.183301
2.66 -0.207817
2.67 -0.237359
2.68 -0.27008
2.69 -0.304162
2.7 -0.337542
2.71 -0.368526
2.72 -0.394994
2.73 -0.415929
2.74 -0.430325
2.75 -0.437446
2.76 -0.438135
2.77 -0.432032
2.78 -0.421261
2.79 -0.406893
2.8 -0.390978
2.81 -0.375372
2.82 -0.36233
2.83 -0.353195
2.84 -0.350054
2.85 -0.353457
2.86 -0.364048
2.87 -0.382066
2.88 -0.406199
2.89 -0.436168
2.9 -0.469507
2.91 -0.504601
2.92 -0.539064
2.93 -0.570904
2.94 -0.597452
2.95 -0.617707
2.96 -0.629379
2.97 -0.632374
2.98 -0.626313
2.99 -0.61133
3 -0.589298
3.01 -0.560891
3.02 -0.529113
3.03 -0.496002
3.04 -0.464316
3.05 -0.436256
3.06 -0.41479
3.07 -0.400789
3.08 -0.396632
3.09 -0.402124
3.1 -0.417419
3.11 -0.442067
3.12 -0.473833
3.13 -0.511661
3.14 -0.552289
3.15 -0.593396
3.16 -0.632096
3.17 -0.666215
3.18 -0.69281
3.19 -0.71137
3.2 -0.719848
3.21 -0.718969
3.22 -0.709134
3.23 -0.691523
3.24 -0.66878
3.25 -0.642984
3.26 -0.617467
3.27 -0.595214
3.28 -0.579261
3.29 -0.571633
3.3 -0.5755
3.31 -0.590488
3.32 -0.618437
3.33 -0.657586
3.34 -0.706719
3.35 -0.763598
3.36 -0.824659
3.37 -0.886522
3.38 -0.945287
3.39 -0.996976
3.4 -1.03806
3.41 -1.06646
3.42 -1.07848
3.43 -1.07542
3.44 -1.05549
3.45 -1.02163
3.46 -0.975955
3.47 -0.921895
3.48 -0.864143
3.49 -0.807455
3.5 -0.756413
3.51 -0.715898
3.52 -0.68968
3.53 -0.679521
3.54 -0.688638
3.55 -0.714076
3.56 -0.755624
3.57 -0.807601
3.58 -0.864655
3.59 -0.918694
3.6 -0.962221
3.61 -0.982575
3.62 -0.973364
3.63 -0.922544
3.64 -0.821776
3.65 -0.666798
3.66 -0.445502
3.67 -0.163999
3.68 0.185769
3.69 0.594819
3.7 1.05865
3.71 1.56959
3.72 2.11231
3.73 2.67627
3.74 3.24289
3.75 3.79602
3.76 4.31758
3.77 4.79386
3.78 5.20203
3.79 5.53818
3.8 5.78095
3.81 5.92986
3.82 5.97856
3.83 5.92135
3.84 5.7713
3.85 5.5193
3.86 5.18887
3.87 4.78428
3.88 4.32209
3.89 3.81891
3.9 3.28833
3.91 2.74914
3.92 2.21645
3.93 1.7044
3.94 1.22499
3.95 0.790896
3.96 0.404246
3.97 0.0786588
3.98 -0.192454
3.99 -0.404562
4 -0.561919
4.01 -0.671367
4.02 -0.734497
4.03 -0.764303
4.04 -0.764606
4.05 -0.746158
4.06 -0.715757
4.07 -0.680541
4.08 -0.646292
4.09 -0.618446
4.1 -0.599306
4.11 -0.591462
4.12 -0.59525
4.13 -0.609543
4.14 -0.633708
4.15 -0.664208
4.16 -0.698891
4.17 -0.734227
4.18 -0.767376
4.19 -0.795139
4.2 -0.815947
4.21 -0.826542
4.22 -0.82718
4.23 -0.816403
4.24 -0.794464
4.25 -0.762367
4.26 -0.719992
4.27 -0.669838
4.28 -0.612294
4.29 -0.549416
4.3 -0.482332
4.31 -0.412121
4.32 -0.339944
4.33 -0.266254
4.34 -0.191727
4.35 -0.116564
4.36 -0.0409607
4.37 0.0349433
4.38 0.11098
4.39 0.186842
4.4 0.261979
4.41 0.335675
4.42 0.406954
4.43 0.474291
4.44 0.536759
4.45 0.591655
4.46 0.638341
4.47 0.674435
4.48 0.698498
4.49 0.70995
4.5 0.706271
4.51 0.689027
4.52 0.656457
4.53 0.610444
4.54 0.551795
4.55 0.481729
4.56 0.403263
4.57 0.317665
4.58 0.228485
4.59 0.137968
4.6 0.0488918
4.61 -0.0366797
4.62 -0.116034
4.63 -0.188495
4.64 -0.251997
4.65 -0.306699
4.66 -0.352416
4.67 -0.389249
4.68 -0.418929
4.69 -0.441657
4.7 -0.45987
4.71 -0.474711
4.72 -0.487936
4.73 -0.500935
4.74 -0.515066
4.75 -0.531038
4.76 -0.549669
4.77 -0.57092
4.78 -0.59465
4.79 -0.62039
4.8 -0.647217
4.81 -0.674197
4.82 -0.700237
4.83 -0.724207
4.84 -0.745093
4.85 -0.76232
4.86 -0.774827
4.87 -0.782991
4.88 -0.78629
4.89 -0.785488
4.9 -0.781104
4.91 -0.77391
4.92 -0.765096
4.93 -0.755611
4.94 -0.746604
4.95 -0.739067
4.96 -0.733856
4.97 -0.731407
4.98 -0.73246
4.99 -0.736642
5 -0.744205
5.01 -0.754478
5.02 -0.766987
5.03 -0.781085
5.04 -0.795952
5.05 -0.810906
5.06 -0.825299
5.07 -0.838576
5.08 -0.850362
5.09 -0.860545
5.1 -0.868871
5.11 -0.875652
5.12 -0.880828
5.13 -0.884678
5.14 -0.887251
5.15 -0.888416
5.16 -0.88808
5.17 -0.885391
5.18 -0.879854
5.19 -0.87012
5.2 -0.854757
5.21 -0.832578
5.22 -0.800763
5.23 -0.758904
5.24 -0.703908
5.25 -0.635337
5.26 -0.551991
5.27 -0.452562
5.28 -0.338837
5.29 -0.209367
5.3 -0.0679659
5.31 0.0840364
5.32 0.243024
5.33 0.405162
5.34 0.565845
5.35 0.720789
5.36 0.864123
5.37 0.991777
5.38 1.09928
5.39 1.18123
5.4 1.2374
5.41 1.26086
5.42 1.25491
5.43 1.21694
5.44 1.14866
5.45 1.05361
5.46 0.932245
5.47 0.791976
5.48 0.635328
5.49 0.469069
5.5 0.298163
5.51 0.128384
5.52 -0.035811
5.53 -0.188347
5.54 -0.327069
5.55 -0.447971
5.56 -0.549274
5.57 -0.631144
5.58 -0.691297
5.59 -0.733543
5.6 -0.757338
5.61 -0.76658
5.62 -0.763618
5.63 -0.751108
5.64 -0.732682
5.65 -0.710408
5.66 -0.687113
5.67 -0.664452
5.68 -0.643711
5.69 -0.625309
5.7 -0.609472
5.71 -0.595278
5.72 -0.581825
5.73 -0.567613
5.74 -0.551184
5.75 -0.530718
5.76 -0.50541
5.77 -0.47327
5.78 -0.434652
5.79 -0.388947
5.8 -0.336825
5.81 -0.279605
5.82 -0.218511
5.83 -0.156017
5.84 -0.0944336
5.85 -0.0363579
5.86 0.0157465
5.87 0.0588766
5.88 0.0920725
5.89 0.111788
5.9 0.118777
5.91 0.111503
5.92 0.0903954
5.93 0.0569268
5.94 0.0112018
5.95 -0.0433295
5.96 -0.105445
5.97 -0.171956
5.98 -0.240532
5.99 -0.308552
6 -0.374092
6.01 -0.434679
6.02 -0.489661
6.03 -0.537793
6.04 -0.578911
6.05 -0.613642
6.06 -0.642065
6.07 -0.666101
6.08 -0.686634
6.09 -0.705518
6.1 -0.724138
6.11 -0.743985
6.12 -0.765902
6.13 -0.791043
6.14 -0.819248
6.15 -0.850605
6.16 -0.884419
6.17 -0.919673
6.18 -0.955091
6.19 -0.989273
6.2 -1.02049
6.21 -1.04749
6.22 -1.0691
6.23 -1.08408
6.24 -1.09271
6.25 -1.09395
6.26 -1.0893
6.27 -1.07918
6.28 -1.06507
6.29 -1.04854
6.3 -1.03116
6.31 -1.01445
6.32 -0.999779
6.33 -0.987779
6.34 -0.978595
6.35 -0.971657
6.36 -0.965385
6.37 -0.957202
6.38 -0.944131
6.39 -0.921861
6.4 -0.885547
6.41 -0.831428
6.42 -0.751468
6.43 -0.644472
6.44 -0.502315
6.45 -0.323978
6.46 -0.106729
6.47 0.152652
6.48 0.44919
6.49 0.786462
6.5 1.15483
6.51 1.55115
6.52 1.96687
6.53 2.39286
6.54 2.81886
6.55 3.2346
6.56 3.62708
6.57 3.98655
6.58 4.30281
6.59 4.56297
6.6 4.76576
6.61 4.89455
6.62 4.9552
6.63 4.94021
6.64 4.85104
6.65 4.69418
6.66 4.46681
6.67 4.18497
6.68 3.8505
6.69 3.47775
6.7 3.07636
6.71 2.65733
6.72 2.23267
6.73 1.81359
6.74 1.4092
6.75 1.02915
6.76 0.680908
6.77 0.367793
6.78 0.098547
6.79 -0.130834
6.8 -0.314869
6.81 -0.458325
6.82 -0.563205
6.83 -0.631577
6.84 -0.671425
6.85 -0.683683
6.86 -0.677263
6.87 -0.655611
6.88 -0.624112
6.89 -0.58718
6.9 -0.548238
6.91 -0.510235
6.92 -0.475396
6.93 -0.444797
6.94 -0.41901
6.95 -0.398285
6.96 -0.381676
6.97 -0.36903
6.98 -0.358952
6.99 -0.350828
7 -0.343876
7.01 -0.33761
7.02 -0.331944
7.03 -0.326969
7.04 -0.3233
7.05 -0.321654
7.06 -0.322966
7.07 -0.328604
7.08 -0.339078
7.09 -0.356265
7.1 -0.379995
7.11 -0.411197
7.12 -0.449814
7.13 -0.495086
7.14 -0.546923
7.15 -0.603285
7.16 -0.663136
7.17 -0.724325
7.18 -0.785034
7.19 -0.843018
7.2 -0.896865
7.21 -0.944014
7.22 -0.98403
7.23 -1.01545
7.24 -1.03791
7.25 -1.05196
7.26 -1.05715
7.27 -1.05564
7.28 -1.048
7.29 -1.03639
7.3 -1.02243
7.31 -1.00801
7.32 -0.994649
7.33 -0.984083
7.34 -0.976912
7.35 -0.973876
7.36 -0.974857
7.37 -0.979047
7.38 -0.98546
7.39 -0.992132
7.4 -0.996823
7.41 -0.997058
7.42 -0.990281
7.43 -0.973075
7.44 -0.944241
7.45 -0.899327
7.46 -0.838687
7.47 -0.759918
7.48 -0.662688
7.49 -0.54829
7.5 -0.415745
7.51 -0.269272
7.52 -0.109752
7.53 0.0584982
7.54 0.232076
7.55 0.406718
7.56 0.578435
7.57 0.741898
7.58 0.894056
7.59 1.0303
7.6 1.14714
7.61 1.24319
7.62 1.31338
7.63 1.35994
7.64 1.37926
7.65 1.37354
7.66 1.34345
7.67 1.2894
7.68 1.21594
7.69 1.12286
7.7 1.01578
7.71 0.896735
7.72 0.76949
7.73 0.637568
7.74 0.504113
7.75 0.372271
7.76 0.245182
7.77 0.125133
7.78 0.0142055
7.79 -0.0850697
7.8 -0.172671
7.81 -0.245524
7.82 -0.304926
7.83 -0.349543
7.84 -0.379585
7.85 -0.396244
7.86 -0.39858
7.87 -0.389468
7.88 -0.368723
7.89 -0.338732
7.9 -0.300994
7.91 -0.257143
7.92 -0.209653
7.93 -0.160282
7.94 -0.111419
7.95 -0.0651627
7.96 -0.0237129
7.97 0.0114847
7.98 0.0376757
7.99 0.0547327
8 0.0603604
8.01 0.0546518
8.02 0.0372577
8.03 0.0076727
8.04 -0.0322482
8.05 -0.0830665
8.06 -0.141965
8.07 -0.207927
8.08 -0.278796
8.09 -0.352418
8.1 -0.426748
8.11 -0.49976
8.12 -0.569374
8.13 -0.634189
8.14 -0.693029
8.15 -0.744631
8.16 -0.789436
8.17 -0.826404
8.18 -0.857043
8.19 -0.88168
8.2 -0.901569
8.21 -0.918141
8.22 -0.932463
8.23 -0.946002
8.24 -0.959678
8.25 -0.974139
8.26 -0.989548
8.27 -1.00554
8.28 -1.02117
8.29 -1.03461
8.3 -1.04396
8.31 -1.0463
8.32 -1.03834
8.33 -1.01766
8.34 -0.978676
8.35 -0.920723
8.36 -0.838278
8.37 -0.730498
8.38 -0.595584
8.39 -0.430953
8.4 -0.239968
8.41 -0.0197374
8.42 0.2235
8.43 0.488046
8.44 0.768698
8.45 1.05945
8.46 1.35435
8.47 1.64622
8.48 1.92719
8.49 2.19042
8.5 2.42924
8.51 2.63489
8.52 2.80577
8.53 2.93091
8.54 3.0127
8.55 3.04574
8.56 3.02955
8.57 2.96769
8.58 2.85653
8.59 2.70607
8.6 2.51606
8.61 2.29511
8.62 2.04894
8.63 1.78367
8.64 1.50779
8.65 1.22744
8.66 0.949935
8.67 0.6815
8.68 0.428025
8.69 0.192774
8.7 -0.0177068
8.71 -0.204394
8.72 -0.362775
8.73 -0.494432
8.74 -0.599785
8.75 -0.678898
8.76 -0.736647
8.77 -0.772689
8.78 -0.793041
8.79 -0.799841
8.8 -0.796971
8.81 -0.788082
8.82 -0.775976
8.83 -0.763745
8.84 -0.753777
8.85 -0.747819
8.86 -0.74709
8.87 -0.752753
8.88 -0.764338
8.89 -0.782575
8.9 -0.80601
8.91 -0.834161
8.92 -0.865792
8.93 -0.899575
8.94 -0.934347
8.95 -0.968809
8.96 -1.00178
8.97 -1.0324
8.98 -1.05998
8.99 -1.08377
9 -1.10397
9.01 -1.11994
9.02 -1.13238
9.03 -1.14133
9.04 -1.14726
9.05 -1.15079
9.06 -1.15214
9.07 -1.15201
9.08 -1.15054
9.09 -1.14804
9.1 -1.14452
9.11 -1.13975
9.12 -1.13359
9.13 -1.12527
9.14 -1.11444
9.15 -1.10022
9.16 -1.0818
9.17 -1.05875
9.18 -1.02965
9.19 -0.994786
9.2 -0.953016
9.21 -0.904644
9.22 -0.849737
9.23 -0.788331
9.24 -0.721771
9.25 -0.65034
9.26 -0.575943
9.27 -0.499833
9.28 -0.423871
9.29 -0.349694
9.3 -0.279685
9.31 -0.215018
9.32 -0.158126
9.33 -0.11005
9.34 -0.0719594
9.35 -0.0454626
9.36 -0.0297314
9.37 -0.0265863
9.38 -0.0340571
9.39 -0.0521674
9.4 -0.0796017
9.41 -0.114433
9.42 -0.155652
9.43 -0.20054
9.44 -0.247492
9.45 -0.294288
9.46 -0.339182
9.47 -0.38019
9.48 -0.416481
9.49 -0.446133
9.5 -0.469344
9.51 -0.485417
9.52 -0.494563
9.53 -0.497706
9.54 -0.495033
9.55 -0.488434
9.56 -0.478783
9.57 -0.467775
9.58 -0.456742
9.59 -0.447193
9.6 -0.440052
9.61 -0.436791
9.62 -0.437616
9.63 -0.44321
9.64 -0.45366
9.65 -0.468497
9.66 -0.48782
9.67 -0.510411
9.68 -0.5359
9.69 -0.56324
9.7 -0.59169
9.71 -0.620512
9.72 -0.649127
9.73 -0.677034
9.74 -0.704085
9.75 -0.730163
9.76 -0.75536
9.77 -0.779883
9.78 -0.803848
9.79 -0.82743
9.8 -0.850506
9.81 -0.872747
9.82 -0.893495
9.83 -0.911375
9.84 -0.92523
9.85 -0.932035
9.86 -0.930045
9.87 -0.915674
9.88 -0.88528
9.89 -0.83665
9.9 -0.763128
9.91 -0.664827
9.92 -0.535435
9.93 -0.374347
9.94 -0.179861
9.95 0.0510909
9.96 0.314197
9.97 0.61292
9.98 0.939917
9.99 1.2932
10 1.66683
10.01 2.05362
10.02 2.44682
10.03 2.83771
10.04 3.21709
10.05 3.57653
10.06 3.90799
10.07 4.20059
10.08 4.45203
10.09 4.64884
10.1 4.79307
10.11 4.87787
10.12 4.90171
10.13 4.86866
10.14 4.77307
10.15 4.62699
10.16 4.42924
10.17 4.18981
10.18 3.91541
10.19 3.61264
10.2 3.29224
10.21 2.9607
10.22 2.62754
10.23 2.2999
10.24 1.9851
10.25 1.68743
10.26 1.41448
10.27 1.16593
10.28 0.94685
10.29 0.756068
10.3 0.593176
10.31 0.458346
10.32 0.346319
10.33 0.25739
10.34 0.185179
10.35 0.127274
10.36 0.0795631
10.37 0.0381305
10.38 7.1542e-05
10.39 -0.0378016
10.4 -0.0778284
10.41 -0.121668
10.42 -0.170354
10.43 -0.224795
10.44 -0.284336
10.45 -0.349252
10.46 -0.417999
10.47 -0.489729
10.48 -0.56299
10.49 -0.636403
10.5 -0.70837
10.51 -0.777818
10.52 -0.843208
10.53 -0.903739
10.54 -0.958657
10.55 -1.0069
10.56 -1.04885
10.57 -1.08324
10.58 -1.11093
10.59 -1.1315
10.6 -1.1451
10.61 -1.15236
10.62 -1.15268
10.63 -1.14727
10.64 -1.13569
10.65 -1.11864
10.66 -1.09643
10.67 -1.06909
10.68 -1.03756
10.69 -1.00168
10.7 -0.962561
10.71 -0.920584
10.72 -0.876565
10.73 -0.831397
10.74 -0.785983
10.75 -0.741315
10.76 -0.698554
10.77 -0.658683
10.78 -0.622656
10.79 -0.591814
10.8 -0.566365
10.81 -0.547973
10.82 -0.536321
10.83 -0.532214
10.84 -0.535801
10.85 -0.5465
10.86 -0.564963
10.87 -0.589617
10.88 -0.620509
10.89 -0.656336
10.9 -0.69617
10.91 -0.739069
10.92 -0.78366
10.93 -0.828947
10.94 -0.873729
10.95 -0.916972
10.96 -0.957656
10.97 -0.995226
10.98 -1.02849
10.99 -1.05759
11 -1.0817
11.01 -1.10101
11.02 -1.11557
11.03 -1.12534
11.04 -1.13121
11.05 -1.13314
11.06 -1.13228
11.07 -1.12914
11.08 -1.12461
11.09 -1.1195
11.1 -1.11465
11.11 -1.11073
11.12 -1.10849
11.13 -1.10831
11.14 -1.11046
11.15 -1.11511
11.16 -1.12179
11.17 -1.1302
11.18 -1.13925
11.19 -1.14786
11.2 -1.15437
11.21 -1.15731
11.22 -1.15384
11.23 -1.14271
11.24 -1.12058
11.25 -1.08566
11.26 -1.03587
11.27 -0.967848
11.28 -0.882034
11.29 -0.774111
11.3 -0.645972
11.31 -0.496085
11.32 -0.324989
11.33 -0.135257
11.34 0.0734287
11.35 0.295739
11.36 0.529766
11.37 0.770435
11.38 1.01341
11.39 1.25322
11.4 1.48541
11.41 1.70293
11.42 1.90239
11.43 2.07797
11.44 2.22499
11.45 2.34217
11.46 2.42212
11.47 2.46833
11.48 2.47586
11.49 2.44738
11.5 2.38422
11.51 2.2865
11.52 2.16099
11.53 2.00764
11.54 1.83436
11.55 1.64456
11.56 1.44382
11.57 1.2375
11.58 1.03051
11.59 0.827368
11.6 0.632701
11.61 0.449598
11.62 0.280516
11.63 0.12857
11.64 -0.00718297
11.65 -0.123858
11.66 -0.224223
11.67 -0.308261
11.68 -0.377707
11.69 -0.435391
11.7 -0.48225
11.71 -0.522097
11.72 -0.556473
11.73 -0.58801
11.74 -0.618478
11.75 -0.649507
11.76 -0.682017
11.77 -0.716885
11.78 -0.753901
11.79 -0.792806
11.8 -0.832665
11.81 -0.872289
11.82 -0.909845
11.83 -0.943901
11.84 -0.972066
11.85 -0.992647
11.86 -1.00393
11.87 -1.00333
11.88 -0.990845
11.89 -0.96331
11.9 -0.921746
11.91 -0.864883
11.92 -0.792738
11.93 -0.706826
11.94 -0.606243
11.95 -0.494356
11.96 -0.371559
11.97 -0.24069
11.98 -0.103962
11.99 0.0361691
12 0.176849
12.01 0.3151
12.02 0.448429
12.03 0.573942
12.04 0.688869
12.05 0.791897
12.06 0.879026
12.07 0.950932
12.08 1.00452
12.09 1.04008
12.1 1.05741
12.11 1.05539
12.12 1.0368
12.13 1.00024
12.14 0.949357
12.15 0.885026
12.16 0.809522
12.17 0.725739
12.18 0.635306
12.19 0.54155
12.2 0.446525
12.21 0.352677
12.22 0.261856
12.23 0.176171
12.24 0.0962325
12.25 0.0239257
12.26 -0.0412102
12.27 -0.0987022
12.28 -0.148938
12.29 -0.193096
12.3 -0.231476
12.31 -0.266084
12.32 -0.297841
12.33 -0.328356
12.34 -0.358823
12.35 -0.390478
12.36 -0.423954
12.37 -0.460094
12.38 -0.498703
12.39 -0.539662
12.4 -0.582227
12.41 -0.625326
