# xPDFsuite Configuration #
[PDF]
wavelength = 0.1432
dataformat = twotheta
inputfile = 1_1Pd_CeO2_cycle-00494.chi
backgroundfile = background-00000.chi
mode = xray
bgscale = 1.007
composition = CeO2
outputtype = gr
qmaxinst = 28.8974762299
qmin = 0.5
qmax = 27.9
rmax = 50.0
rmin = 0.0
rstep = 0.01
rpoly = 1.8657

[Misc]
inputdir = G:/SankarDec16/1Pd/Chi
savedir = D:/DATA/APS_CeO2/1Pd
backgroundfilefull = G:/SankarDec16/Background/background-00000.chi

#### start data
#S 1
#L r($\AA$)  G($\AA^{-2}$)
0 0
0.01 -0.00243765
0.02 -0.00469019
0.03 -0.00656713
0.04 -0.00792526
0.05 -0.00868522
0.06 -0.0087197
0.07 -0.008115
0.08 -0.00683167
0.09 -0.00503386
0.1 -0.00283587
0.11 -0.000411799
0.12 0.00205019
0.13 0.00433741
0.14 0.00630225
0.15 0.0077622
0.16 0.00861254
0.17 0.00881323
0.18 0.00828057
0.19 0.00714318
0.2 0.00541056
0.21 0.00327497
0.22 0.000879456
0.23 -0.00158018
0.24 -0.00392828
0.25 -0.00593602
0.26 -0.00750115
0.27 -0.00845903
0.28 -0.00874908
0.29 -0.00837276
0.3 -0.00729462
0.31 -0.0056787
0.32 -0.003583
0.33 -0.0012177
0.34 0.00125314
0.35 0.0036224
0.36 0.00573645
0.37 0.00736263
0.38 0.00844957
0.39 0.00885944
0.4 0.00857911
0.41 0.00765159
0.42 0.00609166
0.43 0.00409006
0.44 0.0017502
0.45 -0.000711004
0.46 -0.00311739
0.47 -0.00526155
0.48 -0.00702027
0.49 -0.00816969
0.5 -0.00871212
0.51 -0.00854415
0.52 -0.00770092
0.53 -0.00626478
0.54 -0.00430016
0.55 -0.00201428
0.56 0.000449546
0.57 0.00287925
0.58 0.00509616
0.59 0.00690365
0.6 0.00821577
0.61 0.00882956
0.62 0.00880102
0.63 0.00806687
0.64 0.00670874
0.65 0.00484399
0.66 0.00258342
0.67 0.000139559
0.68 -0.00231201
0.69 -0.00457535
0.7 -0.00647889
0.71 -0.00784707
0.72 -0.00863577
0.73 -0.00867332
0.74 -0.00806609
0.75 -0.00679351
0.76 -0.00497855
0.77 -0.00276635
0.78 -0.000306444
0.79 0.00219531
0.8 0.00454295
0.81 0.00656769
0.82 0.00811586
0.83 0.00904376
0.84 0.00935082
0.85 0.00890774
0.86 0.00786264
0.87 0.00623786
0.88 0.00418746
0.89 0.00187217
0.9 -0.000534428
0.91 -0.00285072
0.92 -0.00488246
0.93 -0.00650593
0.94 -0.0076062
0.95 -0.00809537
0.96 -0.0080229
0.97 -0.00733707
0.98 -0.00621914
0.99 -0.00475534
1 -0.00313066
1.01 -0.00151526
1.02 -0.000115852
1.03 0.000939201
1.04 0.00145685
1.05 0.0013912
1.06 0.000688135
1.07 -0.000651788
1.08 -0.00249249
1.09 -0.00475872
1.1 -0.0071962
1.11 -0.00959335
1.12 -0.0116767
1.13 -0.0132186
1.14 -0.0138786
1.15 -0.0135661
1.16 -0.0119684
1.17 -0.00909909
1.18 -0.00489714
1.19 0.000621424
1.2 0.0072004
1.21 0.0147692
1.22 0.022889
1.23 0.0312678
1.24 0.0394747
1.25 0.0471371
1.26 0.0537252
1.27 0.0590084
1.28 0.0624342
1.29 0.0638771
1.3 0.063083
1.31 0.0598393
1.32 0.0543683
1.33 0.0463686
1.34 0.0363893
1.35 0.0244904
1.36 0.0110966
1.37 -0.00336265
1.38 -0.0184821
1.39 -0.0337206
1.4 -0.0485639
1.41 -0.062539
1.42 -0.0751782
1.43 -0.0859564
1.44 -0.0947229
1.45 -0.100769
1.46 -0.104269
1.47 -0.104818
1.48 -0.102432
1.49 -0.0972485
1.5 -0.0890945
1.51 -0.0785382
1.52 -0.0655464
1.53 -0.0507109
1.54 -0.034382
1.55 -0.0170398
1.56 0.000745119
1.57 0.0184109
1.58 0.0354159
1.59 0.0511435
1.6 0.0650569
1.61 0.0767811
1.62 0.0856
1.63 0.0915694
1.64 0.0940444
1.65 0.0932184
1.66 0.0890054
1.67 0.0814296
1.68 0.0710616
1.69 0.0578582
1.7 0.042727
1.71 0.0260472
1.72 0.00855283
1.73 -0.00910841
1.74 -0.026189
1.75 -0.042166
1.76 -0.0562858
1.77 -0.0682369
1.78 -0.0776436
1.79 -0.0842026
1.8 -0.0881737
1.81 -0.0892642
1.82 -0.0881929
1.83 -0.0851746
1.84 -0.0808547
1.85 -0.0758601
1.86 -0.0708804
1.87 -0.06654
1.88 -0.0635834
1.89 -0.0624302
1.9 -0.063504
1.91 -0.067152
1.92 -0.0731674
1.93 -0.0818042
1.94 -0.0923485
1.95 -0.104489
1.96 -0.117474
1.97 -0.130565
1.98 -0.142811
1.99 -0.153506
2 -0.161546
2.01 -0.166383
2.02 -0.167329
2.03 -0.163705
2.04 -0.155707
2.05 -0.142468
2.06 -0.124871
2.07 -0.102785
2.08 -0.0768321
2.09 -0.0477114
2.1 -0.0158498
2.11 0.0177266
2.12 0.0525082
2.13 0.0877216
2.14 0.122865
2.15 0.157475
2.16 0.191366
2.17 0.224288
2.18 0.256419
2.19 0.287843
2.2 0.318846
2.21 0.349712
2.22 0.380754
2.23 0.412163
2.24 0.444112
2.25 0.476514
2.26 0.509168
2.27 0.541604
2.28 0.573274
2.29 0.603081
2.3 0.630304
2.31 0.653591
2.32 0.67178
2.33 0.684023
2.34 0.688451
2.35 0.685225
2.36 0.672595
2.37 0.651022
2.38 0.620266
2.39 0.580357
2.4 0.532867
2.41 0.477724
2.42 0.417429
2.43 0.353095
2.44 0.286776
2.45 0.220276
2.46 0.155693
2.47 0.0944149
2.48 0.0385012
2.49 -0.0112622
2.5 -0.0539172
2.51 -0.0886801
2.52 -0.116319
2.53 -0.136037
2.54 -0.149744
2.55 -0.157911
2.56 -0.162088
2.57 -0.163761
2.58 -0.164344
2.59 -0.165314
2.6 -0.168053
2.61 -0.173455
2.62 -0.182246
2.63 -0.194953
2.64 -0.211171
2.65 -0.231085
2.66 -0.253472
2.67 -0.277644
2.68 -0.302353
2.69 -0.326481
2.7 -0.348619
2.71 -0.368022
2.72 -0.383406
2.73 -0.394523
2.74 -0.401031
2.75 -0.402862
2.76 -0.400896
2.77 -0.39538
2.78 -0.38788
2.79 -0.379433
2.8 -0.371518
2.81 -0.365339
2.82 -0.362498
2.83 -0.363525
2.84 -0.369718
2.85 -0.381
2.86 -0.397455
2.87 -0.418797
2.88 -0.443779
2.89 -0.471675
2.9 -0.500632
2.91 -0.529174
2.92 -0.555533
2.93 -0.57836
2.94 -0.595677
2.95 -0.607175
2.96 -0.611322
2.97 -0.6085
2.98 -0.598769
2.99 -0.582629
3 -0.561759
3.01 -0.53708
3.02 -0.510912
3.03 -0.485007
3.04 -0.461449
3.05 -0.441795
3.06 -0.428263
3.07 -0.421176
3.08 -0.422181
3.09 -0.430789
3.1 -0.446862
3.11 -0.469768
3.12 -0.497636
3.13 -0.529392
3.14 -0.562557
3.15 -0.595268
3.16 -0.625392
3.17 -0.651404
3.18 -0.67118
3.19 -0.684593
3.2 -0.690295
3.21 -0.689089
3.22 -0.681501
3.23 -0.66867
3.24 -0.65268
3.25 -0.63536
3.26 -0.619142
3.27 -0.606361
3.28 -0.599215
3.29 -0.59909
3.3 -0.608272
3.31 -0.626215
3.32 -0.654134
3.33 -0.690461
3.34 -0.734094
3.35 -0.783143
3.36 -0.834844
3.37 -0.886462
3.38 -0.935119
3.39 -0.977767
3.4 -1.01182
3.41 -1.03581
3.42 -1.04704
3.43 -1.04662
3.44 -1.0333
3.45 -1.00939
3.46 -0.976507
3.47 -0.937223
3.48 -0.89501
3.49 -0.853255
3.5 -0.815238
3.51 -0.7843
3.52 -0.762919
3.53 -0.752104
3.54 -0.753594
3.55 -0.765007
3.56 -0.785362
3.57 -0.810173
3.58 -0.83493
3.59 -0.852947
3.6 -0.858756
3.61 -0.841818
3.62 -0.797937
3.63 -0.717567
3.64 -0.594612
3.65 -0.426246
3.66 -0.203148
3.67 0.0690839
3.68 0.396504
3.69 0.771403
3.7 1.18979
3.71 1.64512
3.72 2.12492
3.73 2.62027
3.74 3.11624
3.75 3.59954
3.76 4.05546
3.77 4.47285
3.78 4.83281
3.79 5.13224
3.8 5.35318
3.81 5.49507
3.82 5.55225
3.83 5.51935
3.84 5.40692
3.85 5.20618
3.86 4.93649
3.87 4.60039
3.88 4.21109
3.89 3.78216
3.9 3.32391
3.91 2.85267
3.92 2.3803
3.93 1.91944
3.94 1.48047
3.95 1.07454
3.96 0.704759
3.97 0.383123
3.98 0.105706
3.99 -0.122626
4 -0.304117
4.01 -0.443497
4.02 -0.540703
4.03 -0.606255
4.04 -0.642178
4.05 -0.657464
4.06 -0.657551
4.07 -0.648261
4.08 -0.635238
4.09 -0.622795
4.1 -0.614141
4.11 -0.611805
4.12 -0.616929
4.13 -0.629328
4.14 -0.649044
4.15 -0.673759
4.16 -0.702065
4.17 -0.731263
4.18 -0.759074
4.19 -0.782776
4.2 -0.80084
4.21 -0.810228
4.22 -0.810808
4.23 -0.800928
4.24 -0.780409
4.25 -0.749862
4.26 -0.708748
4.27 -0.659316
4.28 -0.601687
4.29 -0.537935
4.3 -0.469269
4.31 -0.397014
4.32 -0.322715
4.33 -0.247348
4.34 -0.172042
4.35 -0.0975814
4.36 -0.02463
4.37 0.0464418
4.38 0.114977
4.39 0.181001
4.4 0.243844
4.41 0.3034
4.42 0.359206
4.43 0.410511
4.44 0.457223
4.45 0.497748
4.46 0.53218
4.47 0.559172
4.48 0.578017
4.49 0.588451
4.5 0.588813
4.51 0.580048
4.52 0.560755
4.53 0.531899
4.54 0.49366
4.55 0.446344
4.56 0.391733
4.57 0.329931
4.58 0.26331
4.59 0.192904
4.6 0.120477
4.61 0.0475426
4.62 -0.0242664
4.63 -0.0938329
4.64 -0.159658
4.65 -0.221108
4.66 -0.277501
4.67 -0.328188
4.68 -0.373665
4.69 -0.41321
4.7 -0.447999
4.71 -0.478109
4.72 -0.504298
4.73 -0.527375
4.74 -0.547747
4.75 -0.566376
4.76 -0.583609
4.77 -0.600023
4.78 -0.615898
4.79 -0.631413
4.8 -0.64666
4.81 -0.661534
4.82 -0.675951
4.83 -0.689681
4.84 -0.702505
4.85 -0.714278
4.86 -0.724677
4.87 -0.733773
4.88 -0.741345
4.89 -0.747554
4.9 -0.752478
4.91 -0.756255
4.92 -0.759212
4.93 -0.761511
4.94 -0.763519
4.95 -0.765473
4.96 -0.767632
4.97 -0.770168
4.98 -0.773293
4.99 -0.777013
5 -0.781446
5.01 -0.786525
5.02 -0.792217
5.03 -0.79848
5.04 -0.805185
5.05 -0.812326
5.06 -0.819778
5.07 -0.82752
5.08 -0.835492
5.09 -0.843633
5.1 -0.851862
5.11 -0.860036
5.12 -0.86791
5.13 -0.875157
5.14 -0.881316
5.15 -0.885624
5.16 -0.887544
5.17 -0.885556
5.18 -0.879065
5.19 -0.866434
5.2 -0.846315
5.21 -0.817843
5.22 -0.778518
5.23 -0.728675
5.24 -0.665937
5.25 -0.590697
5.26 -0.502551
5.27 -0.401153
5.28 -0.288586
5.29 -0.16448
5.3 -0.0323164
5.31 0.106249
5.32 0.247988
5.33 0.389772
5.34 0.527563
5.35 0.658406
5.36 0.777532
5.37 0.882227
5.38 0.96927
5.39 1.03476
5.4 1.07902
5.41 1.09688
5.42 1.09134
5.43 1.06053
5.44 1.00596
5.45 0.930404
5.46 0.834145
5.47 0.722816
5.48 0.598089
5.49 0.464985
5.5 0.32706
5.51 0.188411
5.52 0.0524373
5.53 -0.0766298
5.54 -0.196909
5.55 -0.305432
5.56 -0.400624
5.57 -0.482273
5.58 -0.548354
5.59 -0.601197
5.6 -0.639888
5.61 -0.666817
5.62 -0.683239
5.63 -0.690522
5.64 -0.691209
5.65 -0.686098
5.66 -0.677478
5.67 -0.666251
5.68 -0.653451
5.69 -0.639681
5.7 -0.625076
5.71 -0.609654
5.72 -0.59292
5.73 -0.574392
5.74 -0.553417
5.75 -0.529114
5.76 -0.501291
5.77 -0.468872
5.78 -0.4323
5.79 -0.39133
5.8 -0.346498
5.81 -0.298694
5.82 -0.248778
5.83 -0.198301
5.84 -0.148798
5.85 -0.101919
5.86 -0.0592808
5.87 -0.0229023
5.88 0.00656364
5.89 0.0265894
5.9 0.037582
5.91 0.0382634
5.92 0.0286525
5.93 0.00952397
5.94 -0.0195586
5.95 -0.0563426
5.96 -0.100539
5.97 -0.150068
5.98 -0.203553
5.99 -0.259443
6 -0.316124
6.01 -0.372183
6.02 -0.426552
6.03 -0.478209
6.04 -0.526515
6.05 -0.57133
6.06 -0.612134
6.07 -0.649612
6.08 -0.68369
6.09 -0.715123
6.1 -0.744383
6.11 -0.771959
6.12 -0.798468
6.13 -0.824161
6.14 -0.849386
6.15 -0.874178
6.16 -0.898454
6.17 -0.922037
6.18 -0.94445
6.19 -0.965456
6.2 -0.984409
6.21 -1.00104
6.22 -1.01501
6.23 -1.02594
6.24 -1.03408
6.25 -1.03908
6.26 -1.04161
6.27 -1.04181
6.28 -1.04018
6.29 -1.03722
6.3 -1.03319
6.31 -1.02842
6.32 -1.02277
6.33 -1.01591
6.34 -1.00709
6.35 -0.994817
6.36 -0.97793
6.37 -0.953198
6.38 -0.919089
6.39 -0.871952
6.4 -0.808549
6.41 -0.726807
6.42 -0.620841
6.43 -0.491166
6.44 -0.332175
6.45 -0.144307
6.46 0.0736371
6.47 0.323137
6.48 0.599756
6.49 0.905305
6.5 1.23226
6.51 1.57776
6.52 1.9352
6.53 2.29778
6.54 2.65757
6.55 3.00732
6.56 3.33715
6.57 3.64008
6.58 3.90854
6.59 4.13277
6.6 4.31197
6.61 4.4331
6.62 4.50056
6.63 4.50803
6.64 4.45603
6.65 4.34903
6.66 4.18354
6.67 3.97168
6.68 3.71344
6.69 3.4195
6.7 3.09666
6.71 2.75254
6.72 2.39704
6.73 2.03771
6.74 1.68302
6.75 1.34047
6.76 1.01691
6.77 0.716212
6.78 0.446118
6.79 0.205366
6.8 -0.000399445
6.81 -0.17326
6.82 -0.313377
6.83 -0.420714
6.84 -0.500912
6.85 -0.552859
6.86 -0.583789
6.87 -0.595552
6.88 -0.592432
6.89 -0.578523
6.9 -0.556305
6.91 -0.529729
6.92 -0.500863
6.93 -0.472017
6.94 -0.444644
6.95 -0.42004
6.96 -0.398515
6.97 -0.380934
6.98 -0.36681
6.99 -0.356281
7 -0.349039
7.01 -0.344655
7.02 -0.343225
7.03 -0.344213
7.04 -0.347899
7.05 -0.354173
7.06 -0.363251
7.07 -0.375602
7.08 -0.39117
7.09 -0.410854
7.1 -0.434373
7.11 -0.462197
7.12 -0.494293
7.13 -0.530277
7.14 -0.570229
7.15 -0.613073
7.16 -0.658397
7.17 -0.705058
7.18 -0.752097
7.19 -0.798304
7.2 -0.842764
7.21 -0.884004
7.22 -0.921523
7.23 -0.954286
7.24 -0.981763
7.25 -1.00398
7.26 -1.02022
7.27 -1.03149
7.28 -1.0376
7.29 -1.03959
7.3 -1.03812
7.31 -1.03391
7.32 -1.02796
7.33 -1.0208
7.34 -1.01315
7.35 -1.00528
7.36 -0.99729
7.37 -0.988972
7.38 -0.979677
7.39 -0.968743
7.4 -0.954815
7.41 -0.936741
7.42 -0.913117
7.43 -0.881939
7.44 -0.842675
7.45 -0.792466
7.46 -0.731643
7.47 -0.658573
7.48 -0.572937
7.49 -0.475477
7.5 -0.365272
7.51 -0.245027
7.52 -0.115027
7.53 0.0219363
7.54 0.163695
7.55 0.307491
7.56 0.450438
7.57 0.588938
7.58 0.720494
7.59 0.841653
7.6 0.949513
7.61 1.0426
7.62 1.11664
7.63 1.17269
7.64 1.20732
7.65 1.22154
7.66 1.21523
7.67 1.18784
7.68 1.14265
7.69 1.0785
7.7 0.999866
7.71 0.907839
7.72 0.805331
7.73 0.695411
7.74 0.580333
7.75 0.463465
7.76 0.347397
7.77 0.234756
7.78 0.12777
7.79 0.0290998
7.8 -0.060538
7.81 -0.138039
7.82 -0.203927
7.83 -0.256615
7.84 -0.295884
7.85 -0.322556
7.86 -0.335477
7.87 -0.337234
7.88 -0.327502
7.89 -0.308522
7.9 -0.281699
7.91 -0.248566
7.92 -0.211536
7.93 -0.172211
7.94 -0.13291
7.95 -0.0955479
7.96 -0.0621375
7.97 -0.0339957
7.98 -0.0135109
7.99 -0.000799258
8 0.00220924
8.01 -0.00436549
8.02 -0.0207758
8.03 -0.0473985
8.04 -0.0826491
8.05 -0.126977
8.06 -0.178042
8.07 -0.235028
8.08 -0.296206
8.09 -0.359847
8.1 -0.424383
8.11 -0.488184
8.12 -0.549662
8.13 -0.607696
8.14 -0.661349
8.15 -0.709609
8.16 -0.752729
8.17 -0.78981
8.18 -0.821879
8.19 -0.849016
8.2 -0.871977
8.21 -0.891696
8.22 -0.908632
8.23 -0.923823
8.24 -0.937577
8.25 -0.950262
8.26 -0.9618
8.27 -0.971605
8.28 -0.979071
8.29 -0.982358
8.3 -0.980306
8.31 -0.970521
8.32 -0.950571
8.33 -0.918843
8.34 -0.870956
8.35 -0.806861
8.36 -0.722315
8.37 -0.617008
8.38 -0.489741
8.39 -0.338683
8.4 -0.16668
8.41 0.0284345
8.42 0.241661
8.43 0.471633
8.44 0.71427
8.45 0.964885
8.46 1.21886
8.47 1.47062
8.48 1.71402
8.49 1.9437
8.5 2.15439
8.51 2.33913
8.52 2.49651
8.53 2.61762
8.54 2.7041
8.55 2.75125
8.56 2.75822
8.57 2.72745
8.58 2.6552
8.59 2.54917
8.6 2.40823
8.61 2.23889
8.62 2.04521
8.63 1.83133
8.64 1.60426
8.65 1.36793
8.66 1.12887
8.67 0.891783
8.68 0.661711
8.69 0.441954
8.7 0.237849
8.71 0.0498636
8.72 -0.117916
8.73 -0.26565
8.74 -0.392809
8.75 -0.498416
8.76 -0.585609
8.77 -0.652948
8.78 -0.704822
8.79 -0.742124
8.8 -0.767471
8.81 -0.78376
8.82 -0.79251
8.83 -0.796905
8.84 -0.798518
8.85 -0.799425
8.86 -0.801014
8.87 -0.804636
8.88 -0.810824
8.89 -0.820557
8.9 -0.833573
8.91 -0.850039
8.92 -0.8696
8.93 -0.891628
8.94 -0.915748
8.95 -0.941012
8.96 -0.96682
8.97 -0.992397
8.98 -1.01714
8.99 -1.04035
9 -1.06177
9.01 -1.08073
9.02 -1.0973
9.03 -1.11118
9.04 -1.12235
9.05 -1.13101
9.06 -1.13694
9.07 -1.14062
9.08 -1.14188
9.09 -1.14098
9.1 -1.13794
9.11 -1.13258
9.12 -1.12506
9.13 -1.11478
9.14 -1.10184
9.15 -1.08568
9.16 -1.0659
9.17 -1.04235
9.18 -1.01405
9.19 -0.981328
9.2 -0.94334
9.21 -0.900298
9.22 -0.852196
9.23 -0.798942
9.24 -0.741467
9.25 -0.679781
9.26 -0.615264
9.27 -0.548715
9.28 -0.481468
9.29 -0.414793
9.3 -0.35043
9.31 -0.289485
9.32 -0.233896
9.33 -0.184737
9.34 -0.143163
9.35 -0.11077
9.36 -0.0872151
9.37 -0.0744005
9.38 -0.0710363
9.39 -0.0775526
9.4 -0.0932303
9.41 -0.11665
9.42 -0.147453
9.43 -0.18323
9.44 -0.222941
9.45 -0.264532
9.46 -0.306416
9.47 -0.346786
9.48 -0.384463
9.49 -0.417615
9.5 -0.44585
9.51 -0.468189
9.52 -0.484341
9.53 -0.494743
9.54 -0.499065
9.55 -0.498813
9.56 -0.49439
9.57 -0.48727
9.58 -0.47861
9.59 -0.46976
9.6 -0.461878
9.61 -0.456398
9.62 -0.453986
9.63 -0.455586
9.64 -0.461721
9.65 -0.472312
9.66 -0.48792
9.67 -0.507581
9.68 -0.531291
9.69 -0.558085
9.7 -0.58725
9.71 -0.618008
9.72 -0.649424
9.73 -0.680728
9.74 -0.711221
9.75 -0.740261
9.76 -0.767305
9.77 -0.792111
9.78 -0.813975
9.79 -0.832986
9.8 -0.84841
9.81 -0.859996
9.82 -0.867156
9.83 -0.868658
9.84 -0.864122
9.85 -0.851015
9.86 -0.828706
9.87 -0.794613
9.88 -0.74637
9.89 -0.682739
9.9 -0.598832
9.91 -0.495188
9.92 -0.367116
9.93 -0.214349
9.94 -0.0356419
9.95 0.1714
9.96 0.403522
9.97 0.663625
9.98 0.946205
9.99 1.25001
10 1.57072
10.01 1.90292
10.02 2.24173
10.03 2.58028
10.04 2.91161
10.05 3.22893
10.06 3.52578
10.07 3.79335
10.08 4.02929
10.09 4.22247
10.1 4.37379
10.11 4.47707
10.12 4.53018
10.13 4.5357
10.14 4.4878
10.15 4.39575
10.16 4.25735
10.17 4.08016
10.18 3.86902
10.19 3.62835
10.2 3.36727
10.21 3.08987
10.22 2.80483
10.23 2.5177
10.24 2.23485
10.25 1.96068
10.26 1.7014
10.27 1.45824
10.28 1.23577
10.29 1.03421
10.3 0.854128
10.31 0.696603
10.32 0.558193
10.33 0.440119
10.34 0.337707
10.35 0.249706
10.36 0.17327
10.37 0.105298
10.38 0.0441193
10.39 -0.0133564
10.4 -0.0686434
10.41 -0.123515
10.42 -0.179042
10.43 -0.23611
10.44 -0.294879
10.45 -0.355643
10.46 -0.417874
10.47 -0.481182
10.48 -0.544837
10.49 -0.608124
10.5 -0.670068
10.51 -0.730094
10.52 -0.787208
10.53 -0.840909
10.54 -0.890685
10.55 -0.935768
10.56 -0.976365
10.57 -1.01147
10.58 -1.04159
10.59 -1.06625
10.6 -1.08538
10.61 -1.09928
10.62 -1.10721
10.63 -1.10997
10.64 -1.10695
10.65 -1.09857
10.66 -1.08491
10.67 -1.06581
10.68 -1.04209
10.69 -1.01342
10.7 -0.98087
10.71 -0.944749
10.72 -0.905843
10.73 -0.865091
10.74 -0.823318
10.75 -0.781652
10.76 -0.741207
10.77 -0.703052
10.78 -0.668171
10.79 -0.637899
10.8 -0.612526
10.81 -0.593648
10.82 -0.581018
10.83 -0.575398
10.84 -0.576925
10.85 -0.585036
10.86 -0.600292
10.87 -0.621199
10.88 -0.647743
10.89 -0.678681
10.9 -0.713126
10.91 -0.750182
10.92 -0.788613
10.93 -0.827514
10.94 -0.865868
10.95 -0.902811
10.96 -0.937536
10.97 -0.969652
10.98 -0.998282
10.99 -1.02364
11 -1.04518
11.01 -1.06318
11.02 -1.07778
11.03 -1.08904
11.04 -1.09767
11.05 -1.10372
11.06 -1.10797
11.07 -1.11079
11.08 -1.11269
11.09 -1.11413
11.1 -1.11551
11.11 -1.11712
11.12 -1.11922
11.13 -1.12185
11.14 -1.12497
11.15 -1.12838
11.16 -1.1317
11.17 -1.13429
11.18 -1.13549
11.19 -1.13429
11.2 -1.12949
11.21 -1.12019
11.22 -1.10413
11.23 -1.08082
11.24 -1.04776
11.25 -1.00391
11.26 -0.94791
11.27 -0.877382
11.28 -0.792897
11.29 -0.691256
11.3 -0.574024
11.31 -0.440053
11.32 -0.289725
11.33 -0.124946
11.34 0.0546928
11.35 0.24521
11.36 0.44537
11.37 0.651416
11.38 0.860154
11.39 1.06755
11.4 1.27012
11.41 1.46256
11.42 1.64201
11.43 1.80384
11.44 1.94412
11.45 2.06148
11.46 2.14969
11.47 2.21098
11.48 2.24083
11.49 2.24074
11.5 2.21117
11.51 2.15137
11.52 2.06648
11.53 1.95537
11.54 1.82436
11.55 1.67557
11.56 1.51316
11.57 1.34167
11.58 1.16439
11.59 0.985831
11.6 0.809492
11.61 0.638579
11.62 0.475574
11.63 0.32344
11.64 0.182374
11.65 0.055185
11.66 -0.0594371
11.67 -0.160825
11.68 -0.249636
11.69 -0.327649
11.7 -0.394807
11.71 -0.45405
11.72 -0.50599
11.73 -0.552667
11.74 -0.595391
11.75 -0.635215
11.76 -0.673307
11.77 -0.710059
11.78 -0.7459
11.79 -0.780693
11.8 -0.813998
11.81 -0.8453
11.82 -0.873235
11.83 -0.897199
11.84 -0.915434
11.85 -0.926933
11.86 -0.930549
11.87 -0.924401
11.88 -0.908662
11.89 -0.880916
11.9 -0.84205
11.91 -0.791081
11.92 -0.728018
11.93 -0.654024
11.94 -0.568304
11.95 -0.473458
11.96 -0.369669
11.97 -0.259086
11.98 -0.143356
11.99 -0.0242635
12 0.0959476
12.01 0.215116
12.02 0.331214
12.03 0.442025
12.04 0.54534
12.05 0.64
12.06 0.722824
12.07 0.794088
12.08 0.851192
12.09 0.894074
12.1 0.922309
12.11 0.93463
12.12 0.932988
12.13 0.91574
12.14 0.885598
12.15 0.842822
12.16 0.788884
12.17 0.726014
12.18 0.654944
12.19 0.578612
12.2 0.498299
12.21 0.416181
12.22 0.333878
12.23 0.25314
12.24 0.175026
12.25 0.101152
12.26 0.0318179
12.27 -0.0322143
12.28 -0.0907116
12.29 -0.144147
12.3 -0.192182
12.31 -0.236114
12.32 -0.27617
12.33 -0.313422
12.34 -0.348647
12.35 -0.382568
