# xPDFsuite Configuration #
[PDF]
wavelength = 0.1432
dataformat = twotheta
inputfile = 1_1Pd_CeO2_cycle-00295.chi
backgroundfile = background-00000.chi
mode = xray
bgscale = 1.007
composition = CeO2
outputtype = gr
qmaxinst = 28.8974762299
qmin = 0.5
qmax = 27.9
rmax = 50.0
rmin = 0.0
rstep = 0.01
rpoly = 1.8657

[Misc]
inputdir = G:/SankarDec16/1Pd/Chi
savedir = D:/DATA/APS_CeO2/1Pd
backgroundfilefull = G:/SankarDec16/Background/background-00000.chi

#### start data
#S 1
#L r($\AA$)  G($\AA^{-2}$)
0 0
0.01 -0.00627493
0.02 -0.012079
0.03 -0.0169272
0.04 -0.020454
0.05 -0.0224555
0.06 -0.0226036
0.07 -0.0211149
0.08 -0.017882
0.09 -0.0133189
0.1 -0.00771125
0.11 -0.00149718
0.12 0.00484317
0.13 0.0107733
0.14 0.015909
0.15 0.0197825
0.16 0.0221169
0.17 0.0227994
0.18 0.0216025
0.19 0.0188425
0.2 0.0145261
0.21 0.00913492
0.22 0.00302334
0.23 -0.00331717
0.24 -0.00943296
0.25 -0.0147459
0.26 -0.0189757
0.27 -0.0216927
0.28 -0.0227214
0.29 -0.0220453
0.3 -0.019548
0.31 -0.0156313
0.32 -0.0104161
0.33 -0.00443031
0.34 0.00191877
0.35 0.00810797
0.36 0.0137307
0.37 0.018193
0.38 0.021331
0.39 0.0227731
0.4 0.0224526
0.41 0.0204509
0.42 0.0167679
0.43 0.0118736
0.44 0.00599758
0.45 -0.000309249
0.46 -0.00660489
0.47 -0.0123576
0.48 -0.0172263
0.49 -0.0206282
0.5 -0.0225233
0.51 -0.0226147
0.52 -0.0209488
0.53 -0.0177007
0.54 -0.0129878
0.55 -0.00732715
0.56 -0.00104715
0.57 0.00530256
0.58 0.0112654
0.59 0.0163245
0.6 0.0202203
0.61 0.0224071
0.62 0.0229714
0.63 0.0217051
0.64 0.0187653
0.65 0.0144143
0.66 0.00888209
0.67 0.00271003
0.68 -0.00368902
0.69 -0.00979096
0.7 -0.015145
0.71 -0.0192721
0.72 -0.0220059
0.73 -0.0228622
0.74 -0.0220501
0.75 -0.0194591
0.76 -0.0153505
0.77 -0.0100615
0.78 -0.00392358
0.79 0.00252181
0.8 0.00879716
0.81 0.0144272
0.82 0.0189882
0.83 0.0220602
0.84 0.0235772
0.85 0.0231379
0.86 0.0210623
0.87 0.0173405
0.88 0.012322
0.89 0.00639895
0.9 -1.7686e-05
0.91 -0.00641631
0.92 -0.0122886
0.93 -0.0172366
0.94 -0.0208941
0.95 -0.0229334
0.96 -0.0233955
0.97 -0.0220043
0.98 -0.0191718
0.99 -0.0150047
1 -0.00992711
1.01 -0.00436509
1.02 0.00120289
1.03 0.00634047
1.04 0.0105352
1.05 0.013514
1.06 0.0150098
1.07 0.0148397
1.08 0.0131857
1.09 0.00997275
1.1 0.00572226
1.11 0.000724167
1.12 -0.00448389
1.13 -0.00941587
1.14 -0.0134451
1.15 -0.0162312
1.16 -0.017169
1.17 -0.0161281
1.18 -0.0129094
1.19 -0.00744477
1.2 -0.000109872
1.21 0.00904041
1.22 0.0192665
1.23 0.0300986
1.24 0.0408067
1.25 0.0507581
1.26 0.0590929
1.27 0.0654287
1.28 0.0689263
1.29 0.0694423
1.3 0.066676
1.31 0.0604563
1.32 0.0512479
1.33 0.0388922
1.34 0.0243309
1.35 0.00794249
1.36 -0.00946158
1.37 -0.0271479
1.38 -0.0442706
1.39 -0.0602108
1.4 -0.0741
1.41 -0.085554
1.42 -0.0941084
1.43 -0.099361
1.44 -0.101542
1.45 -0.10017
1.46 -0.0959636
1.47 -0.0889474
1.48 -0.0796445
1.49 -0.0685788
1.5 -0.0561426
1.51 -0.0429935
1.52 -0.0295524
1.53 -0.0163017
1.54 -0.00360288
1.55 0.00818739
1.56 0.0189576
1.57 0.0283556
1.58 0.0365026
1.59 0.043244
1.6 0.0486296
1.61 0.0527424
1.62 0.0554939
1.63 0.0570966
1.64 0.0574245
1.65 0.0566112
1.66 0.0546307
1.67 0.0514381
1.68 0.0471548
1.69 0.0416042
1.7 0.0350086
1.71 0.0273308
1.72 0.018719
1.73 0.00935125
1.74 -0.000626439
1.75 -0.0109098
1.76 -0.0212534
1.77 -0.0313559
1.78 -0.0409423
1.79 -0.0497031
1.8 -0.0575248
1.81 -0.0640625
1.82 -0.0694277
1.83 -0.0735119
1.84 -0.0764554
1.85 -0.0784714
1.86 -0.0797539
1.87 -0.0806942
1.88 -0.0816158
1.89 -0.0828852
1.9 -0.0848195
1.91 -0.0877416
1.92 -0.0917168
1.93 -0.0970125
1.94 -0.103381
1.95 -0.110743
1.96 -0.118732
1.97 -0.126928
1.98 -0.134755
1.99 -0.141702
2 -0.14699
2.01 -0.150136
2.02 -0.150556
2.03 -0.147625
2.04 -0.141366
2.05 -0.130961
2.06 -0.116973
2.07 -0.0991575
2.08 -0.0778915
2.09 -0.05366
2.1 -0.0266734
2.11 0.00222209
2.12 0.032725
2.13 0.0641765
2.14 0.0961997
2.15 0.128461
2.16 0.160762
2.17 0.193047
2.18 0.225394
2.19 0.258001
2.2 0.291149
2.21 0.325096
2.22 0.360255
2.23 0.396669
2.24 0.434591
2.25 0.473776
2.26 0.513944
2.27 0.554487
2.28 0.594621
2.29 0.63303
2.3 0.668686
2.31 0.699896
2.32 0.725133
2.33 0.743253
2.34 0.751854
2.35 0.751014
2.36 0.738456
2.37 0.714654
2.38 0.679223
2.39 0.632127
2.4 0.575324
2.41 0.508698
2.42 0.435465
2.43 0.357104
2.44 0.276346
2.45 0.195614
2.46 0.117814
2.47 0.0448345
2.48 -0.0204036
2.49 -0.0767835
2.5 -0.12291
2.51 -0.157616
2.52 -0.181977
2.53 -0.194802
2.54 -0.198855
2.55 -0.194842
2.56 -0.185084
2.57 -0.171849
2.58 -0.157407
2.59 -0.144065
2.6 -0.134189
2.61 -0.1293
2.62 -0.130764
2.63 -0.139725
2.64 -0.155632
2.65 -0.179287
2.66 -0.20867
2.67 -0.242985
2.68 -0.280241
2.69 -0.318517
2.7 -0.355583
2.71 -0.38972
2.72 -0.418646
2.73 -0.441336
2.74 -0.456717
2.75 -0.463988
2.76 -0.464064
2.77 -0.456466
2.78 -0.44348
2.79 -0.426163
2.8 -0.406679
2.81 -0.38701
2.82 -0.369511
2.83 -0.355726
2.84 -0.347902
2.85 -0.346786
2.86 -0.353209
2.87 -0.367634
2.88 -0.388849
2.89 -0.416864
2.9 -0.449193
2.91 -0.484386
2.92 -0.520065
2.93 -0.554168
2.94 -0.584059
2.95 -0.608475
2.96 -0.625045
2.97 -0.633386
2.98 -0.632891
2.99 -0.623399
3 -0.606546
3.01 -0.582648
3.02 -0.554569
3.03 -0.524075
3.04 -0.493795
3.05 -0.465907
3.06 -0.44322
3.07 -0.426841
3.08 -0.419119
3.09 -0.420153
3.1 -0.430302
3.11 -0.44939
3.12 -0.475489
3.13 -0.507868
3.14 -0.543515
3.15 -0.580399
3.16 -0.615837
3.17 -0.647747
3.18 -0.673393
3.19 -0.692102
3.2 -0.701906
3.21 -0.70329
3.22 -0.696495
3.23 -0.682477
3.24 -0.663587
3.25 -0.641642
3.26 -0.619715
3.27 -0.600542
3.28 -0.586967
3.29 -0.580926
3.3 -0.585419
3.31 -0.600199
3.32 -0.627062
3.33 -0.664455
3.34 -0.711316
3.35 -0.765624
3.36 -0.824056
3.37 -0.883492
3.38 -0.940221
3.39 -0.990481
3.4 -1.03088
3.41 -1.05937
3.42 -1.07237
3.43 -1.07099
3.44 -1.05343
3.45 -1.02239
3.46 -0.979777
3.47 -0.928772
3.48 -0.873841
3.49 -0.819427
3.5 -0.769983
3.51 -0.730172
3.52 -0.703677
3.53 -0.692276
3.54 -0.699125
3.55 -0.721511
3.56 -0.759309
3.57 -0.807142
3.58 -0.859905
3.59 -0.909818
3.6 -0.949629
3.61 -0.967042
3.62 -0.955771
3.63 -0.904008
3.64 -0.803477
3.65 -0.649868
3.66 -0.431113
3.67 -0.153023
3.68 0.192576
3.69 0.59705
3.7 1.05617
3.71 1.56262
3.72 2.10131
3.73 2.66209
3.74 3.22645
3.75 3.77846
3.76 4.30006
3.77 4.77746
3.78 5.1878
3.79 5.52684
3.8 5.77304
3.81 5.92554
3.82 5.97769
3.83 5.92341
3.84 5.77556
3.85 5.52464
3.86 5.19417
3.87 4.78826
3.88 4.32354
3.89 3.81679
3.9 3.28176
3.91 2.73767
3.92 2.19995
3.93 1.6832
3.94 1.19982
3.95 0.762972
3.96 0.374955
3.97 0.0499226
3.98 -0.218843
3.99 -0.426628
4 -0.577848
4.01 -0.67965
4.02 -0.733867
4.03 -0.754096
4.04 -0.744641
4.05 -0.716873
4.06 -0.678148
4.07 -0.636264
4.08 -0.597258
4.09 -0.567317
4.1 -0.548595
4.11 -0.543986
4.12 -0.55367
4.13 -0.576166
4.14 -0.610646
4.15 -0.652787
4.16 -0.699945
4.17 -0.747794
4.18 -0.792819
4.19 -0.831026
4.2 -0.860435
4.21 -0.876897
4.22 -0.880701
4.23 -0.869958
4.24 -0.844983
4.25 -0.807091
4.26 -0.756247
4.27 -0.695787
4.28 -0.626527
4.29 -0.551387
4.3 -0.472195
4.31 -0.390868
4.32 -0.309081
4.33 -0.228207
4.34 -0.149014
4.35 -0.0721895
4.36 0.00204455
4.37 0.0737934
4.38 0.1429
4.39 0.20986
4.4 0.274484
4.41 0.336906
4.42 0.396829
4.43 0.453546
4.44 0.506671
4.45 0.554397
4.46 0.596231
4.47 0.630288
4.48 0.655191
4.49 0.670155
4.5 0.672682
4.51 0.663583
4.52 0.640776
4.53 0.605331
4.54 0.557416
4.55 0.497473
4.56 0.42799
4.57 0.349396
4.58 0.26508
4.59 0.176821
4.6 0.0873281
4.61 -0.00114424
4.62 -0.0859024
4.63 -0.165564
4.64 -0.23776
4.65 -0.30189
4.66 -0.357173
4.67 -0.402989
4.68 -0.440583
4.69 -0.469388
4.7 -0.491709
4.71 -0.508277
4.72 -0.52081
4.73 -0.530895
4.74 -0.539912
4.75 -0.549225
4.76 -0.559973
4.77 -0.57281
4.78 -0.588153
4.79 -0.606193
4.8 -0.626417
4.81 -0.648582
4.82 -0.671661
4.83 -0.694852
4.84 -0.717115
4.85 -0.737643
4.86 -0.755276
4.87 -0.769764
4.88 -0.780221
4.89 -0.786769
4.9 -0.789403
4.91 -0.788288
4.92 -0.784297
4.93 -0.777764
4.94 -0.769882
4.95 -0.761414
4.96 -0.753345
4.97 -0.746419
4.98 -0.741599
4.99 -0.739143
5 -0.739767
5.01 -0.743422
5.02 -0.750157
5.03 -0.759927
5.04 -0.772126
5.05 -0.786672
5.06 -0.802727
5.07 -0.819885
5.08 -0.837517
5.09 -0.855097
5.1 -0.872014
5.11 -0.887878
5.12 -0.902034
5.13 -0.914101
5.14 -0.923546
5.15 -0.929583
5.16 -0.931956
5.17 -0.929148
5.18 -0.920969
5.19 -0.905939
5.2 -0.882961
5.21 -0.851352
5.22 -0.808719
5.23 -0.755461
5.24 -0.689158
5.25 -0.610114
5.26 -0.517773
5.27 -0.411554
5.28 -0.293418
5.29 -0.162647
5.3 -0.0227216
5.31 0.124878
5.32 0.276893
5.33 0.430031
5.34 0.580119
5.35 0.723748
5.36 0.855742
5.37 0.972818
5.38 1.07119
5.39 1.1462
5.4 1.19784
5.41 1.2199
5.42 1.2154
5.43 1.18184
5.44 1.12061
5.45 1.03468
5.46 0.924081
5.47 0.795322
5.48 0.650228
5.49 0.494766
5.5 0.333211
5.51 0.17057
5.52 0.0110937
5.53 -0.139901
5.54 -0.279938
5.55 -0.405168
5.56 -0.513458
5.57 -0.604423
5.58 -0.675345
5.59 -0.72914
5.6 -0.764569
5.61 -0.784725
5.62 -0.791273
5.63 -0.786108
5.64 -0.772654
5.65 -0.752231
5.66 -0.727983
5.67 -0.701411
5.68 -0.67415
5.69 -0.647164
5.7 -0.62111
5.71 -0.595943
5.72 -0.571449
5.73 -0.546918
5.74 -0.521562
5.75 -0.494308
5.76 -0.464553
5.77 -0.431038
5.78 -0.393802
5.79 -0.352387
5.8 -0.307119
5.81 -0.258779
5.82 -0.208174
5.83 -0.156914
5.84 -0.106642
5.85 -0.0591832
5.86 -0.0163461
5.87 0.019596
5.88 0.0478797
5.89 0.0656748
5.9 0.0734361
5.91 0.06978
5.92 0.0548103
5.93 0.0294879
5.94 -0.00646813
5.95 -0.0504383
5.96 -0.101823
5.97 -0.158171
5.98 -0.217771
5.99 -0.278684
6 -0.33918
6.01 -0.397446
6.02 -0.452561
6.03 -0.503409
6.04 -0.549527
6.05 -0.591062
6.06 -0.627723
6.07 -0.660671
6.08 -0.690203
6.09 -0.717501
6.1 -0.743385
6.11 -0.768724
6.12 -0.794206
6.13 -0.820397
6.14 -0.847412
6.15 -0.875248
6.16 -0.903522
6.17 -0.931683
6.18 -0.95884
6.19 -0.984302
6.2 -1.00692
6.21 -1.02607
6.22 -1.0411
6.23 -1.05135
6.24 -1.05722
6.25 -1.05823
6.26 -1.05556
6.27 -1.04972
6.28 -1.04182
6.29 -1.03302
6.3 -1.02443
6.31 -1.01692
6.32 -1.01126
6.33 -1.00747
6.34 -1.00518
6.35 -1.00324
6.36 -0.999963
6.37 -0.992209
6.38 -0.977305
6.39 -0.950861
6.4 -0.908344
6.41 -0.846452
6.42 -0.757512
6.43 -0.641025
6.44 -0.489421
6.45 -0.302293
6.46 -0.0774285
6.47 0.187804
6.48 0.488287
6.49 0.827016
6.5 1.1946
6.51 1.58775
6.52 1.99818
6.53 2.41714
6.54 2.83466
6.55 3.24113
6.56 3.62401
6.57 3.97416
6.58 4.28185
6.59 4.5348
6.6 4.7319
6.61 4.85711
6.62 4.91616
6.63 4.90175
6.64 4.8152
6.65 4.66273
6.66 4.44136
6.67 4.16657
6.68 3.8399
6.69 3.47517
6.7 3.08161
6.71 2.66975
6.72 2.25136
6.73 1.83717
6.74 1.43629
6.75 1.05815
6.76 0.71025
6.77 0.396048
6.78 0.124291
6.79 -0.108627
6.8 -0.297084
6.81 -0.44548
6.82 -0.555553
6.83 -0.629071
6.84 -0.673798
6.85 -0.690386
6.86 -0.687664
6.87 -0.668925
6.88 -0.639512
6.89 -0.603884
6.9 -0.565419
6.91 -0.527254
6.92 -0.491642
6.93 -0.459824
6.94 -0.432481
6.95 -0.409969
6.96 -0.391451
6.97 -0.376839
6.98 -0.364797
6.99 -0.354738
7 -0.345887
7.01 -0.337752
7.02 -0.330232
7.03 -0.3234
7.04 -0.31786
7.05 -0.314327
7.06 -0.313753
7.07 -0.317545
7.08 -0.326256
7.09 -0.341861
7.1 -0.36425
7.11 -0.394464
7.12 -0.432544
7.13 -0.47778
7.14 -0.530228
7.15 -0.587799
7.16 -0.649552
7.17 -0.713259
7.18 -0.777051
7.19 -0.838608
7.2 -0.896343
7.21 -0.947568
7.22 -0.991642
7.23 -1.02692
7.24 -1.05282
7.25 -1.06976
7.26 -1.07705
7.27 -1.07683
7.28 -1.06949
7.29 -1.05723
7.3 -1.04168
7.31 -1.02472
7.32 -1.00811
7.33 -0.99361
7.34 -0.982107
7.35 -0.974504
7.36 -0.97092
7.37 -0.970739
7.38 -0.973232
7.39 -0.976539
7.4 -0.97864
7.41 -0.977111
7.42 -0.969457
7.43 -0.952323
7.44 -0.92438
7.45 -0.881225
7.46 -0.82299
7.47 -0.747187
7.48 -0.653307
7.49 -0.542469
7.5 -0.413529
7.51 -0.270544
7.52 -0.114231
7.53 0.0512049
7.54 0.222457
7.55 0.395368
7.56 0.56592
7.57 0.728896
7.58 0.881135
7.59 1.01804
7.6 1.13605
7.61 1.23368
7.62 1.30581
7.63 1.35455
7.64 1.37621
7.65 1.37288
7.66 1.34514
7.67 1.29331
7.68 1.22189
7.69 1.13055
7.7 1.02489
7.71 0.906861
7.72 0.780206
7.73 0.648445
7.74 0.514651
7.75 0.38204
7.76 0.253718
7.77 0.132042
7.78 0.0191397
7.79 -0.0823984
7.8 -0.172441
7.81 -0.247831
7.82 -0.309739
7.83 -0.356715
7.84 -0.388837
7.85 -0.407207
7.86 -0.410716
7.87 -0.402227
7.88 -0.381416
7.89 -0.350682
7.9 -0.311516
7.91 -0.265551
7.92 -0.2154
7.93 -0.162853
7.94 -0.110504
7.95 -0.0605926
7.96 -0.0155179
7.97 0.0231017
7.98 0.0522682
7.99 0.0717477
8 0.0790187
8.01 0.0741108
8.02 0.0566024
8.03 0.0259117
8.04 -0.0159697
8.05 -0.0696477
8.06 -0.132052
8.07 -0.202042
8.08 -0.277228
8.09 -0.355229
8.1 -0.433734
8.11 -0.510525
8.12 -0.583252
8.13 -0.65038
8.14 -0.710608
8.15 -0.762538
8.16 -0.806713
8.17 -0.841992
8.18 -0.870131
8.19 -0.891548
8.2 -0.907722
8.21 -0.92032
8.22 -0.930656
8.23 -0.940426
8.24 -0.950808
8.25 -0.962614
8.26 -0.976144
8.27 -0.991179
8.28 -1.0067
8.29 -1.02098
8.3 -1.0319
8.31 -1.03646
8.32 -1.03117
8.33 -1.01341
8.34 -0.97735
8.35 -0.922136
8.36 -0.842022
8.37 -0.736035
8.38 -0.602272
8.39 -0.438058
8.4 -0.246842
8.41 -0.0257033
8.42 0.218912
8.43 0.485182
8.44 0.767694
8.45 1.06025
8.46 1.35664
8.47 1.64958
8.48 1.93097
8.49 2.19392
8.5 2.43171
8.51 2.63558
8.52 2.8041
8.53 2.92635
8.54 3.00502
8.55 3.0349
8.56 3.01581
8.57 2.95153
8.58 2.83878
8.59 2.68762
8.6 2.49809
8.61 2.27878
8.62 2.03543
8.63 1.77413
8.64 1.50309
8.65 1.22833
8.66 0.956756
8.67 0.69429
8.68 0.446424
8.69 0.216119
8.7 0.00945022
8.71 -0.174672
8.72 -0.332112
8.73 -0.464463
8.74 -0.572176
8.75 -0.655324
8.76 -0.718439
8.77 -0.761088
8.78 -0.788776
8.79 -0.803306
8.8 -0.808085
8.81 -0.806372
8.82 -0.800432
8.83 -0.793149
8.84 -0.786457
8.85 -0.782016
8.86 -0.780952
8.87 -0.784336
8.88 -0.792027
8.89 -0.804752
8.9 -0.821584
8.91 -0.842329
8.92 -0.866216
8.93 -0.892332
8.94 -0.920005
8.95 -0.94822
8.96 -0.976233
8.97 -1.00332
8.98 -1.02894
8.99 -1.05248
9 -1.07387
9.01 -1.09253
9.02 -1.10873
9.03 -1.1223
9.04 -1.13334
9.05 -1.14212
9.06 -1.1485
9.07 -1.15292
9.08 -1.15525
9.09 -1.15564
9.1 -1.15406
9.11 -1.15021
9.12 -1.14415
9.13 -1.13514
9.14 -1.12316
9.15 -1.10752
9.16 -1.0877
9.17 -1.06348
9.18 -1.03373
9.19 -0.998799
9.2 -0.957715
9.21 -0.910732
9.22 -0.857848
9.23 -0.798964
9.24 -0.73517
9.25 -0.666479
9.26 -0.594498
9.27 -0.520155
9.28 -0.445004
9.29 -0.370528
9.3 -0.298763
9.31 -0.231009
9.32 -0.169553
9.33 -0.115669
9.34 -0.0707385
9.35 -0.0366663
9.36 -0.0130669
9.37 -0.0022156
9.38 -0.00259468
9.39 -0.0147197
9.4 -0.0377261
9.41 -0.0699042
9.42 -0.110771
9.43 -0.157414
9.44 -0.208487
9.45 -0.261458
9.46 -0.314334
9.47 -0.364799
9.48 -0.411414
9.49 -0.451767
9.5 -0.485412
9.51 -0.511056
9.52 -0.528315
9.53 -0.537773
9.54 -0.538949
9.55 -0.533851
9.56 -0.522967
9.57 -0.508254
9.58 -0.491242
9.59 -0.473704
9.6 -0.457223
9.61 -0.443684
9.62 -0.434038
9.63 -0.429563
9.64 -0.431001
9.65 -0.438301
9.66 -0.452266
9.67 -0.47167
9.68 -0.496581
9.69 -0.52578
9.7 -0.558387
9.71 -0.593481
9.72 -0.629865
9.73 -0.6667
9.74 -0.703111
9.75 -0.738427
9.76 -0.772101
9.77 -0.803908
9.78 -0.833288
9.79 -0.86036
9.8 -0.88456
9.81 -0.905665
9.82 -0.923106
9.83 -0.935632
9.84 -0.942634
9.85 -0.941351
9.86 -0.930706
9.87 -0.907599
9.88 -0.868968
9.89 -0.813012
9.9 -0.733684
9.91 -0.631193
9.92 -0.499638
9.93 -0.338363
9.94 -0.145622
9.95 0.0817133
9.96 0.339787
9.97 0.632226
9.98 0.952257
9.99 1.29826
10 1.66477
10.01 2.04496
10.02 2.43253
10.03 2.81886
10.04 3.1951
10.05 3.55276
10.06 3.88382
10.07 4.17735
10.08 4.43073
10.09 4.63038
10.1 4.77798
10.11 4.86642
10.12 4.89387
10.13 4.86421
10.14 4.77152
10.15 4.62778
10.16 4.43171
10.17 4.19333
10.18 3.9194
10.19 3.61664
10.2 3.29595
10.21 2.96397
10.22 2.63041
10.23 2.30255
10.24 1.9878
10.25 1.69052
10.26 1.41833
10.27 1.17082
10.28 0.952983
10.29 0.763477
10.3 0.601729
10.31 0.467689
10.32 0.355971
10.33 0.266616
10.34 0.193222
10.35 0.133272
10.36 0.0826722
10.37 0.037642
10.38 -0.00463577
10.39 -0.0470444
10.4 -0.0916753
10.41 -0.139856
10.42 -0.19232
10.43 -0.249593
10.44 -0.310882
10.45 -0.376061
10.46 -0.443645
10.47 -0.512667
10.48 -0.581758
10.49 -0.649801
10.5 -0.715348
10.51 -0.777815
10.52 -0.836023
10.53 -0.889653
10.54 -0.938365
10.55 -0.981616
10.56 -1.01996
10.57 -1.05266
10.58 -1.08048
10.59 -1.10314
10.6 -1.12069
10.61 -1.13341
10.62 -1.14051
10.63 -1.14258
10.64 -1.13876
10.65 -1.12917
10.66 -1.11359
10.67 -1.09149
10.68 -1.06358
10.69 -1.02913
10.7 -0.989372
10.71 -0.944548
10.72 -0.895647
10.73 -0.843974
10.74 -0.790707
10.75 -0.737546
10.76 -0.686196
10.77 -0.638315
10.78 -0.595427
10.79 -0.559572
10.8 -0.531159
10.81 -0.512525
10.82 -0.503159
10.83 -0.504003
10.84 -0.514966
10.85 -0.534952
10.86 -0.564258
10.87 -0.600459
10.88 -0.642933
10.89 -0.689572
10.9 -0.73876
10.91 -0.788708
10.92 -0.837802
10.93 -0.884212
10.94 -0.926958
10.95 -0.964805
10.96 -0.996975
10.97 -1.0235
10.98 -1.04353
10.99 -1.0582
11 -1.06742
11.01 -1.07231
11.02 -1.07374
11.03 -1.07262
11.04 -1.07021
11.05 -1.06745
11.06 -1.06534
11.07 -1.06473
11.08 -1.06631
11.09 -1.07036
11.1 -1.0775
11.11 -1.08732
11.12 -1.09994
11.13 -1.11473
11.14 -1.13113
11.15 -1.14834
11.16 -1.16539
11.17 -1.18102
11.18 -1.19414
11.19 -1.20327
11.2 -1.20682
11.21 -1.2038
11.22 -1.19145
11.23 -1.16954
11.24 -1.13523
11.25 -1.08768
11.26 -1.02557
11.27 -0.946429
11.28 -0.851194
11.29 -0.73643
11.3 -0.604099
11.31 -0.453033
11.32 -0.283765
11.33 -0.0984855
11.34 0.10318
11.35 0.316763
11.36 0.540787
11.37 0.770981
11.38 1.00366
11.39 1.23409
11.4 1.45827
11.41 1.66986
11.42 1.86553
11.43 2.03975
11.44 2.18781
11.45 2.30811
11.46 2.39317
11.47 2.44579
11.48 2.46065
11.49 2.43978
11.5 2.38398
11.51 2.29281
11.52 2.17275
11.53 2.0232
11.54 1.85212
11.55 1.66278
11.56 1.46084
11.57 1.252
11.58 1.04136
11.59 0.833973
11.6 0.634862
11.61 0.447591
11.62 0.274995
11.63 0.120611
11.64 -0.0164058
11.65 -0.132851
11.66 -0.231681
11.67 -0.312923
11.68 -0.378581
11.69 -0.431862
11.7 -0.474083
11.71 -0.509513
11.72 -0.540169
11.73 -0.56905
11.74 -0.598217
11.75 -0.629635
11.76 -0.664112
11.77 -0.702721
11.78 -0.744851
11.79 -0.790032
11.8 -0.83688
11.81 -0.883719
11.82 -0.928142
11.83 -0.968262
11.84 -1.0011
11.85 -1.02461
11.86 -1.03684
11.87 -1.03488
11.88 -1.01898
11.89 -0.985853
11.9 -0.937082
11.91 -0.871719
11.92 -0.790369
11.93 -0.69514
11.94 -0.585829
11.95 -0.466298
11.96 -0.337617
11.97 -0.202961
11.98 -0.0647984
11.99 0.0741149
12 0.211274
12.01 0.343593
12.02 0.469257
12.03 0.585768
12.04 0.691022
12.05 0.784359
12.06 0.862552
12.07 0.926779
12.08 0.974649
12.09 1.00676
12.1 1.02315
12.11 1.02293
12.12 1.00847
12.13 0.978379
12.14 0.935578
12.15 0.880449
12.16 0.814531
12.17 0.740039
12.18 0.657747
12.19 0.570526
12.2 0.4797
12.21 0.387463
12.22 0.295507
12.23 0.205758
12.24 0.119359
12.25 0.0382688
12.26 -0.0371145
12.27 -0.105737
12.28 -0.167144
12.29 -0.221789
12.3 -0.268994
12.31 -0.310352
12.32 -0.34599
12.33 -0.377313
12.34 -0.405403
12.35 -0.431348
12.36 -0.456434
12.37 -0.481641
12.38 -0.507756
12.39 -0.535334
