# xPDFsuite Configuration #
[PDF]
wavelength = 0.1432
dataformat = twotheta
inputfile = 1_1Pd_CeO2_cycle-00414.chi
backgroundfile = background-00000.chi
mode = xray
bgscale = 1.007
composition = CeO2
outputtype = gr
qmaxinst = 28.8974762299
qmin = 0.5
qmax = 27.9
rmax = 50.0
rmin = 0.0
rstep = 0.01
rpoly = 1.8657

[Misc]
inputdir = G:/SankarDec16/1Pd/Chi
savedir = D:/DATA/APS_CeO2/1Pd
backgroundfilefull = G:/SankarDec16/Background/background-00000.chi

#### start data
#S 1
#L r($\AA$)  G($\AA^{-2}$)
0 0
0.01 -0.0056716
0.02 -0.0109145
0.03 -0.0152873
0.04 -0.0184579
0.05 -0.0202419
0.06 -0.0203428
0.07 -0.0189596
0.08 -0.0159984
0.09 -0.0118383
0.1 -0.00674221
0.11 -0.00111177
0.12 0.00461665
0.13 0.00995193
0.14 0.0145491
0.15 0.0179842
0.16 0.020011
0.17 0.0205329
0.18 0.019351
0.19 0.0167594
0.2 0.0127741
0.21 0.00783793
0.22 0.00227911
0.23 -0.003451
0.24 -0.00894301
0.25 -0.013668
0.26 -0.017382
0.27 -0.0196997
0.28 -0.0204731
0.29 -0.0196987
0.3 -0.017285
0.31 -0.0136069
0.32 -0.00878946
0.33 -0.00331753
0.34 0.00243207
0.35 0.00798045
0.36 0.0129659
0.37 0.0168483
0.38 0.0194968
0.39 0.0205844
0.4 0.020069
0.41 0.0180404
0.42 0.0145198
0.43 0.00994396
0.44 0.00454111
0.45 -0.00118596
0.46 -0.00683076
0.47 -0.0119106
0.48 -0.01613
0.49 -0.0189647
0.5 -0.0204039
0.51 -0.0201957
0.52 -0.0184064
0.53 -0.0152148
0.54 -0.0107542
0.55 -0.00550189
0.56 0.000222276
0.57 0.00592239
0.58 0.0111829
0.59 0.0155413
0.6 0.0187835
0.61 0.0204277
0.62 0.0205841
0.63 0.019089
0.64 0.0161139
0.65 0.0119186
0.66 0.00674197
0.67 0.00107789
0.68 -0.00467773
0.69 -0.0100606
0.7 -0.0146671
0.71 -0.0180779
0.72 -0.0201714
0.73 -0.0205322
0.74 -0.0193859
0.75 -0.0166647
0.76 -0.0126368
0.77 -0.00762857
0.78 -0.00197161
0.79 0.00384915
0.8 0.0093842
0.81 0.0142249
0.82 0.0180021
0.83 0.0203626
0.84 0.0212835
0.85 0.02044
0.86 0.0181597
0.87 0.0144746
0.88 0.00973335
0.89 0.00430915
0.9 -0.00139527
0.91 -0.00693538
0.92 -0.0118408
0.93 -0.0157888
0.94 -0.0184761
0.95 -0.0196503
0.96 -0.0193974
0.97 -0.0175289
0.98 -0.0144606
0.99 -0.0103481
1 -0.00561524
1.01 -0.000669161
1.02 0.00401168
1.03 0.00806236
1.04 0.0109964
1.05 0.0126166
1.06 0.0127112
1.07 0.0111633
1.08 0.00820294
1.09 0.00382366
1.1 -0.00143631
1.11 -0.00724503
1.12 -0.0130551
1.13 -0.018385
1.14 -0.022593
1.15 -0.0253786
1.16 -0.0261288
1.17 -0.0247476
1.18 -0.0210444
1.19 -0.0149552
1.2 -0.00687071
1.21 0.00318438
1.22 0.014462
1.23 0.0265282
1.24 0.0386732
1.25 0.0502784
1.26 0.0605278
1.27 0.0690134
1.28 0.0749216
1.29 0.0780587
1.3 0.0780849
1.31 0.0747561
1.32 0.0684428
1.33 0.058854
1.34 0.0468195
1.35 0.0325527
1.36 0.0167209
1.37 -4.77191e-05
1.38 -0.0171156
1.39 -0.0338423
1.4 -0.0495383
1.41 -0.063741
1.42 -0.0759788
1.43 -0.085786
1.44 -0.0931815
1.45 -0.0975797
1.46 -0.0993877
1.47 -0.0983967
1.48 -0.0948269
1.49 -0.0889537
1.5 -0.0808026
1.51 -0.070921
1.52 -0.0593814
1.53 -0.0466513
1.54 -0.0329934
1.55 -0.0187267
1.56 -0.00419981
1.57 0.0102552
1.58 0.0243183
1.59 0.0376136
1.6 0.0497875
1.61 0.0605623
1.62 0.0693913
1.63 0.0762121
1.64 0.0804258
1.65 0.0820064
1.66 0.0807042
1.67 0.0762992
1.68 0.0691011
1.69 0.0587568
1.7 0.0459715
1.71 0.0308623
1.72 0.0140148
1.73 -0.00396822
1.74 -0.0224541
1.75 -0.0407107
1.76 -0.0579406
1.77 -0.0735237
1.78 -0.0868323
1.79 -0.0972214
1.8 -0.104663
1.81 -0.108436
1.82 -0.109099
1.83 -0.106556
1.84 -0.101334
1.85 -0.0940673
1.86 -0.0853481
1.87 -0.0761238
1.88 -0.0672292
1.89 -0.0594993
1.9 -0.0536862
1.91 -0.0505672
1.92 -0.0502847
1.93 -0.0536127
1.94 -0.0600192
1.95 -0.0695634
1.96 -0.0816344
1.97 -0.0954889
1.98 -0.110318
1.99 -0.125049
2 -0.13853
2.01 -0.149765
2.02 -0.157749
2.03 -0.161387
2.04 -0.160498
2.05 -0.153762
2.06 -0.141835
2.07 -0.124258
2.08 -0.10151
2.09 -0.0742764
2.1 -0.0428686
2.11 -0.00860307
2.12 0.027967
2.13 0.0657155
2.14 0.103894
2.15 0.141735
2.16 0.178786
2.17 0.214509
2.18 0.248958
2.19 0.282063
2.2 0.314097
2.21 0.345419
2.22 0.376422
2.23 0.407537
2.24 0.439148
2.25 0.471433
2.26 0.504429
2.27 0.537923
2.28 0.571442
2.29 0.604129
2.3 0.635115
2.31 0.66304
2.32 0.686521
2.33 0.704439
2.34 0.714579
2.35 0.716736
2.36 0.708686
2.37 0.690554
2.38 0.661741
2.39 0.621904
2.4 0.572639
2.41 0.513476
2.42 0.447301
2.43 0.375236
2.44 0.299719
2.45 0.223
2.46 0.147644
2.47 0.07564
2.48 0.00967234
2.49 -0.0489438
2.5 -0.0987337
2.51 -0.138369
2.52 -0.168563
2.53 -0.187918
2.54 -0.198745
2.55 -0.201401
2.56 -0.197801
2.57 -0.189899
2.58 -0.179491
2.59 -0.16879
2.6 -0.15975
2.61 -0.153917
2.62 -0.152583
2.63 -0.15689
2.64 -0.166624
2.65 -0.182623
2.66 -0.203429
2.67 -0.228569
2.68 -0.256573
2.69 -0.28598
2.7 -0.31517
2.71 -0.342743
2.72 -0.367044
2.73 -0.38723
2.74 -0.402509
2.75 -0.412314
2.76 -0.417286
2.77 -0.417189
2.78 -0.413652
2.79 -0.407527
2.8 -0.400388
2.81 -0.393633
2.82 -0.388957
2.83 -0.387301
2.84 -0.390151
2.85 -0.397786
2.86 -0.410535
2.87 -0.428361
2.88 -0.450152
2.89 -0.475363
2.9 -0.50211
2.91 -0.528947
2.92 -0.554021
2.93 -0.57587
2.94 -0.592413
2.95 -0.603196
2.96 -0.606583
2.97 -0.602881
2.98 -0.592114
2.99 -0.574791
3 -0.552662
3.01 -0.526756
3.02 -0.499527
3.03 -0.472899
3.04 -0.44912
3.05 -0.429851
3.06 -0.417502
3.07 -0.41234
3.08 -0.416098
3.09 -0.428127
3.1 -0.448157
3.11 -0.475327
3.12 -0.507489
3.13 -0.543217
3.14 -0.579759
3.15 -0.614895
3.16 -0.64623
3.17 -0.672113
3.18 -0.690145
3.19 -0.700405
3.2 -0.701474
3.21 -0.694515
3.22 -0.680338
3.23 -0.660508
3.24 -0.637577
3.25 -0.613957
3.26 -0.592479
3.27 -0.576011
3.28 -0.567107
3.29 -0.56729
3.3 -0.579208
3.31 -0.601947
3.32 -0.636778
3.33 -0.681569
3.34 -0.734772
3.35 -0.793865
3.36 -0.855424
3.37 -0.915877
3.38 -0.971825
3.39 -1.01949
3.4 -1.05584
3.41 -1.07925
3.42 -1.08657
3.43 -1.07947
3.44 -1.05665
3.45 -1.02123
3.46 -0.975477
3.47 -0.922843
3.48 -0.867705
3.49 -0.814638
3.5 -0.767618
3.51 -0.731013
3.52 -0.707936
3.53 -0.699626
3.54 -0.70851
3.55 -0.731473
3.56 -0.767678
3.57 -0.811571
3.58 -0.857841
3.59 -0.898647
3.6 -0.92725
3.61 -0.931575
3.62 -0.906324
3.63 -0.84049
3.64 -0.726913
3.65 -0.562235
3.66 -0.335859
3.67 -0.0540911
3.68 0.289821
3.69 0.687069
3.7 1.13301
3.71 1.6201
3.72 2.13421
3.73 2.66517
3.74 3.19629
3.75 3.7127
3.76 4.19814
3.77 4.64046
3.78 5.01898
3.79 5.33073
3.8 5.55646
3.81 5.69614
3.82 5.74421
3.83 5.69565
3.84 5.56244
3.85 5.33617
3.86 5.03811
3.87 4.67183
3.88 4.25202
3.89 3.79343
3.9 3.30776
3.91 2.81196
3.92 2.31904
3.93 1.84182
3.94 1.39099
3.95 0.977859
3.96 0.604841
3.97 0.284119
3.98 0.010593
3.99 -0.211268
4 -0.384549
4.01 -0.514723
4.02 -0.602376
4.03 -0.658628
4.04 -0.686025
4.05 -0.69384
4.06 -0.687708
4.07 -0.673572
4.08 -0.656879
4.09 -0.641958
4.1 -0.631624
4.11 -0.628221
4.12 -0.632589
4.13 -0.644306
4.14 -0.663198
4.15 -0.686842
4.16 -0.713736
4.17 -0.741229
4.18 -0.767115
4.19 -0.788818
4.2 -0.804973
4.21 -0.812771
4.22 -0.812206
4.23 -0.801805
4.24 -0.78147
4.25 -0.751798
4.26 -0.712265
4.27 -0.664906
4.28 -0.609694
4.29 -0.54841
4.3 -0.48199
4.31 -0.411411
4.32 -0.338018
4.33 -0.262372
4.34 -0.185586
4.35 -0.108241
4.36 -0.0310246
4.37 0.0455367
4.38 0.120699
4.39 0.194061
4.4 0.26466
4.41 0.33192
4.42 0.394961
4.43 0.452527
4.44 0.504272
4.45 0.54802
4.46 0.583887
4.47 0.610248
4.48 0.626436
4.49 0.632393
4.5 0.626516
4.51 0.610306
4.52 0.582641
4.53 0.545051
4.54 0.498168
4.55 0.442829
4.56 0.381139
4.57 0.313761
4.58 0.243105
4.59 0.170473
4.6 0.0976081
4.61 0.0258394
4.62 -0.0432639
4.63 -0.109085
4.64 -0.170389
4.65 -0.227045
4.66 -0.278772
4.67 -0.325378
4.68 -0.367615
4.69 -0.40521
4.7 -0.439329
4.71 -0.470219
4.72 -0.498552
4.73 -0.52492
4.74 -0.549576
4.75 -0.573033
4.76 -0.595316
4.77 -0.616566
4.78 -0.6367
4.79 -0.655486
4.8 -0.672868
4.81 -0.688338
4.82 -0.701944
4.83 -0.713358
4.84 -0.722529
4.85 -0.729584
4.86 -0.734423
4.87 -0.737571
4.88 -0.739164
4.89 -0.739766
4.9 -0.739802
4.91 -0.739779
4.92 -0.740114
4.93 -0.741317
4.94 -0.743569
4.95 -0.747152
4.96 -0.752116
4.97 -0.758346
4.98 -0.765804
4.99 -0.774084
5 -0.78296
5.01 -0.792023
5.02 -0.800959
5.03 -0.80944
5.04 -0.817318
5.05 -0.824356
5.06 -0.830662
5.07 -0.836263
5.08 -0.841363
5.09 -0.846197
5.1 -0.851007
5.11 -0.855987
5.12 -0.861266
5.13 -0.866766
5.14 -0.872254
5.15 -0.877174
5.16 -0.880902
5.17 -0.882063
5.18 -0.879726
5.19 -0.87211
5.2 -0.857519
5.21 -0.834731
5.22 -0.800823
5.23 -0.755796
5.24 -0.696812
5.25 -0.624027
5.26 -0.536791
5.27 -0.434512
5.28 -0.319416
5.29 -0.190908
5.3 -0.0528774
5.31 0.0929174
5.32 0.24289
5.33 0.393536
5.34 0.540446
5.35 0.680257
5.36 0.807783
5.37 0.920003
5.38 1.01342
5.39 1.08382
5.4 1.13158
5.41 1.1512
5.42 1.14593
5.43 1.11388
5.44 1.05669
5.45 0.977401
5.46 0.876359
5.47 0.759539
5.48 0.628726
5.49 0.489177
5.5 0.344589
5.51 0.199189
5.52 0.0564713
5.53 -0.0792523
5.54 -0.206064
5.55 -0.320947
5.56 -0.422289
5.57 -0.509847
5.58 -0.581494
5.59 -0.639523
5.6 -0.682851
5.61 -0.713768
5.62 -0.733368
5.63 -0.742792
5.64 -0.744538
5.65 -0.739049
5.66 -0.728693
5.67 -0.714178
5.68 -0.69655
5.69 -0.67654
5.7 -0.654264
5.71 -0.63013
5.72 -0.603805
5.73 -0.575244
5.74 -0.544159
5.75 -0.510143
5.76 -0.473353
5.77 -0.433304
5.78 -0.390622
5.79 -0.345474
5.8 -0.298587
5.81 -0.25083
5.82 -0.203297
5.83 -0.157097
5.84 -0.11375
5.85 -0.0743917
5.86 -0.0402546
5.87 -0.0128637
5.88 0.00764153
5.89 0.0193113
5.9 0.0229351
5.91 0.0177077
5.92 0.00395605
5.93 -0.0174612
5.94 -0.0466753
5.95 -0.0817807
5.96 -0.122446
5.97 -0.16705
5.98 -0.214562
5.99 -0.263889
6 -0.313922
6.01 -0.363791
6.02 -0.412824
6.03 -0.460455
6.04 -0.506355
6.05 -0.550475
6.06 -0.592583
6.07 -0.633038
6.08 -0.671787
6.09 -0.709141
6.1 -0.745217
6.11 -0.78004
6.12 -0.813732
6.13 -0.845975
6.14 -0.87674
6.15 -0.905592
6.16 -0.932141
6.17 -0.956131
6.18 -0.976782
6.19 -0.994216
6.2 -1.00777
6.21 -1.01765
6.22 -1.02389
6.23 -1.02663
6.24 -1.02668
6.25 -1.0243
6.26 -1.02061
6.27 -1.01632
6.28 -1.01232
6.29 -1.00926
6.3 -1.00785
6.31 -1.00808
6.32 -1.00998
6.33 -1.01274
6.34 -1.01529
6.35 -1.01566
6.36 -1.01204
6.37 -1.00059
6.38 -0.979126
6.39 -0.94332
6.4 -0.889297
6.41 -0.814606
6.42 -0.712559
6.43 -0.583773
6.44 -0.422022
6.45 -0.227942
6.46 -0.000338861
6.47 0.262248
6.48 0.554744
6.49 0.878958
6.5 1.22649
6.51 1.59406
6.52 1.97436
6.53 2.35996
6.54 2.74214
6.55 3.11313
6.56 3.46222
6.57 3.78196
6.58 4.06427
6.59 4.29874
6.6 4.48465
6.61 4.6081
6.62 4.67394
6.63 4.67555
6.64 4.61361
6.65 4.49304
6.66 4.3103
6.67 4.07843
6.68 3.79764
6.69 3.47948
6.7 3.13136
6.71 2.76166
6.72 2.38098
6.73 1.99777
6.74 1.621
6.75 1.25893
6.76 0.918928
6.77 0.605091
6.78 0.325896
6.79 0.079673
6.8 -0.127466
6.81 -0.29807
6.82 -0.43253
6.83 -0.531086
6.84 -0.600178
6.85 -0.63898
6.86 -0.655639
6.87 -0.652553
6.88 -0.634702
6.89 -0.606715
6.9 -0.571742
6.91 -0.533953
6.92 -0.495927
6.93 -0.459998
6.94 -0.427683
6.95 -0.400304
6.96 -0.377766
6.97 -0.360905
6.98 -0.348646
6.99 -0.34084
7 -0.336726
7.01 -0.335503
7.02 -0.336878
7.03 -0.340099
7.04 -0.345173
7.05 -0.351951
7.06 -0.360639
7.07 -0.371758
7.08 -0.3855
7.09 -0.402931
7.1 -0.424104
7.11 -0.449771
7.12 -0.480204
7.13 -0.515221
7.14 -0.555214
7.15 -0.599085
7.16 -0.646588
7.17 -0.696435
7.18 -0.747545
7.19 -0.79851
7.2 -0.848088
7.21 -0.894502
7.22 -0.936906
7.23 -0.973926
7.24 -1.00472
7.25 -1.02917
7.26 -1.04625
7.27 -1.05709
7.28 -1.06142
7.29 -1.06051
7.3 -1.05525
7.31 -1.04665
7.32 -1.03612
7.33 -1.0246
7.34 -1.01318
7.35 -1.00251
7.36 -0.993001
7.37 -0.984563
7.38 -0.976838
7.39 -0.968916
7.4 -0.959477
7.41 -0.946983
7.42 -0.929702
7.43 -0.905166
7.44 -0.872356
7.45 -0.827791
7.46 -0.771395
7.47 -0.700989
7.48 -0.615859
7.49 -0.516622
7.5 -0.401906
7.51 -0.274791
7.52 -0.135426
7.53 0.0128992
7.54 0.167627
7.55 0.325482
7.56 0.482901
7.57 0.635603
7.58 0.780456
7.59 0.913318
7.6 1.03069
7.61 1.13079
7.62 1.20865
7.63 1.26557
7.64 1.29769
7.65 1.30641
7.66 1.2918
7.67 1.25361
7.68 1.19582
7.69 1.11761
7.7 1.02426
7.71 0.917401
7.72 0.80058
7.73 0.67732
7.74 0.550518
7.75 0.423658
7.76 0.299807
7.77 0.181564
7.78 0.0711946
7.79 -0.0286065
7.8 -0.117518
7.81 -0.192394
7.82 -0.254295
7.83 -0.301823
7.84 -0.335107
7.85 -0.35529
7.86 -0.361456
7.87 -0.356448
7.88 -0.340128
7.89 -0.314867
7.9 -0.282158
7.91 -0.243618
7.92 -0.201632
7.93 -0.157887
7.94 -0.114631
7.95 -0.0738166
7.96 -0.0374631
7.97 -0.00687809
7.98 0.0154429
7.99 0.0294194
8 0.0329896
8.01 0.0262655
8.02 0.00894531
8.03 -0.019424
8.04 -0.0571685
8.05 -0.104823
8.06 -0.159865
8.07 -0.221419
8.08 -0.287586
8.09 -0.356447
8.1 -0.426229
8.11 -0.495093
8.12 -0.561214
8.13 -0.623301
8.14 -0.680275
8.15 -0.730966
8.16 -0.775686
8.17 -0.81343
8.18 -0.845442
8.19 -0.871899
8.2 -0.893792
8.21 -0.912305
8.22 -0.928191
8.23 -0.942723
8.24 -0.956514
8.25 -0.970091
8.26 -0.983503
8.27 -0.996273
8.28 -1.00763
8.29 -1.01572
8.3 -1.019
8.31 -1.01479
8.32 -1.0002
8.33 -0.973197
8.34 -0.928763
8.35 -0.866559
8.36 -0.781687
8.37 -0.673611
8.38 -0.540872
8.39 -0.381328
8.4 -0.198164
8.41 0.0110348
8.42 0.240562
8.43 0.488765
8.44 0.750895
8.45 1.02156
8.46 1.29533
8.47 1.56589
8.48 1.82618
8.49 2.07019
8.5 2.29204
8.51 2.48399
8.52 2.64474
8.53 2.76454
8.54 2.84561
8.55 2.88313
8.56 2.87666
8.57 2.82932
8.58 2.73768
8.59 2.61054
8.6 2.44735
8.61 2.25555
8.62 2.03993
8.63 1.80548
8.64 1.55966
8.65 1.30727
8.66 1.05488
8.67 0.807664
8.68 0.570741
8.69 0.347184
8.7 0.142543
8.71 -0.0434236
8.72 -0.206684
8.73 -0.348018
8.74 -0.467319
8.75 -0.564052
8.76 -0.641881
8.77 -0.699762
8.78 -0.742468
8.79 -0.771212
8.8 -0.788867
8.81 -0.798427
8.82 -0.801652
8.83 -0.80159
8.84 -0.799925
8.85 -0.798577
8.86 -0.798843
8.87 -0.801986
8.88 -0.808321
8.89 -0.818766
8.9 -0.832845
8.91 -0.850623
8.92 -0.871617
8.93 -0.895095
8.94 -0.920585
8.95 -0.947079
8.96 -0.973902
8.97 -1.00025
8.98 -1.02549
8.99 -1.04889
9 -1.07023
9.01 -1.0888
9.02 -1.10474
9.03 -1.11778
9.04 -1.12794
9.05 -1.13551
9.06 -1.14032
9.07 -1.14296
9.08 -1.14333
9.09 -1.14177
9.1 -1.13835
9.11 -1.13299
9.12 -1.12582
9.13 -1.11631
9.14 -1.10444
9.15 -1.08963
9.16 -1.07136
9.17 -1.04936
9.18 -1.02247
9.19 -0.990864
9.2 -0.953505
9.21 -0.910466
9.22 -0.861614
9.23 -0.806704
9.24 -0.746727
9.25 -0.681574
9.26 -0.612831
9.27 -0.541388
9.28 -0.468813
9.29 -0.396645
9.3 -0.326957
9.31 -0.261148
9.32 -0.201562
9.33 -0.149542
9.34 -0.106501
9.35 -0.0743517
9.36 -0.0526731
9.37 -0.043657
9.38 -0.0456814
9.39 -0.0591039
9.4 -0.082874
9.41 -0.115149
9.42 -0.155148
9.43 -0.199939
9.44 -0.247925
9.45 -0.296585
9.46 -0.343916
9.47 -0.387604
9.48 -0.426478
9.49 -0.458226
9.5 -0.482805
9.51 -0.499235
9.52 -0.507559
9.53 -0.508718
9.54 -0.502783
9.55 -0.491957
9.56 -0.477231
9.57 -0.460685
9.58 -0.443991
9.59 -0.429093
9.6 -0.41724
9.61 -0.410417
9.62 -0.408994
9.63 -0.413966
9.64 -0.42555
9.65 -0.443175
9.66 -0.467042
9.67 -0.495478
9.68 -0.527937
9.69 -0.562865
9.7 -0.59908
9.71 -0.635294
9.72 -0.670513
9.73 -0.70358
9.74 -0.734124
9.75 -0.761599
9.76 -0.785879
9.77 -0.807244
9.78 -0.825557
9.79 -0.84151
9.8 -0.855043
9.81 -0.866383
9.82 -0.875328
9.83 -0.881064
9.84 -0.883002
9.85 -0.878808
9.86 -0.867181
9.87 -0.845122
9.88 -0.809453
9.89 -0.758117
9.9 -0.685083
9.91 -0.590148
9.92 -0.467381
9.93 -0.315872
9.94 -0.133755
9.95 0.0821528
9.96 0.328145
9.97 0.607792
9.98 0.914441
9.99 1.24647
10 1.59847
10.01 1.96375
10.02 2.33614
10.03 2.70731
10.04 3.0687
10.05 3.41226
10.06 3.73038
10.07 4.01283
10.08 4.25729
10.09 4.45119
10.1 4.59634
10.11 4.68636
10.12 4.71981
10.13 4.7005
10.14 4.6232
10.15 4.49907
10.16 4.32703
10.17 4.11624
10.18 3.87281
10.19 3.60265
10.2 3.31551
10.21 3.01692
10.22 2.71547
10.23 2.41726
10.24 2.12859
10.25 1.85322
10.26 1.59735
10.27 1.36089
10.28 1.14791
10.29 0.957487
10.3 0.789316
10.31 0.643578
10.32 0.51615
10.33 0.407456
10.34 0.312593
10.35 0.229957
10.36 0.15665
10.37 0.0898298
10.38 0.027856
10.39 -0.0317287
10.4 -0.0901434
10.41 -0.148601
10.42 -0.207749
10.43 -0.268029
10.44 -0.329359
10.45 -0.391696
10.46 -0.454542
10.47 -0.517464
10.48 -0.579868
10.49 -0.641282
10.5 -0.700944
10.51 -0.75861
10.52 -0.813558
10.53 -0.865522
10.54 -0.914143
10.55 -0.958785
10.56 -0.999561
10.57 -1.03544
10.58 -1.06663
10.59 -1.09243
10.6 -1.1124
10.61 -1.12657
10.62 -1.13373
10.63 -1.13459
10.64 -1.12818
10.65 -1.11495
10.66 -1.09501
10.67 -1.06831
10.68 -1.03608
10.69 -0.998302
10.7 -0.956624
10.71 -0.911875
10.72 -0.865452
10.73 -0.818696
10.74 -0.773171
10.75 -0.730022
10.76 -0.690855
10.77 -0.656604
10.78 -0.628129
10.79 -0.606591
10.8 -0.5916
10.81 -0.584356
10.82 -0.583766
10.83 -0.589913
10.84 -0.602133
10.85 -0.619324
10.86 -0.641154
10.87 -0.666062
10.88 -0.693451
10.89 -0.722215
10.9 -0.751603
10.91 -0.780903
10.92 -0.809649
10.93 -0.837357
10.94 -0.863953
10.95 -0.889303
10.96 -0.913455
10.97 -0.9366
10.98 -0.958779
10.99 -0.980276
11 -1.00113
11.01 -1.02146
11.02 -1.04123
11.03 -1.06032
11.04 -1.07862
11.05 -1.09575
11.06 -1.11158
11.07 -1.12573
11.08 -1.13792
11.09 -1.14808
11.1 -1.15578
11.11 -1.16132
11.12 -1.16449
11.13 -1.1656
11.14 -1.16483
11.15 -1.16234
11.16 -1.15849
11.17 -1.15323
11.18 -1.14673
11.19 -1.13868
11.2 -1.1286
11.21 -1.11595
11.22 -1.09916
11.23 -1.07751
11.24 -1.0487
11.25 -1.01123
11.26 -0.963242
11.27 -0.901698
11.28 -0.826309
11.29 -0.732901
11.3 -0.622233
11.31 -0.49223
11.32 -0.342485
11.33 -0.174645
11.34 0.012571
11.35 0.214594
11.36 0.430435
11.37 0.655546
11.38 0.886021
11.39 1.11693
11.4 1.34356
11.41 1.55936
11.42 1.7603
11.43 1.94052
11.44 2.09495
11.45 2.22177
11.46 2.31339
11.47 2.37262
11.48 2.39428
11.49 2.38062
11.5 2.33268
11.51 2.25036
11.52 2.14026
11.53 2.00215
11.54 1.84386
11.55 1.6687
11.56 1.4821
11.57 1.28938
11.58 1.09517
11.59 0.90391
11.6 0.71989
11.61 0.545999
11.62 0.384441
11.63 0.237904
11.64 0.105457
11.65 -0.0105708
11.66 -0.112753
11.67 -0.201266
11.68 -0.277768
11.69 -0.344733
11.7 -0.403047
11.71 -0.455798
11.72 -0.504153
11.73 -0.550032
11.74 -0.59459
11.75 -0.638693
11.76 -0.682791
11.77 -0.726905
11.78 -0.770652
11.79 -0.813309
11.8 -0.853778
11.81 -0.891121
11.82 -0.923349
11.83 -0.949848
11.84 -0.968531
11.85 -0.978551
11.86 -0.978926
11.87 -0.967965
11.88 -0.946347
11.89 -0.911942
11.9 -0.866151
11.91 -0.808349
11.92 -0.738906
11.93 -0.65918
11.94 -0.568642
11.95 -0.469799
11.96 -0.362877
11.97 -0.249809
11.98 -0.132037
11.99 -0.0110803
12 0.111088
12.01 0.232603
12.02 0.351596
12.03 0.466012
12.04 0.57368
12.05 0.673331
12.06 0.761679
12.07 0.838669
12.08 0.901369
12.09 0.949311
12.1 0.981686
12.11 0.996707
12.12 0.996165
12.13 0.977863
12.14 0.944606
12.15 0.89649
12.16 0.83509
12.17 0.763003
12.18 0.68113
12.19 0.593095
12.2 0.500637
12.21 0.406591
12.22 0.313137
12.23 0.222716
12.24 0.136666
12.25 0.0572968
12.26 -0.0151488
12.27 -0.07968
12.28 -0.136146
12.29 -0.185417
12.3 -0.227289
12.31 -0.263828
12.32 -0.295709
12.33 -0.324712
12.34 -0.352194
12.35 -0.379567
12.36 -0.407899
12.37 -0.438296
12.38 -0.47101
12.39 -0.506264
