# xPDFsuite Configuration #
[PDF]
wavelength = 0.1432
dataformat = twotheta
inputfile = 1_1Pd_CeO2_cycle-00444.chi
backgroundfile = background-00000.chi
mode = xray
bgscale = 1.007
composition = CeO2
outputtype = gr
qmaxinst = 28.8974762299
qmin = 0.5
qmax = 27.9
rmax = 50.0
rmin = 0.0
rstep = 0.01
rpoly = 1.8657

[Misc]
inputdir = G:/SankarDec16/1Pd/Chi
savedir = D:/DATA/APS_CeO2/1Pd
backgroundfilefull = G:/SankarDec16/Background/background-00000.chi

#### start data
#S 1
#L r($\AA$)  G($\AA^{-2}$)
0 0
0.01 -0.00419204
0.02 -0.00806757
0.03 -0.0113007
0.04 -0.0136462
0.05 -0.0149678
0.06 -0.0150462
0.07 -0.0140282
0.08 -0.0118441
0.09 -0.00877344
0.1 -0.00500994
0.11 -0.000849833
0.12 0.00338464
0.13 0.00733124
0.14 0.0107348
0.15 0.0132819
0.16 0.0147903
0.17 0.0151879
0.18 0.014327
0.19 0.0124239
0.2 0.00948929
0.21 0.00584957
0.22 0.00174634
0.23 -0.00248765
0.24 -0.00654981
0.25 -0.01005
0.26 -0.0128069
0.27 -0.0145354
0.28 -0.0151249
0.29 -0.0145715
0.3 -0.0128061
0.31 -0.0101042
0.32 -0.00655656
0.33 -0.00252045
0.34 0.00172669
0.35 0.00583172
0.36 0.00952671
0.37 0.012413
0.38 0.0143919
0.39 0.0152209
0.4 0.0148668
0.41 0.0133941
0.42 0.0108159
0.43 0.00745363
0.44 0.00347351
0.45 -0.000753597
0.46 -0.00492821
0.47 -0.00869403
0.48 -0.0118313
0.49 -0.0139525
0.5 -0.0150468
0.51 -0.0149263
0.52 -0.0136372
0.53 -0.0113093
0.54 -0.00803783
0.55 -0.0041743
0.56 4.76874e-05
0.57 0.00426179
0.58 0.00816145
0.59 0.0114046
0.6 0.0138309
0.61 0.0150832
0.62 0.0152392
0.63 0.0141755
0.64 0.0120154
0.65 0.00894812
0.66 0.00514664
0.67 0.000975192
0.68 -0.00327641
0.69 -0.00726424
0.7 -0.0106898
0.71 -0.0132418
0.72 -0.0148272
0.73 -0.0151365
0.74 -0.0143323
0.75 -0.0123606
0.76 -0.00941564
0.77 -0.00573602
0.78 -0.0015627
0.79 0.00274561
0.8 0.00685908
0.81 0.0104733
0.82 0.0133136
0.83 0.0151157
0.84 0.0158575
0.85 0.0152933
0.86 0.0136594
0.87 0.0109725
0.88 0.00748419
0.89 0.00346586
0.9 -0.000792736
0.91 -0.00496191
0.92 -0.00870031
0.93 -0.0117657
0.94 -0.0139331
0.95 -0.0150124
0.96 -0.0150589
0.97 -0.013928
0.98 -0.0119148
0.99 -0.00912406
1 -0.00585596
1.01 -0.00240013
1.02 0.000908405
1.03 0.00380659
1.04 0.00595693
1.05 0.00721966
1.06 0.00745188
1.07 0.00658179
1.08 0.00477565
1.09 0.00205406
1.1 -0.00120265
1.11 -0.00473842
1.12 -0.00815808
1.13 -0.0111192
1.14 -0.0131536
1.15 -0.0140707
1.16 -0.0134365
1.17 -0.0112174
1.18 -0.00730804
1.19 -0.00170932
1.2 0.00525552
1.21 0.0134914
1.22 0.0224225
1.23 0.0316567
1.24 0.0406258
1.25 0.0488455
1.26 0.0556348
1.27 0.0607232
1.28 0.0634409
1.29 0.06369
1.3 0.0612257
1.31 0.0558942
1.32 0.0480576
1.33 0.0375338
1.34 0.0250659
1.35 0.0109021
1.36 -0.00433724
1.37 -0.020077
1.38 -0.0356804
1.39 -0.0506027
1.4 -0.0641509
1.41 -0.0759333
1.42 -0.0855045
1.43 -0.0924281
1.44 -0.0967764
1.45 -0.097981
1.46 -0.096517
1.47 -0.0922231
1.48 -0.085394
1.49 -0.0763771
1.5 -0.0653158
1.51 -0.0528235
1.52 -0.0391281
1.53 -0.0247656
1.54 -0.0101064
1.55 0.00441603
1.56 0.0184752
1.57 0.0315818
1.58 0.0435586
1.59 0.0540093
1.6 0.0627078
1.61 0.06953
1.62 0.0740826
1.63 0.076543
1.64 0.0765469
1.65 0.0743022
1.66 0.0697895
1.67 0.0630451
1.68 0.0544468
1.69 0.0439458
1.7 0.0321211
1.71 0.0191898
1.72 0.00561175
1.73 -0.00819642
1.74 -0.0217586
1.75 -0.0347013
1.76 -0.0465132
1.77 -0.0569374
1.78 -0.0656778
1.79 -0.0724695
1.8 -0.0774385
1.81 -0.0803108
1.82 -0.0815487
1.83 -0.0812488
1.84 -0.0798374
1.85 -0.0777514
1.86 -0.0754597
1.87 -0.0734498
1.88 -0.0722605
1.89 -0.0722475
1.9 -0.0737524
1.91 -0.0770691
1.92 -0.0820856
1.93 -0.0890124
1.94 -0.0973405
1.95 -0.106838
1.96 -0.11693
1.97 -0.12704
1.98 -0.136401
1.99 -0.144451
2 -0.150279
2.01 -0.153432
2.02 -0.153335
2.03 -0.149414
2.04 -0.141826
2.05 -0.129834
2.06 -0.114171
2.07 -0.0947131
2.08 -0.0719674
2.09 -0.0465053
2.1 -0.018649
2.11 0.0107623
2.12 0.041369
2.13 0.0725721
2.14 0.104032
2.15 0.135477
2.16 0.166805
2.17 0.198021
2.18 0.229287
2.19 0.260849
2.2 0.293017
2.21 0.326046
2.22 0.360326
2.23 0.395842
2.24 0.43277
2.25 0.470787
2.26 0.50953
2.27 0.548301
2.28 0.586307
2.29 0.622154
2.3 0.654906
2.31 0.682913
2.32 0.704789
2.33 0.719553
2.34 0.725041
2.35 0.721524
2.36 0.707045
2.37 0.682261
2.38 0.647014
2.39 0.601503
2.4 0.547643
2.41 0.485587
2.42 0.418256
2.43 0.347111
2.44 0.274587
2.45 0.202774
2.46 0.134205
2.47 0.0703124
2.48 0.0135069
2.49 -0.0355152
2.5 -0.0757897
2.51 -0.106618
2.52 -0.129129
2.53 -0.142678
2.54 -0.149699
2.55 -0.15103
2.56 -0.148697
2.57 -0.144567
2.58 -0.140585
2.59 -0.138384
2.6 -0.139804
2.61 -0.145727
2.62 -0.156957
2.63 -0.174003
2.64 -0.196087
2.65 -0.223301
2.66 -0.253816
2.67 -0.286565
2.68 -0.319743
2.69 -0.351769
2.7 -0.380613
2.71 -0.405278
2.72 -0.423916
2.73 -0.436206
2.74 -0.441652
2.75 -0.440111
2.76 -0.432836
2.77 -0.420061
2.78 -0.404021
2.79 -0.3861
2.8 -0.368374
2.81 -0.352573
2.82 -0.340945
2.83 -0.334387
2.84 -0.334813
2.85 -0.342326
2.86 -0.35725
2.87 -0.379468
2.88 -0.407431
2.89 -0.440548
2.9 -0.476325
2.91 -0.513033
2.92 -0.548349
2.93 -0.580418
2.94 -0.606695
2.95 -0.626442
2.96 -0.637571
2.97 -0.640213
2.98 -0.634162
2.99 -0.619706
3 -0.59872
3.01 -0.571945
3.02 -0.542203
3.03 -0.511402
3.04 -0.482052
3.05 -0.456109
3.06 -0.436193
3.07 -0.422996
3.08 -0.418546
3.09 -0.422564
3.1 -0.435095
3.11 -0.455639
3.12 -0.482198
3.13 -0.513767
3.14 -0.547542
3.15 -0.58152
3.16 -0.613285
3.17 -0.641068
3.18 -0.662496
3.19 -0.677274
3.2 -0.683878
3.21 -0.683087
3.22 -0.675425
3.23 -0.662106
3.24 -0.645388
3.25 -0.627282
3.26 -0.610453
3.27 -0.597474
3.28 -0.590758
3.29 -0.59181
3.3 -0.603114
3.31 -0.624013
3.32 -0.655757
3.33 -0.696526
3.34 -0.74499
3.35 -0.798912
3.36 -0.855186
3.37 -0.910567
3.38 -0.961907
3.39 -1.00572
3.4 -1.03916
3.41 -1.06069
3.42 -1.06734
3.43 -1.06062
3.44 -1.03928
3.45 -1.00619
3.46 -0.963431
3.47 -0.914223
3.48 -0.862647
3.49 -0.812977
3.5 -0.768945
3.51 -0.734647
3.52 -0.713002
3.53 -0.705166
3.54 -0.713382
3.55 -0.73469
3.56 -0.768208
3.57 -0.808627
3.58 -0.850815
3.59 -0.887195
3.6 -0.911323
3.61 -0.911463
3.62 -0.882572
3.63 -0.813963
3.64 -0.698711
3.65 -0.533574
3.66 -0.30823
3.67 -0.0288338
3.68 0.311215
3.69 0.703338
3.7 1.14303
3.71 1.62292
3.72 2.12924
3.73 2.65203
3.74 3.17499
3.75 3.68352
3.76 4.16169
3.77 4.59755
3.78 4.97078
3.79 5.27841
3.8 5.50148
3.81 5.63992
3.82 5.68819
3.83 5.64132
3.84 5.51105
3.85 5.28905
3.86 4.99627
3.87 4.63619
3.88 4.22328
3.89 3.77209
3.9 3.29415
3.91 2.80619
3.92 2.32105
3.93 1.85134
3.94 1.4076
3.95 1.00095
3.96 0.633725
3.97 0.317841
3.98 0.048219
3.99 -0.170857
4 -0.342532
4.01 -0.472267
4.02 -0.560808
4.03 -0.619086
4.04 -0.649742
4.05 -0.661843
4.06 -0.660914
4.07 -0.652736
4.08 -0.642479
4.09 -0.634267
4.1 -0.630601
4.11 -0.63354
4.12 -0.643623
4.13 -0.660213
4.14 -0.682768
4.15 -0.708842
4.16 -0.736631
4.17 -0.763552
4.18 -0.787387
4.19 -0.805604
4.2 -0.817146
4.21 -0.8193
4.22 -0.812517
4.23 -0.795624
4.24 -0.768944
4.25 -0.73342
4.26 -0.68901
4.27 -0.637928
4.28 -0.580584
4.29 -0.518814
4.3 -0.453667
4.31 -0.386187
4.32 -0.317419
4.33 -0.247936
4.34 -0.178322
4.35 -0.108876
4.36 -0.0398044
4.37 0.0287933
4.38 0.0967119
4.39 0.163853
4.4 0.229773
4.41 0.294058
4.42 0.356033
4.43 0.414606
4.44 0.469172
4.45 0.51768
4.46 0.559705
4.47 0.593396
4.48 0.617605
4.49 0.631819
4.5 0.633924
4.51 0.625025
4.52 0.603485
4.53 0.570589
4.54 0.52672
4.55 0.472494
4.56 0.410201
4.57 0.340332
4.58 0.265771
4.59 0.187991
4.6 0.10916
4.61 0.0310257
4.62 -0.0443964
4.63 -0.116102
4.64 -0.182402
4.65 -0.242921
4.66 -0.297148
4.67 -0.344693
4.68 -0.386457
4.69 -0.422035
4.7 -0.452998
4.71 -0.479759
4.72 -0.503372
4.73 -0.524796
4.74 -0.54469
4.75 -0.563889
4.76 -0.582815
4.77 -0.601798
4.78 -0.620929
4.79 -0.640115
4.8 -0.659129
4.81 -0.677526
4.82 -0.694959
4.83 -0.710903
4.84 -0.724933
4.85 -0.736836
4.86 -0.746103
4.87 -0.753005
4.88 -0.757302
4.89 -0.759434
4.9 -0.759698
4.91 -0.758518
4.92 -0.756525
4.93 -0.754227
4.94 -0.752217
4.95 -0.751013
4.96 -0.751053
4.97 -0.752559
4.98 -0.755915
4.99 -0.760928
5 -0.767741
5.01 -0.776025
5.02 -0.785558
5.03 -0.79605
5.04 -0.807097
5.05 -0.818416
5.06 -0.829667
5.07 -0.840597
5.08 -0.850987
5.09 -0.860718
5.1 -0.86956
5.11 -0.87751
5.12 -0.884282
5.13 -0.889733
5.14 -0.89353
5.15 -0.895067
5.16 -0.894011
5.17 -0.889008
5.18 -0.879628
5.19 -0.864378
5.2 -0.842022
5.21 -0.811738
5.22 -0.771121
5.23 -0.720436
5.24 -0.657334
5.25 -0.582113
5.26 -0.494305
5.27 -0.393485
5.28 -0.281635
5.29 -0.158311
5.3 -0.0269083
5.31 0.110978
5.32 0.252172
5.33 0.393571
5.34 0.53118
5.35 0.662025
5.36 0.781365
5.37 0.886466
5.38 0.974102
5.39 1.04037
5.4 1.08558
5.41 1.10456
5.42 1.10028
5.43 1.07087
5.44 1.01781
5.45 0.943834
5.46 0.84917
5.47 0.739382
5.48 0.616043
5.49 0.484072
5.5 0.346908
5.51 0.208482
5.52 0.0721347
5.53 -0.0581435
5.54 -0.180457
5.55 -0.291977
5.56 -0.391144
5.57 -0.477675
5.58 -0.549563
5.59 -0.608878
5.6 -0.654578
5.61 -0.688737
5.62 -0.71232
5.63 -0.72631
5.64 -0.732969
5.65 -0.732569
5.66 -0.727243
5.67 -0.717496
5.68 -0.704166
5.69 -0.687846
5.7 -0.668408
5.71 -0.64626
5.72 -0.620878
5.73 -0.592264
5.74 -0.560135
5.75 -0.524107
5.76 -0.484545
5.77 -0.441017
5.78 -0.394446
5.79 -0.345187
5.8 -0.294233
5.81 -0.242677
5.82 -0.191916
5.83 -0.143183
5.84 -0.0982686
5.85 -0.0583591
5.86 -0.0247564
5.87 0.000966774
5.88 0.0188579
5.89 0.0269694
5.9 0.0264216
5.91 0.0166011
5.92 -0.00185104
5.93 -0.0277973
5.94 -0.0610066
5.95 -0.0993823
5.96 -0.142252
5.97 -0.187893
5.98 -0.235157
5.99 -0.282856
6 -0.330078
6.01 -0.375912
6.02 -0.420071
6.03 -0.462189
6.04 -0.502298
6.05 -0.540683
6.06 -0.577524
6.07 -0.613436
6.08 -0.648765
6.09 -0.683974
6.1 -0.719342
6.11 -0.755036
6.12 -0.790987
6.13 -0.826965
6.14 -0.862532
6.15 -0.897067
6.16 -0.929803
6.17 -0.96012
6.18 -0.986826
6.19 -1.00974
6.2 -1.02777
6.21 -1.04095
6.22 -1.04912
6.23 -1.05222
6.24 -1.05123
6.25 -1.04629
6.26 -1.03888
6.27 -1.02983
6.28 -1.02039
6.29 -1.01152
6.3 -1.00426
6.31 -0.998887
6.32 -0.99576
6.33 -0.994254
6.34 -0.993433
6.35 -0.991489
6.36 -0.986485
6.37 -0.974668
6.38 -0.953591
6.39 -0.918827
6.4 -0.866284
6.41 -0.79331
6.42 -0.693043
6.43 -0.565959
6.44 -0.405727
6.45 -0.212967
6.46 0.0134834
6.47 0.274982
6.48 0.566306
6.49 0.889031
6.5 1.23458
6.51 1.59943
6.52 1.97607
6.53 2.357
6.54 2.73329
6.55 3.09735
6.56 3.43847
6.57 3.74953
6.58 4.02271
6.59 4.24808
6.6 4.4253
6.61 4.54116
6.62 4.60087
6.63 4.59841
6.64 4.5349
6.65 4.41541
6.66 4.23697
6.67 4.01225
6.68 3.74169
6.69 3.43631
6.7 3.10316
6.71 2.75008
6.72 2.38687
6.73 2.02124
6.74 1.66135
6.75 1.31464
6.76 0.987703
6.77 0.68419
6.78 0.411679
6.79 0.168697
6.8 -0.039214
6.81 -0.214206
6.82 -0.356443
6.83 -0.465825
6.84 -0.547902
6.85 -0.601371
6.86 -0.633341
6.87 -0.645449
6.88 -0.641807
6.89 -0.626436
6.9 -0.601594
6.91 -0.571358
6.92 -0.5377
6.93 -0.503123
6.94 -0.469229
6.95 -0.437525
6.96 -0.408631
6.97 -0.383711
6.98 -0.362587
6.99 -0.345724
7 -0.333106
7.01 -0.324461
7.02 -0.320222
7.03 -0.319748
7.04 -0.32351
7.05 -0.331215
7.06 -0.342958
7.07 -0.359038
7.08 -0.379047
7.09 -0.403653
7.1 -0.432183
7.11 -0.4648
7.12 -0.501141
7.13 -0.54061
7.14 -0.582949
7.15 -0.627094
7.16 -0.672424
7.17 -0.717901
7.18 -0.762641
7.19 -0.805549
7.2 -0.846017
7.21 -0.882758
7.22 -0.915635
7.23 -0.943904
7.24 -0.967357
7.25 -0.986247
7.26 -1.00022
7.27 -1.01031
7.28 -1.01659
7.29 -1.02006
7.3 -1.02137
7.31 -1.02118
7.32 -1.02026
7.33 -1.01904
7.34 -1.01785
7.35 -1.01675
7.36 -1.01549
7.37 -1.0136
7.38 -1.01005
7.39 -1.00403
7.4 -0.993838
7.41 -0.978224
7.42 -0.955659
7.43 -0.923984
7.44 -0.882829
7.45 -0.829161
7.46 -0.763622
7.47 -0.684628
7.48 -0.59208
7.49 -0.486976
7.5 -0.368584
7.51 -0.239928
7.52 -0.101537
7.53 0.0435351
7.54 0.192892
7.55 0.343503
7.56 0.492394
7.57 0.635651
7.58 0.770816
7.59 0.894272
7.6 1.00309
7.61 1.09589
7.62 1.16828
7.63 1.22159
7.64 1.25237
7.65 1.26188
7.66 1.25013
7.67 1.21676
7.68 1.16527
7.69 1.09468
7.7 1.00968
7.71 0.911539
7.72 0.803344
7.73 0.688262
7.74 0.568739
7.75 0.448118
7.76 0.329123
7.77 0.214329
7.78 0.10595
7.79 0.0066328
7.8 -0.0830538
7.81 -0.160012
7.82 -0.224951
7.83 -0.276357
7.84 -0.314133
7.85 -0.339208
7.86 -0.350514
7.87 -0.350709
7.88 -0.339527
7.89 -0.319233
7.9 -0.291242
7.91 -0.257079
7.92 -0.219121
7.93 -0.178939
7.94 -0.138797
7.95 -0.100563
7.96 -0.0662004
7.97 -0.0369975
7.98 -0.0152994
7.99 -0.00123366
8 0.00328102
8.01 -0.00167082
8.02 -0.0163767
8.03 -0.041266
8.04 -0.0748123
8.05 -0.117543
8.06 -0.16717
8.07 -0.222949
8.08 -0.283205
8.09 -0.346233
8.1 -0.410536
8.11 -0.474446
8.12 -0.53642
8.13 -0.595295
8.14 -0.65012
8.15 -0.69987
8.16 -0.74474
8.17 -0.783843
8.18 -0.818151
8.19 -0.847746
8.2 -0.873377
8.21 -0.895967
8.22 -0.916011
8.23 -0.934521
8.24 -0.951839
8.25 -0.968309
8.26 -0.983835
8.27 -0.997794
8.28 -1.0095
8.29 -1.01699
8.3 -1.019
8.31 -1.01293
8.32 -0.996143
8.33 -0.966862
8.34 -0.920342
8.35 -0.856462
8.36 -0.770611
8.37 -0.662395
8.38 -0.530482
8.39 -0.372859
8.4 -0.192586
8.41 0.0126773
8.42 0.237498
8.43 0.480353
8.44 0.73675
8.45 1.00155
8.46 1.26962
8.47 1.53486
8.48 1.7905
8.49 2.03068
8.5 2.24964
8.51 2.43983
8.52 2.59982
8.53 2.72001
8.54 2.8024
8.55 2.84215
8.56 2.83865
8.57 2.79484
8.58 2.70723
8.59 2.58441
8.6 2.42575
8.61 2.2386
8.62 2.02772
8.63 1.79806
8.64 1.55707
8.65 1.30961
8.66 1.06224
8.67 0.820162
8.68 0.588488
8.69 0.370257
8.7 0.170951
8.71 -0.00977635
8.72 -0.16806
8.73 -0.304853
8.74 -0.420246
8.75 -0.513989
8.76 -0.589841
8.77 -0.647142
8.78 -0.690638
8.79 -0.721734
8.8 -0.743316
8.81 -0.758226
8.82 -0.768241
8.83 -0.775988
8.84 -0.78295
8.85 -0.790594
8.86 -0.799825
8.87 -0.81141
8.88 -0.825328
8.89 -0.841916
8.9 -0.860554
8.91 -0.88096
8.92 -0.902521
8.93 -0.924627
8.94 -0.946683
8.95 -0.9682
8.96 -0.988671
8.97 -1.00785
8.98 -1.02558
8.99 -1.0417
9 -1.05643
9.01 -1.06972
9.02 -1.08194
9.03 -1.0932
9.04 -1.10371
9.05 -1.11363
9.06 -1.1229
9.07 -1.13156
9.08 -1.13929
9.09 -1.1458
9.1 -1.15067
9.11 -1.15313
9.12 -1.15285
9.13 -1.14858
9.14 -1.14008
9.15 -1.12637
9.16 -1.10678
9.17 -1.08119
9.18 -1.04839
9.19 -1.0092
9.2 -0.962855
9.21 -0.91015
9.22 -0.851545
9.23 -0.787533
9.24 -0.719607
9.25 -0.648467
9.26 -0.575889
9.27 -0.503198
9.28 -0.432076
9.29 -0.363836
9.3 -0.300601
9.31 -0.243027
9.32 -0.193113
9.33 -0.151417
9.34 -0.118693
9.35 -0.0960501
9.36 -0.0825455
9.37 -0.0795048
9.38 -0.0851391
9.39 -0.0993629
9.4 -0.121039
9.41 -0.148596
9.42 -0.181234
9.43 -0.216827
9.44 -0.254167
9.45 -0.291564
9.46 -0.327708
9.47 -0.36112
9.48 -0.391153
9.49 -0.416378
9.5 -0.436896
9.51 -0.452155
9.52 -0.462261
9.53 -0.467853
9.54 -0.469004
9.55 -0.467093
9.56 -0.462717
9.57 -0.457139
9.58 -0.451357
9.59 -0.44653
9.6 -0.443422
9.61 -0.443225
9.62 -0.446211
9.63 -0.45303
9.64 -0.463901
9.65 -0.478573
9.66 -0.497334
9.67 -0.519264
9.68 -0.544236
9.69 -0.571413
9.7 -0.600195
9.71 -0.62995
9.72 -0.660006
9.73 -0.689794
9.74 -0.718873
9.75 -0.74682
9.76 -0.773302
9.77 -0.798175
9.78 -0.820929
9.79 -0.841571
9.8 -0.85943
9.81 -0.874108
9.82 -0.88488
9.83 -0.890337
9.84 -0.889855
9.85 -0.88064
9.86 -0.861827
9.87 -0.830569
9.88 -0.784252
9.89 -0.721525
9.9 -0.637185
9.91 -0.53186
9.92 -0.400653
9.93 -0.243403
9.94 -0.0589195
9.95 0.155149
9.96 0.395268
9.97 0.66428
9.98 0.956344
9.99 1.27002
10 1.60071
10.01 1.94276
10.02 2.29103
10.03 2.63843
10.04 2.97776
10.05 3.30208
10.06 3.60475
10.07 3.87678
10.08 4.11584
10.09 4.31054
10.1 4.46193
10.11 4.56371
10.12 4.61379
10.13 4.61488
10.14 4.56106
10.15 4.46191
10.16 4.3152
10.17 4.12876
10.18 3.90757
10.19 3.65625
10.2 3.38418
10.21 3.09565
10.22 2.7996
10.23 2.50182
10.24 2.20894
10.25 1.92552
10.26 1.65811
10.27 1.40797
10.28 1.17994
10.29 0.97428
10.3 0.791594
10.31 0.633096
10.32 0.49513
10.33 0.37906
10.34 0.279893
10.35 0.196312
10.36 0.125256
10.37 0.0633662
10.38 0.00879572
10.39 -0.0418513
10.4 -0.090309
10.41 -0.138591
10.42 -0.187962
10.43 -0.239538
10.44 -0.293539
10.45 -0.350495
10.46 -0.409826
10.47 -0.471231
10.48 -0.533962
10.49 -0.597195
10.5 -0.65998
10.51 -0.721516
10.52 -0.780756
10.53 -0.837013
10.54 -0.889635
10.55 -0.937711
10.56 -0.981303
10.57 -1.01926
10.58 -1.052
10.59 -1.07894
10.6 -1.09992
10.61 -1.11524
10.62 -1.12405
10.63 -1.12722
10.64 -1.12409
10.65 -1.11514
10.66 -1.10048
10.67 -1.07997
10.68 -1.05455
10.69 -1.02388
10.7 -0.989144
10.71 -0.950704
10.72 -0.909415
10.73 -0.866282
10.74 -0.822202
10.75 -0.778346
10.76 -0.735903
10.77 -0.695978
10.78 -0.659596
10.79 -0.628146
10.8 -0.601906
10.81 -0.582538
10.82 -0.569755
10.83 -0.564335
10.84 -0.566394
10.85 -0.575323
10.86 -0.591677
10.87 -0.613878
10.88 -0.641875
10.89 -0.67435
10.9 -0.710357
10.91 -0.748927
10.92 -0.788775
10.93 -0.828916
10.94 -0.868309
10.95 -0.906041
10.96 -0.941284
10.97 -0.97366
10.98 -1.00227
10.99 -1.02738
11 -1.04847
11.01 -1.06588
11.02 -1.07982
11.03 -1.09041
11.04 -1.09843
11.05 -1.10403
11.06 -1.10804
11.07 -1.11089
11.08 -1.11316
11.09 -1.11531
11.1 -1.1178
11.11 -1.12088
11.12 -1.12482
11.13 -1.12962
11.14 -1.13519
11.15 -1.14126
11.16 -1.14735
11.17 -1.15276
11.18 -1.1567
11.19 -1.15809
11.2 -1.1556
11.21 -1.14826
11.22 -1.13365
11.23 -1.11126
11.24 -1.07845
11.25 -1.03414
11.26 -0.976938
11.27 -0.904352
11.28 -0.817033
11.29 -0.711652
11.3 -0.589902
11.31 -0.450615
11.32 -0.294236
11.33 -0.122795
11.34 0.0640865
11.35 0.262223
11.36 0.470275
11.37 0.684292
11.38 0.900909
11.39 1.11587
11.4 1.32553
11.41 1.52429
11.42 1.70918
11.43 1.87533
11.44 2.01862
11.45 2.13766
11.46 2.22588
11.47 2.28569
11.48 2.31237
11.49 2.30756
11.5 2.27179
11.51 2.20437
11.52 2.11076
11.53 1.9899
11.54 1.84851
11.55 1.68895
11.56 1.5157
11.57 1.3336
11.58 1.14632
11.59 0.958573
11.6 0.774197
11.61 0.596558
11.62 0.428282
11.63 0.272549
11.64 0.129402
11.65 0.00186357
11.66 -0.111673
11.67 -0.210587
11.68 -0.295744
11.69 -0.369217
11.7 -0.431123
11.71 -0.484773
11.72 -0.531026
11.73 -0.572214
11.74 -0.609878
11.75 -0.645342
11.76 -0.679849
11.77 -0.714051
11.78 -0.748315
11.79 -0.782576
11.8 -0.816349
11.81 -0.848963
11.82 -0.879015
11.83 -0.905618
11.84 -0.926874
11.85 -0.941524
11.86 -0.948217
11.87 -0.944831
11.88 -0.931394
11.89 -0.905234
11.9 -0.867187
11.91 -0.81613
11.92 -0.75201
11.93 -0.67605
11.94 -0.587361
11.95 -0.488754
11.96 -0.380429
11.97 -0.264728
11.98 -0.143451
11.99 -0.0185536
12 0.107519
12.01 0.232403
12.02 0.353905
12.03 0.469623
12.04 0.577178
12.05 0.675341
12.06 0.760707
12.07 0.833619
12.08 0.891326
12.09 0.933823
12.1 0.960713
12.11 0.970727
12.12 0.966004
12.13 0.944906
12.14 0.910377
12.15 0.86279
12.16 0.803803
12.17 0.735818
12.18 0.659759
12.19 0.578712
12.2 0.494147
12.21 0.408358
12.22 0.323064
12.23 0.240153
12.24 0.16063
12.25 0.08624
12.26 0.0171383
12.27 -0.0459355
12.28 -0.102867
12.29 -0.154302
12.3 -0.200032
12.31 -0.241581
12.32 -0.279364
12.33 -0.31465
12.34 -0.348384
12.35 -0.381499
12.36 -0.414782
12.37 -0.448892
12.38 -0.484034
