# xPDFsuite Configuration #
[PDF]
wavelength = 0.1432
dataformat = twotheta
inputfile = 1_1Pd_CeO2_cycle-00066.chi
backgroundfile = background-00000.chi
mode = xray
bgscale = 1.007
composition = CeO2
outputtype = gr
qmaxinst = 28.8974762299
qmin = 0.5
qmax = 27.9
rmax = 50.0
rmin = 0.0
rstep = 0.01
rpoly = 1.8657

[Misc]
inputdir = G:/SankarDec16/1Pd/Chi
savedir = D:/DATA/APS_CeO2/1Pd
backgroundfilefull = G:/SankarDec16/Background/background-00000.chi

#### start data
#S 1
#L r($\AA$)  G($\AA^{-2}$)
0 0
0.01 -0.00773866
0.02 -0.0148941
0.03 -0.0208658
0.04 -0.0252015
0.05 -0.0276497
0.06 -0.0278058
0.07 -0.0259395
0.08 -0.0219211
0.09 -0.0162649
0.1 -0.00932704
0.11 -0.00165251
0.12 0.00616468
0.13 0.0134578
0.14 0.0197551
0.15 0.0244784
0.16 0.0272897
0.17 0.0280542
0.18 0.0264967
0.19 0.0230139
0.2 0.0176222
0.21 0.0109215
0.22 0.00335533
0.23 -0.00446448
0.24 -0.011979
0.25 -0.01847
0.26 -0.0235994
0.27 -0.0268399
0.28 -0.0279834
0.29 -0.0270189
0.3 -0.0238138
0.31 -0.0188732
0.32 -0.0123589
0.33 -0.00492794
0.34 0.00291021
0.35 0.0105056
0.36 0.0173614
0.37 0.0227426
0.38 0.0264609
0.39 0.0280653
0.4 0.0274883
0.41 0.0248431
0.42 0.0201468
0.43 0.0139888
0.44 0.00666864
0.45 -0.00113029
0.46 -0.00885736
0.47 -0.0158552
0.48 -0.0217136
0.49 -0.0257158
0.5 -0.027833
0.51 -0.0277124
0.52 -0.0254307
0.53 -0.0212207
0.54 -0.0152486
0.55 -0.00816027
0.56 -0.000379067
0.57 0.00741803
0.58 0.0146657
0.59 0.0207306
0.6 0.0253092
0.61 0.0277379
0.62 0.0281492
0.63 0.0263062
0.64 0.0224264
0.65 0.0168514
0.66 0.00988985
0.67 0.00221271
0.68 -0.00565279
0.69 -0.0130682
0.7 -0.0194811
0.71 -0.0243122
0.72 -0.0273797
0.73 -0.0281052
0.74 -0.026776
0.75 -0.0232824
0.76 -0.0179724
0.77 -0.0112795
0.78 -0.00363854
0.79 0.00428682
0.8 0.0118931
0.81 0.0186118
0.82 0.0239317
0.83 0.0273573
0.84 0.0288376
0.85 0.0279095
0.86 0.025
0.87 0.0201317
0.88 0.013764
0.89 0.00639744
0.9 -0.00143247
0.91 -0.00910818
0.92 -0.0159893
0.93 -0.0216136
0.94 -0.0255486
0.95 -0.0274221
0.96 -0.0273244
0.97 -0.0249584
0.98 -0.0208708
0.99 -0.0152389
1 -0.00862096
1.01 -0.00156414
1.02 0.00530093
1.03 0.0114508
1.04 0.0162264
1.05 0.019319
1.06 0.0204104
1.07 0.0192961
1.08 0.0162427
1.09 0.0111774
1.1 0.00479138
1.11 -0.00252824
1.12 -0.0100836
1.13 -0.0172502
1.14 -0.0232228
1.15 -0.0275735
1.16 -0.0295274
1.17 -0.0289221
1.18 -0.0254993
1.19 -0.0191599
1.2 -0.0103732
1.21 0.000831259
1.22 0.0135285
1.23 0.0271728
1.24 0.0408781
1.25 0.0538747
1.26 0.0651478
1.27 0.0742066
1.28 0.0800622
1.29 0.0825123
1.3 0.0811846
1.31 0.0758516
1.32 0.0670265
1.33 0.0544841
1.34 0.0392913
1.35 0.0218386
1.36 0.00302433
1.37 -0.016336
1.38 -0.0353377
1.39 -0.0532671
1.4 -0.0692001
1.41 -0.0826871
1.42 -0.0932161
1.43 -0.100337
1.44 -0.104259
1.45 -0.104442
1.46 -0.101605
1.47 -0.0957277
1.48 -0.0873074
1.49 -0.0768507
1.5 -0.0646847
1.51 -0.0514824
1.52 -0.0375927
1.53 -0.0235161
1.54 -0.00959924
1.55 0.00380157
1.56 0.0165057
1.57 0.0281509
1.58 0.0387293
1.59 0.0479988
1.6 0.0558674
1.61 0.0622873
1.62 0.0669758
1.63 0.0700493
1.64 0.0711666
1.65 0.0704009
1.66 0.0676252
1.67 0.0627178
1.68 0.0559001
1.69 0.046928
1.7 0.0362775
1.71 0.0240231
1.72 0.0105691
1.73 -0.00365808
1.74 -0.0181931
1.75 -0.0325012
1.76 -0.0459742
1.77 -0.0581451
1.78 -0.068534
1.79 -0.0766524
1.8 -0.0824958
1.81 -0.0855434
1.82 -0.0862687
1.83 -0.0846712
1.84 -0.0812438
1.85 -0.0765554
1.86 -0.0712179
1.87 -0.0659997
1.88 -0.0617129
1.89 -0.0590111
1.9 -0.0585237
1.91 -0.0608632
1.92 -0.0660042
1.93 -0.0745043
1.94 -0.0856828
1.95 -0.0993757
1.96 -0.114798
1.97 -0.13109
1.98 -0.14719
1.99 -0.16208
2 -0.174393
2.01 -0.183245
2.02 -0.187644
2.03 -0.186568
2.04 -0.180098
2.05 -0.167016
2.06 -0.148354
2.07 -0.123913
2.08 -0.094524
2.09 -0.0611633
2.1 -0.0245552
2.11 0.0138395
2.12 0.0530791
2.13 0.0920045
2.14 0.129757
2.15 0.165526
2.16 0.199123
2.17 0.230004
2.18 0.258716
2.19 0.285456
2.2 0.310956
2.21 0.335982
2.22 0.36145
2.23 0.388079
2.24 0.416771
2.25 0.447841
2.26 0.481528
2.27 0.51775
2.28 0.555761
2.29 0.594782
2.3 0.633356
2.31 0.669837
2.32 0.702287
2.33 0.729077
2.34 0.747358
2.35 0.756527
2.36 0.753711
2.37 0.738811
2.38 0.710935
2.39 0.669526
2.4 0.61646
2.41 0.551092
2.42 0.476984
2.43 0.395527
2.44 0.309778
2.45 0.222565
2.46 0.137123
2.47 0.0559423
2.48 -0.0176103
2.49 -0.0819228
2.5 -0.135198
2.51 -0.175866
2.52 -0.204909
2.53 -0.220767
2.54 -0.226432
2.55 -0.222562
2.56 -0.211711
2.57 -0.196425
2.58 -0.179199
2.59 -0.162723
2.6 -0.149624
2.61 -0.141689
2.62 -0.14047
2.63 -0.14725
2.64 -0.161459
2.65 -0.18392
2.66 -0.212417
2.67 -0.246003
2.68 -0.28245
2.69 -0.319633
2.7 -0.35505
2.71 -0.386899
2.72 -0.412709
2.73 -0.431517
2.74 -0.442311
2.75 -0.444465
2.76 -0.439193
2.77 -0.426374
2.78 -0.40867
2.79 -0.3876
2.8 -0.365738
2.81 -0.345334
2.82 -0.329235
2.83 -0.318857
2.84 -0.316745
2.85 -0.323312
2.86 -0.339168
2.87 -0.364378
2.88 -0.397102
2.89 -0.436738
2.9 -0.480097
2.91 -0.524981
2.92 -0.568331
2.93 -0.60765
2.94 -0.639523
2.95 -0.662851
2.96 -0.674767
2.97 -0.675341
2.98 -0.664217
2.99 -0.641723
3 -0.610367
3.01 -0.571163
3.02 -0.527992
3.03 -0.483545
3.04 -0.441369
3.05 -0.404258
3.06 -0.376024
3.07 -0.357682
3.08 -0.352255
3.09 -0.359395
3.1 -0.379236
3.11 -0.411127
3.12 -0.45214
3.13 -0.500856
3.14 -0.553055
3.15 -0.605707
3.16 -0.655071
3.17 -0.698332
3.18 -0.731639
3.19 -0.754327
3.2 -0.763665
3.21 -0.760549
3.22 -0.745411
3.23 -0.71966
3.24 -0.686689
3.25 -0.648988
3.26 -0.610912
3.27 -0.576221
3.28 -0.548867
3.29 -0.531562
3.3 -0.528457
3.31 -0.53933
3.32 -0.566761
3.33 -0.608797
3.34 -0.664187
3.35 -0.730451
3.36 -0.803215
3.37 -0.87867
3.38 -0.951807
3.39 -1.01783
3.4 -1.07221
3.41 -1.11213
3.42 -1.13284
3.43 -1.13544
3.44 -1.11733
3.45 -1.08161
3.46 -1.03041
3.47 -0.967334
3.48 -0.897928
3.49 -0.827307
3.5 -0.761226
3.51 -0.705374
3.52 -0.664547
3.53 -0.641299
3.54 -0.639931
3.55 -0.657755
3.56 -0.695426
3.57 -0.747177
3.58 -0.807726
3.59 -0.868871
3.6 -0.922341
3.61 -0.955227
3.62 -0.959996
3.63 -0.923894
3.64 -0.837604
3.65 -0.696093
3.66 -0.486253
3.67 -0.213856
3.68 0.129961
3.69 0.536221
3.7 1.00053
3.71 1.51519
3.72 2.06421
3.73 2.6369
3.74 3.21368
3.75 3.77783
3.76 4.31043
3.77 4.79711
3.78 5.2142
3.79 5.55751
3.8 5.80501
3.81 5.95623
3.82 6.00474
3.83 5.94491
3.84 5.79037
3.85 5.53219
3.86 5.1947
3.87 4.78271
3.88 4.31346
3.89 3.80409
3.9 3.26888
3.91 2.7268
3.92 2.19345
3.93 1.68289
3.94 1.20709
3.95 0.778571
3.96 0.398912
3.97 0.081418
3.98 -0.181225
3.99 -0.385047
4 -0.534946
4.01 -0.638234
4.02 -0.697185
4.03 -0.724861
4.04 -0.725574
4.05 -0.709909
4.06 -0.684603
4.07 -0.656602
4.08 -0.631105
4.09 -0.61323
4.1 -0.604528
4.11 -0.607025
4.12 -0.6204
4.13 -0.643045
4.14 -0.673631
4.15 -0.708522
4.16 -0.745047
4.17 -0.779795
4.18 -0.809939
4.19 -0.832404
4.2 -0.84616
4.21 -0.848159
4.22 -0.839396
4.23 -0.81889
4.24 -0.787517
4.25 -0.746764
4.26 -0.697146
4.27 -0.641347
4.28 -0.580266
4.29 -0.515942
4.3 -0.449564
4.31 -0.382192
4.32 -0.314566
4.33 -0.24706
4.34 -0.179717
4.35 -0.112383
4.36 -0.0447254
4.37 0.0235519
4.38 0.0928173
4.39 0.16301
4.4 0.23404
4.41 0.305279
4.42 0.375878
4.43 0.444398
4.44 0.509628
4.45 0.568919
4.46 0.621138
4.47 0.663685
4.48 0.69471
4.49 0.71326
4.5 0.716402
4.51 0.705402
4.52 0.678093
4.53 0.636171
4.54 0.580246
4.55 0.511341
4.56 0.432603
4.57 0.3451
4.58 0.252724
4.59 0.157778
4.6 0.0633164
4.61 -0.0282996
4.62 -0.114086
4.63 -0.19301
4.64 -0.262673
4.65 -0.322935
4.66 -0.373337
4.67 -0.413666
4.68 -0.445599
4.69 -0.468973
4.7 -0.48638
4.71 -0.498828
4.72 -0.508178
4.73 -0.516013
4.74 -0.523766
4.75 -0.532546
4.76 -0.543384
4.77 -0.556638
4.78 -0.572503
4.79 -0.590921
4.8 -0.611231
4.81 -0.633003
4.82 -0.655238
4.83 -0.677144
4.84 -0.69783
4.85 -0.716689
4.86 -0.732848
4.87 -0.74631
4.88 -0.756558
4.89 -0.76393
4.9 -0.768637
4.91 -0.771049
4.92 -0.771919
4.93 -0.771706
4.94 -0.771197
4.95 -0.77094
4.96 -0.771459
4.97 -0.773044
4.98 -0.776052
4.99 -0.780337
5 -0.78596
5.01 -0.792582
5.02 -0.799931
5.03 -0.807658
5.04 -0.815419
5.05 -0.822889
5.06 -0.829905
5.07 -0.836327
5.08 -0.842172
5.09 -0.847561
5.1 -0.85263
5.11 -0.857602
5.12 -0.862624
5.13 -0.867747
5.14 -0.872871
5.15 -0.877625
5.16 -0.881507
5.17 -0.883348
5.18 -0.882228
5.19 -0.876431
5.2 -0.864181
5.21 -0.8441
5.22 -0.813047
5.23 -0.770723
5.24 -0.713904
5.25 -0.6424
5.26 -0.555204
5.27 -0.451298
5.28 -0.332853
5.29 -0.198811
5.3 -0.0533413
5.31 0.101846
5.32 0.262839
5.33 0.425677
5.34 0.585473
5.35 0.73816
5.36 0.877806
5.37 1.00069
5.38 1.10261
5.39 1.17855
5.4 1.22873
5.41 1.2467
5.42 1.23612
5.43 1.19479
5.44 1.12474
5.45 1.02959
5.46 0.910085
5.47 0.773303
5.48 0.621798
5.49 0.461896
5.5 0.298211
5.51 0.13604
5.52 -0.0206547
5.53 -0.166389
5.54 -0.299385
5.55 -0.416125
5.56 -0.515139
5.57 -0.596674
5.58 -0.658748
5.59 -0.704791
5.6 -0.734278
5.61 -0.750599
5.62 -0.755709
5.63 -0.751745
5.64 -0.741795
5.65 -0.727298
5.66 -0.71068
5.67 -0.693088
5.68 -0.675489
5.69 -0.65823
5.7 -0.641239
5.71 -0.623993
5.72 -0.605591
5.73 -0.585059
5.74 -0.561346
5.75 -0.533163
5.76 -0.500242
5.77 -0.461214
5.78 -0.416808
5.79 -0.366893
5.8 -0.312414
5.81 -0.25472
5.82 -0.195266
5.83 -0.1361
5.84 -0.0794624
5.85 -0.0274093
5.86 0.0180289
5.87 0.0544034
5.88 0.0812469
5.89 0.095651
5.9 0.0986588
5.91 0.0891687
5.92 0.0677997
5.93 0.035978
5.94 -0.00606176
5.95 -0.0553656
5.96 -0.11089
5.97 -0.170037
5.98 -0.230969
5.99 -0.291678
6 -0.350702
6.01 -0.406269
6.02 -0.457927
6.03 -0.504849
6.04 -0.546991
6.05 -0.584846
6.06 -0.618554
6.07 -0.649439
6.08 -0.678122
6.09 -0.705789
6.1 -0.733268
6.11 -0.761369
6.12 -0.790472
6.13 -0.820968
6.14 -0.852546
6.15 -0.884874
6.16 -0.917182
6.17 -0.948645
6.18 -0.977971
6.19 -1.00443
6.2 -1.02663
6.21 -1.04404
6.22 -1.05609
6.23 -1.06228
6.24 -1.06337
6.25 -1.05914
6.26 -1.05121
6.27 -1.04044
6.28 -1.02835
6.29 -1.01634
6.3 -1.00593
6.31 -0.997964
6.32 -0.99346
6.33 -0.992279
6.34 -0.993943
6.35 -0.997128
6.36 -0.999756
6.37 -0.998428
6.38 -0.990022
6.39 -0.969782
6.4 -0.932789
6.41 -0.875489
6.42 -0.789806
6.43 -0.675251
6.44 -0.523992
6.45 -0.335743
6.46 -0.108358
6.47 0.160688
6.48 0.465935
6.49 0.810228
6.5 1.18377
6.51 1.58302
6.52 1.99937
6.53 2.42385
6.54 2.84621
6.55 3.25676
6.56 3.6428
6.57 3.9952
6.58 4.30427
6.59 4.55772
6.6 4.75465
6.61 4.87908
6.62 4.93692
6.63 4.92098
6.64 4.83273
6.65 4.67846
6.66 4.45528
6.67 4.17869
6.68 3.85025
6.69 3.48373
6.7 3.08835
6.71 2.67457
6.72 2.25414
6.73 1.83773
6.74 1.43447
6.75 1.05379
6.76 0.703245
6.77 0.386381
6.78 0.112064
6.79 -0.123203
6.8 -0.313619
6.81 -0.463466
6.82 -0.574351
6.83 -0.647889
6.84 -0.691865
6.85 -0.706777
6.86 -0.701605
6.87 -0.67966
6.88 -0.64644
6.89 -0.606604
6.9 -0.563728
6.91 -0.521208
6.92 -0.481565
6.93 -0.446269
6.94 -0.416207
6.95 -0.391972
6.96 -0.372729
6.97 -0.358617
6.98 -0.348117
6.99 -0.340643
7 -0.33524
7.01 -0.331178
7.02 -0.328144
7.03 -0.325887
7.04 -0.324722
7.05 -0.32509
7.06 -0.327707
7.07 -0.33372
7.08 -0.343662
7.09 -0.359267
7.1 -0.380604
7.11 -0.408709
7.12 -0.443804
7.13 -0.48542
7.14 -0.533821
7.15 -0.587242
7.16 -0.645021
7.17 -0.705197
7.18 -0.766124
7.19 -0.825722
7.2 -0.882418
7.21 -0.933733
7.22 -0.978853
7.23 -1.01612
7.24 -1.04476
7.25 -1.06499
7.26 -1.0759
7.27 -1.07934
7.28 -1.07545
7.29 -1.06621
7.3 -1.05307
7.31 -1.03772
7.32 -1.02193
7.33 -1.00733
7.34 -0.994981
7.35 -0.985836
7.36 -0.9802
7.37 -0.977669
7.38 -0.977722
7.39 -0.978723
7.4 -0.978876
7.41 -0.975909
7.42 -0.967444
7.43 -0.950236
7.44 -0.922878
7.45 -0.881011
7.46 -0.824555
7.47 -0.7509
7.48 -0.659314
7.49 -0.550708
7.5 -0.423674
7.51 -0.282118
7.52 -0.126513
7.53 0.0390104
7.54 0.211217
7.55 0.386001
7.56 0.559187
7.57 0.725538
7.58 0.881613
7.59 1.02263
7.6 1.14476
7.61 1.24627
7.62 1.32173
7.63 1.37312
7.64 1.39647
7.65 1.39384
7.66 1.36574
7.67 1.31245
7.68 1.23867
7.69 1.14412
7.7 1.0347
7.71 0.912584
7.72 0.781784
7.73 0.646074
7.74 0.508839
7.75 0.37343
7.76 0.243201
7.77 0.120548
7.78 0.0076371
7.79 -0.0929335
7.8 -0.181235
7.81 -0.25417
7.82 -0.313216
7.83 -0.357127
7.84 -0.386258
7.85 -0.401929
7.86 -0.403321
7.87 -0.393387
7.88 -0.372011
7.89 -0.341587
7.9 -0.303602
7.91 -0.259647
7.92 -0.212115
7.93 -0.162678
7.94 -0.113634
7.95 -0.066995
7.96 -0.0248887
7.97 0.0112588
7.98 0.0387385
7.99 0.0573473
8 0.0647535
8.01 0.0609279
8.02 0.045403
8.03 0.0175116
8.04 -0.0210075
8.05 -0.0709226
8.06 -0.129472
8.07 -0.195768
8.08 -0.267699
8.09 -0.343067
8.1 -0.419858
8.11 -0.495851
8.12 -0.568879
8.13 -0.637318
8.14 -0.699798
8.15 -0.754812
8.16 -0.802631
8.17 -0.841929
8.18 -0.874144
8.19 -0.899432
8.2 -0.918991
8.21 -0.934309
8.22 -0.946403
8.23 -0.956984
8.24 -0.967055
8.25 -0.977526
8.26 -0.988774
8.27 -1.00069
8.28 -1.01254
8.29 -1.02277
8.3 -1.02957
8.31 -1.03021
8.32 -1.02145
8.33 -1.00084
8.34 -0.962839
8.35 -0.906564
8.36 -0.826426
8.37 -0.721352
8.38 -0.589358
8.39 -0.427653
8.4 -0.239424
8.41 -0.0215693
8.42 0.21975
8.43 0.48295
8.44 0.762861
8.45 1.05343
8.46 1.3487
8.47 1.64134
8.48 1.92338
8.49 2.18782
8.5 2.42784
8.51 2.63455
8.52 2.80625
8.53 2.93184
8.54 3.01372
8.55 3.04646
8.56 3.02963
8.57 2.96689
8.58 2.85469
8.59 2.70318
8.6 2.51224
8.61 2.29062
8.62 2.04414
8.63 1.77904
8.64 1.50379
8.65 1.22462
8.66 0.94873
8.67 0.682281
8.68 0.431028
8.69 0.198078
8.7 -0.0102121
8.71 -0.194973
8.72 -0.351901
8.73 -0.482693
8.74 -0.587873
8.75 -0.667611
8.76 -0.726704
8.77 -0.764867
8.78 -0.787912
8.79 -0.797873
8.8 -0.798421
8.81 -0.792995
8.82 -0.784147
8.83 -0.774785
8.84 -0.767047
8.85 -0.762556
8.86 -0.762426
8.87 -0.767709
8.88 -0.778049
8.89 -0.79412
8.9 -0.814716
8.91 -0.839479
8.92 -0.86741
8.93 -0.897414
8.94 -0.928589
8.95 -0.959825
8.96 -0.990196
8.97 -1.01894
8.98 -1.04548
8.99 -1.06916
9 -1.09004
9.01 -1.10752
9.02 -1.12206
9.03 -1.13357
9.04 -1.1423
9.05 -1.14864
9.06 -1.1526
9.07 -1.15472
9.08 -1.15496
9.09 -1.15355
9.1 -1.15047
9.11 -1.14547
9.12 -1.13855
9.13 -1.12898
9.14 -1.11665
9.15 -1.10084
9.16 -1.08094
9.17 -1.05668
9.18 -1.02687
9.19 -0.991838
9.2 -0.950579
9.21 -0.903359
9.22 -0.850199
9.23 -0.791048
9.24 -0.727048
9.25 -0.658304
9.26 -0.58648
9.27 -0.512594
9.28 -0.438268
9.29 -0.365006
9.3 -0.294927
9.31 -0.229262
9.32 -0.170313
9.33 -0.119254
9.34 -0.0773736
9.35 -0.0464454
9.36 -0.0259348
9.37 -0.0179198
9.38 -0.0207398
9.39 -0.0347169
9.4 -0.0588224
9.41 -0.0912787
9.42 -0.131389
9.43 -0.176341
9.44 -0.224681
9.45 -0.274015
9.46 -0.322458
9.47 -0.36784
9.48 -0.40899
9.49 -0.443723
9.5 -0.471892
9.51 -0.492496
9.52 -0.505455
9.53 -0.51154
9.54 -0.510647
9.55 -0.504761
9.56 -0.494631
9.57 -0.482134
9.58 -0.46875
9.59 -0.456189
9.6 -0.445691
9.61 -0.438996
9.62 -0.436611
9.63 -0.439489
9.64 -0.44796
9.65 -0.461652
9.66 -0.480881
9.67 -0.504293
9.68 -0.53156
9.69 -0.561417
9.7 -0.592932
9.71 -0.625117
9.72 -0.657106
9.73 -0.688083
9.74 -0.717672
9.75 -0.745499
9.76 -0.771477
9.77 -0.795788
9.78 -0.818392
9.79 -0.839687
9.8 -0.859581
9.81 -0.878026
9.82 -0.894606
9.83 -0.90825
9.84 -0.918083
9.85 -0.921434
9.86 -0.916737
9.87 -0.900645
9.88 -0.869643
9.89 -0.821482
9.9 -0.749598
9.91 -0.653818
9.92 -0.527728
9.93 -0.370397
9.94 -0.179841
9.95 0.0473441
9.96 0.307109
9.97 0.603285
9.98 0.928643
9.99 1.28139
10 1.65565
10.01 2.04412
10.02 2.44006
10.03 2.83438
10.04 3.21771
10.05 3.58122
10.06 3.91658
10.07 4.2125
10.08 4.46647
10.09 4.66462
10.1 4.80899
10.11 4.89256
10.12 4.91383
10.13 4.87709
10.14 4.77679
10.15 4.62541
10.16 4.4221
10.17 4.17727
10.18 3.89802
10.19 3.59142
10.2 3.26839
10.21 2.93589
10.22 2.60337
10.23 2.27814
10.24 1.96737
10.25 1.6751
10.26 1.40871
10.27 1.16735
10.28 0.955694
10.29 0.772029
10.3 0.615499
10.31 0.485724
10.32 0.377249
10.33 0.289819
10.34 0.217153
10.35 0.156679
10.36 0.104414
10.37 0.0567876
10.38 0.011081
10.39 -0.0352591
10.4 -0.0841443
10.41 -0.136638
10.42 -0.193274
10.43 -0.254361
10.44 -0.319012
10.45 -0.386908
10.46 -0.456583
10.47 -0.527004
10.48 -0.596819
10.49 -0.664994
10.5 -0.730071
10.51 -0.79162
10.52 -0.848489
10.53 -0.900462
10.54 -0.947261
10.55 -0.988384
10.56 -1.02445
10.57 -1.05472
10.58 -1.08001
10.59 -1.10005
10.6 -1.11491
10.61 -1.12491
10.62 -1.12932
10.63 -1.12878
10.64 -1.12255
10.65 -1.11082
10.66 -1.09353
10.67 -1.07028
10.68 -1.04186
10.69 -1.00776
10.7 -0.969195
10.71 -0.926526
10.72 -0.880751
10.73 -0.833074
10.74 -0.784679
10.75 -0.736988
10.76 -0.691562
10.77 -0.649749
10.78 -0.612797
10.79 -0.582377
10.8 -0.558663
10.81 -0.54354
10.82 -0.536384
10.83 -0.537855
10.84 -0.547732
10.85 -0.565003
10.86 -0.589813
10.87 -0.620144
10.88 -0.655475
10.89 -0.69414
10.9 -0.734905
10.91 -0.776465
10.92 -0.817629
10.93 -0.857153
10.94 -0.894352
10.95 -0.928421
10.96 -0.958865
10.97 -0.985714
10.98 -1.00843
10.99 -1.02773
11 -1.0435
11.01 -1.0564
11.02 -1.06688
11.03 -1.07534
11.04 -1.08247
11.05 -1.08858
11.06 -1.09423
11.07 -1.09972
11.08 -1.10535
11.09 -1.11127
11.1 -1.11766
11.11 -1.12448
11.12 -1.13172
11.13 -1.13924
11.14 -1.14684
11.15 -1.15418
11.16 -1.16095
11.17 -1.16647
11.18 -1.17024
11.19 -1.17136
11.2 -1.16875
11.21 -1.16163
11.22 -1.14783
11.23 -1.12683
11.24 -1.09607
11.25 -1.05432
11.26 -0.999984
11.27 -0.930246
11.28 -0.845393
11.29 -0.741527
11.3 -0.619959
11.31 -0.478966
11.32 -0.318515
11.33 -0.140477
11.34 0.0561432
11.35 0.266791
11.36 0.490357
11.37 0.722393
11.38 0.959076
11.39 1.19554
11.4 1.42725
11.41 1.64765
11.42 1.85279
11.43 2.03676
11.44 2.19435
11.45 2.3236
11.46 2.41654
11.47 2.47582
11.48 2.49579
11.49 2.47843
11.5 2.42452
11.51 2.33355
11.52 2.21229
11.53 2.0601
11.54 1.88533
11.55 1.6914
11.56 1.48424
11.57 1.26981
11.58 1.05342
11.59 0.840358
11.6 0.635821
11.61 0.44352
11.62 0.266396
11.63 0.108123
11.64 -0.0321585
11.65 -0.151099
11.66 -0.251723
11.67 -0.334
11.68 -0.399933
11.69 -0.45279
11.7 -0.493809
11.71 -0.527399
11.72 -0.555545
11.73 -0.581353
11.74 -0.606964
11.75 -0.634428
11.76 -0.664716
11.77 -0.699031
11.78 -0.73695
11.79 -0.778185
11.8 -0.821563
11.81 -0.86554
11.82 -0.907998
11.83 -0.947058
11.84 -0.979956
11.85 -1.00465
11.86 -1.01916
11.87 -1.02058
11.88 -1.00894
11.89 -0.980856
11.9 -0.937576
11.91 -0.877904
11.92 -0.802105
11.93 -0.712011
11.94 -0.607003
11.95 -0.490798
11.96 -0.364116
11.97 -0.230053
11.98 -0.0910134
11.99 0.0503331
12 0.191209
12.01 0.328512
12.02 0.460003
12.03 0.582913
12.04 0.694732
12.05 0.794432
12.06 0.878315
12.07 0.947314
12.08 0.998627
12.09 1.03271
12.1 1.04948
12.11 1.04793
12.12 1.0307
12.13 0.996398
12.14 0.948386
12.15 0.88733
12.16 0.815205
12.17 0.73463
12.18 0.646871
12.19 0.555077
12.2 0.461005
12.21 0.367011
12.22 0.274898
12.23 0.186728
12.24 0.103358
12.25 0.0267515
12.26 -0.0431671
12.27 -0.105637
12.28 -0.160654
12.29 -0.209081
12.3 -0.250747
12.31 -0.287514
12.32 -0.319937
12.33 -0.349573
12.34 -0.377597
12.35 -0.405215
12.36 -0.433412
12.37 -0.463151
12.38 -0.494741
12.39 -0.528439
12.4 -0.564004
12.41 -0.600766
