# xPDFsuite Configuration #
[PDF]
wavelength = 0.1432
dataformat = twotheta
inputfile = 1_1Pd_CeO2_cycle-00467.chi
backgroundfile = background-00000.chi
mode = xray
bgscale = 1.007
composition = CeO2
outputtype = gr
qmaxinst = 28.8974762299
qmin = 0.5
qmax = 27.9
rmax = 50.0
rmin = 0.0
rstep = 0.01
rpoly = 1.8657

[Misc]
inputdir = G:/SankarDec16/1Pd/Chi
savedir = D:/DATA/APS_CeO2/1Pd
backgroundfilefull = G:/SankarDec16/Background/background-00000.chi

#### start data
#S 1
#L r($\AA$)  G($\AA^{-2}$)
0 0
0.01 -0.00462982
0.02 -0.00891096
0.03 -0.0124843
0.04 -0.0150795
0.05 -0.016546
0.06 -0.0166418
0.07 -0.0155279
0.08 -0.0131264
0.09 -0.00974473
0.1 -0.00559549
0.11 -0.00100425
0.12 0.00367373
0.13 0.0080401
0.14 0.0118123
0.15 0.0146446
0.16 0.0163344
0.17 0.0168005
0.18 0.0158778
0.19 0.0138028
0.2 0.0105846
0.21 0.00658149
0.22 0.00205811
0.23 -0.00262001
0.24 -0.00711837
0.25 -0.0110078
0.26 -0.0140852
0.27 -0.0160347
0.28 -0.0167311
0.29 -0.0161666
0.3 -0.014261
0.31 -0.0113152
0.32 -0.00742498
0.33 -0.00298276
0.34 0.00170731
0.35 0.00625679
0.36 0.0103679
0.37 0.013601
0.38 0.0158421
0.39 0.0168205
0.4 0.0164941
0.41 0.0149296
0.42 0.0121352
0.43 0.00846281
0.44 0.0040899
0.45 -0.00057493
0.46 -0.00520268
0.47 -0.00940009
0.48 -0.0129205
0.49 -0.0153348
0.5 -0.0166236
0.51 -0.0165743
0.52 -0.0152308
0.53 -0.0127307
0.54 -0.0091714
0.55 -0.00493855
0.56 -0.000283734
0.57 0.00438769
0.58 0.00873752
0.59 0.0123861
0.6 0.0151501
0.61 0.0166312
0.62 0.016906
0.63 0.0158306
0.64 0.013533
0.65 0.0102156
0.66 0.00606081
0.67 0.00147007
0.68 -0.00324267
0.69 -0.00769421
0.7 -0.0115532
0.71 -0.0144713
0.72 -0.0163372
0.73 -0.0168019
0.74 -0.0160346
0.75 -0.0139663
0.76 -0.0108024
0.77 -0.00680059
0.78 -0.00221807
0.79 0.00254709
0.8 0.00713538
0.81 0.0112041
0.82 0.0144459
0.83 0.016561
0.84 0.0175151
0.85 0.0170265
0.86 0.0153463
0.87 0.0124824
0.88 0.00870522
0.89 0.00431057
0.9 -0.000387588
0.91 -0.00501951
0.92 -0.00920832
0.93 -0.0126761
0.94 -0.0151658
0.95 -0.0164555
0.96 -0.0165951
0.97 -0.0154098
0.98 -0.013219
0.99 -0.0101277
1 -0.00646427
1.01 -0.0025502
1.02 0.00124363
1.03 0.00461231
1.04 0.00717195
1.05 0.00874802
1.06 0.00916278
1.07 0.00831112
1.08 0.0063613
1.09 0.00330046
1.1 -0.000453888
1.11 -0.00464204
1.12 -0.00883082
1.13 -0.0126365
1.14 -0.0155446
1.15 -0.0173124
1.16 -0.0174456
1.17 -0.0158651
1.18 -0.0124171
1.19 -0.00705225
1.2 -8.91058e-05
1.21 0.00844046
1.22 0.0179237
1.23 0.0279901
1.24 0.0380456
1.25 0.0475717
1.26 0.0558693
1.27 0.0626012
1.28 0.0670636
1.29 0.0690942
1.3 0.0683973
1.31 0.0647568
1.32 0.0584937
1.33 0.049345
1.34 0.0380343
1.35 0.0247424
1.36 0.0100528
1.37 -0.00548224
1.38 -0.0213006
1.39 -0.0368302
1.4 -0.0514556
1.41 -0.0647564
1.42 -0.0763042
1.43 -0.0856719
1.44 -0.0928674
1.45 -0.0973521
1.46 -0.0994846
1.47 -0.0990657
1.48 -0.0962849
1.49 -0.091384
1.5 -0.0843699
1.51 -0.0757327
1.52 -0.0655128
1.53 -0.0541189
1.54 -0.0417604
1.55 -0.0286838
1.56 -0.0151851
1.57 -0.0014786
1.58 0.012156
1.59 0.0254584
1.6 0.0381517
1.61 0.050008
1.62 0.060614
1.63 0.0698601
1.64 0.0772574
1.65 0.0826972
1.66 0.0859006
1.67 0.0865701
1.68 0.0848388
1.69 0.0802197
1.7 0.0731682
1.71 0.0635618
1.72 0.0517076
1.73 0.037979
1.74 0.0226245
1.75 0.00629053
1.76 -0.0106124
1.77 -0.0274776
1.78 -0.0438014
1.79 -0.0590111
1.8 -0.0728281
1.81 -0.0846098
1.82 -0.0944225
1.83 -0.101958
1.84 -0.107292
1.85 -0.110636
1.86 -0.112055
1.87 -0.112119
1.88 -0.111072
1.89 -0.109473
1.9 -0.107727
1.91 -0.106282
1.92 -0.105416
1.93 -0.105516
1.94 -0.106567
1.95 -0.108661
1.96 -0.111627
1.97 -0.115191
1.98 -0.118997
1.99 -0.122581
2 -0.125363
2.01 -0.126854
2.02 -0.126525
2.03 -0.123773
2.04 -0.118483
2.05 -0.109876
2.06 -0.0982686
2.07 -0.0833241
2.08 -0.0652193
2.09 -0.0442584
2.1 -0.0204523
2.11 0.00550517
2.12 0.0335072
2.13 0.0629789
2.14 0.0936301
2.15 0.125183
2.16 0.157355
2.17 0.190102
2.18 0.223298
2.19 0.257015
2.2 0.291322
2.21 0.326281
2.22 0.362049
2.23 0.398535
2.24 0.435745
2.25 0.47338
2.26 0.511082
2.27 0.548218
2.28 0.584172
2.29 0.617673
2.3 0.648021
2.31 0.673761
2.32 0.693718
2.33 0.707058
2.34 0.711826
2.35 0.708285
2.36 0.694606
2.37 0.671337
2.38 0.638253
2.39 0.595411
2.4 0.544503
2.41 0.485469
2.42 0.420984
2.43 0.352256
2.44 0.281503
2.45 0.210677
2.46 0.142089
2.47 0.0772496
2.48 0.0184609
2.49 -0.0333902
2.5 -0.0772029
2.51 -0.112051
2.52 -0.138763
2.53 -0.156368
2.54 -0.167
2.55 -0.171148
2.56 -0.170557
2.57 -0.166936
2.58 -0.16192
2.59 -0.15728
2.6 -0.154695
2.61 -0.155319
2.62 -0.160131
2.63 -0.169934
2.64 -0.184364
2.65 -0.203919
2.66 -0.227204
2.67 -0.253615
2.68 -0.281753
2.69 -0.310292
2.7 -0.337669
2.71 -0.362775
2.72 -0.38407
2.73 -0.400969
2.74 -0.412844
2.75 -0.419306
2.76 -0.421105
2.77 -0.41814
2.78 -0.412049
2.79 -0.40373
2.8 -0.394735
2.81 -0.386418
2.82 -0.380454
2.83 -0.377706
2.84 -0.379646
2.85 -0.386515
2.86 -0.398644
2.87 -0.416026
2.88 -0.437569
2.89 -0.462834
2.9 -0.489961
2.91 -0.517605
2.92 -0.543965
2.93 -0.567596
2.94 -0.586477
2.95 -0.600054
2.96 -0.606671
2.97 -0.606472
2.98 -0.599334
2.99 -0.585556
3 -0.566699
3.01 -0.543488
3.02 -0.518247
3.03 -0.492648
3.04 -0.468806
3.05 -0.448354
3.06 -0.433555
3.07 -0.424903
3.08 -0.42414
3.09 -0.430935
3.1 -0.445267
3.11 -0.466628
3.12 -0.493204
3.13 -0.524027
3.14 -0.556591
3.15 -0.589053
3.16 -0.61923
3.17 -0.645533
3.18 -0.665778
3.19 -0.679734
3.2 -0.685982
3.21 -0.685252
3.22 -0.678014
3.23 -0.665368
3.24 -0.649408
3.25 -0.631953
3.26 -0.615496
3.27 -0.602418
3.28 -0.59499
3.29 -0.594656
3.3 -0.603786
3.31 -0.621857
3.32 -0.650141
3.33 -0.687053
3.34 -0.731474
3.35 -0.781467
3.36 -0.834186
3.37 -0.886803
3.38 -0.936342
3.39 -0.979646
3.4 -1.01404
3.41 -1.038
3.42 -1.04874
3.43 -1.04746
3.44 -1.03287
3.45 -1.00741
3.46 -0.972847
3.47 -0.931906
3.48 -0.888236
3.49 -0.845492
3.5 -0.807085
3.51 -0.776591
3.52 -0.756619
3.53 -0.748218
3.54 -0.753269
3.55 -0.769192
3.56 -0.794997
3.57 -0.8259
3.58 -0.857144
3.59 -0.881683
3.6 -0.893706
3.61 -0.882163
3.62 -0.842586
3.63 -0.764971
3.64 -0.642923
3.65 -0.473491
3.66 -0.246978
3.67 0.0307331
3.68 0.365867
3.69 0.750299
3.7 1.17976
3.71 1.6473
3.72 2.13985
3.73 2.64798
3.74 3.15616
3.75 3.65049
3.76 4.11572
3.77 4.54039
3.78 4.90495
3.79 5.20645
3.8 5.42649
3.81 5.56482
3.82 5.61591
3.83 5.57467
3.84 5.45222
3.85 5.24013
3.86 4.95851
3.87 4.61041
3.88 4.20966
3.89 3.77028
3.9 3.30319
3.91 2.82482
3.92 2.3475
3.93 1.88375
3.94 1.44395
3.95 1.03915
3.96 0.671971
3.97 0.354261
3.98 0.0814731
3.99 -0.141909
4 -0.318618
4.01 -0.453754
4.02 -0.547703
4.03 -0.611096
4.04 -0.646258
4.05 -0.662093
4.06 -0.663987
4.07 -0.657604
4.08 -0.648221
4.09 -0.639874
4.1 -0.635318
4.11 -0.636689
4.12 -0.644722
4.13 -0.658967
4.14 -0.67905
4.15 -0.702694
4.16 -0.728247
4.17 -0.753219
4.18 -0.775472
4.19 -0.792537
4.2 -0.803326
4.21 -0.805178
4.22 -0.798452
4.23 -0.781964
4.24 -0.755978
4.25 -0.721379
4.26 -0.678106
4.27 -0.628314
4.28 -0.57241
4.29 -0.512206
4.3 -0.448751
4.31 -0.383094
4.32 -0.31627
4.33 -0.248866
4.34 -0.181436
4.35 -0.114262
4.36 -0.0475047
4.37 0.0187914
4.38 0.0845047
4.39 0.149605
4.4 0.213766
4.41 0.27665
4.42 0.337669
4.43 0.395834
4.44 0.450533
4.45 0.499835
4.46 0.543217
4.47 0.578842
4.48 0.605468
4.49 0.622466
4.5 0.627611
4.51 0.621834
4.52 0.603336
4.53 0.573239
4.54 0.53178
4.55 0.479412
4.56 0.418391
4.57 0.349038
4.58 0.274328
4.59 0.195701
4.6 0.115418
4.61 0.0353623
4.62 -0.0423384
4.63 -0.116467
4.64 -0.18516
4.65 -0.247847
4.66 -0.30385
4.67 -0.352591
4.68 -0.39493
4.69 -0.430268
4.7 -0.460272
4.71 -0.485316
4.72 -0.50655
4.73 -0.525077
4.74 -0.541672
4.75 -0.557398
4.76 -0.572863
4.77 -0.588601
4.78 -0.604884
4.79 -0.621818
4.8 -0.63923
4.81 -0.656884
4.82 -0.674351
4.83 -0.691164
4.84 -0.706822
4.85 -0.720985
4.86 -0.733068
4.87 -0.74312
4.88 -0.750768
4.89 -0.756257
4.9 -0.759734
4.91 -0.761459
4.92 -0.761993
4.93 -0.761687
4.94 -0.761168
4.95 -0.760903
4.96 -0.761368
4.97 -0.762858
4.98 -0.76579
4.99 -0.770105
5 -0.776005
5.01 -0.783263
5.02 -0.791723
5.03 -0.801149
5.04 -0.811165
5.05 -0.8215
5.06 -0.831796
5.07 -0.84177
5.08 -0.85116
5.09 -0.859809
5.1 -0.867431
5.11 -0.874013
5.12 -0.879244
5.13 -0.88301
5.14 -0.885018
5.15 -0.884736
5.16 -0.881922
5.17 -0.875362
5.18 -0.864723
5.19 -0.848665
5.2 -0.82607
5.21 -0.796177
5.22 -0.756729
5.23 -0.70791
5.24 -0.647439
5.25 -0.575476
5.26 -0.491449
5.27 -0.394771
5.28 -0.287202
5.29 -0.168064
5.3 -0.0405306
5.31 0.0940571
5.32 0.232734
5.33 0.372512
5.34 0.509631
5.35 0.641015
5.36 0.762034
5.37 0.86976
5.38 0.960831
5.39 1.03113
5.4 1.08066
5.41 1.10395
5.42 1.10367
5.43 1.07764
5.44 1.02705
5.45 0.954505
5.46 0.859952
5.47 0.74909
5.48 0.623381
5.49 0.487994
5.5 0.346564
5.51 0.203315
5.52 0.0619633
5.53 -0.0730931
5.54 -0.199601
5.55 -0.314324
5.56 -0.415378
5.57 -0.502327
5.58 -0.572821
5.59 -0.629138
5.6 -0.670112
5.61 -0.698162
5.62 -0.714519
5.63 -0.720553
5.64 -0.719022
5.65 -0.710722
5.66 -0.698253
5.67 -0.682645
5.68 -0.665161
5.69 -0.646598
5.7 -0.627292
5.71 -0.6074
5.72 -0.586601
5.73 -0.564489
5.74 -0.540486
5.75 -0.513783
5.76 -0.484132
5.77 -0.450534
5.78 -0.413313
5.79 -0.372218
5.8 -0.327719
5.81 -0.280626
5.82 -0.231779
5.83 -0.182629
5.84 -0.134695
5.85 -0.0895637
5.86 -0.0488202
5.87 -0.0144532
5.88 0.0129249
5.89 0.0308103
5.9 0.0396528
5.91 0.0382134
5.92 0.0265614
5.93 0.00551509
5.94 -0.0252812
5.95 -0.0635456
5.96 -0.108898
5.97 -0.159229
5.98 -0.213117
5.99 -0.268963
6 -0.325193
6.01 -0.380342
6.02 -0.433445
6.03 -0.483514
6.04 -0.530011
6.05 -0.572905
6.06 -0.611803
6.07 -0.647509
6.08 -0.680101
6.09 -0.710439
6.1 -0.739089
6.11 -0.76665
6.12 -0.793712
6.13 -0.820621
6.14 -0.847593
6.15 -0.874628
6.16 -0.901505
6.17 -0.92789
6.18 -0.95313
6.19 -0.976805
6.2 -0.998053
6.21 -1.01645
6.22 -1.03151
6.23 -1.04269
6.24 -1.05029
6.25 -1.0538
6.26 -1.05407
6.27 -1.05129
6.28 -1.04615
6.29 -1.03937
6.3 -1.03146
6.31 -1.023
6.32 -1.01417
6.33 -1.00485
6.34 -0.994513
6.35 -0.981909
6.36 -0.965834
6.37 -0.94328
6.38 -0.912473
6.39 -0.869718
6.4 -0.81152
6.41 -0.735499
6.42 -0.635434
6.43 -0.511454
6.44 -0.357504
6.45 -0.17367
6.46 0.041593
6.47 0.29017
6.48 0.567636
6.49 0.876235
6.5 1.20816
6.51 1.56061
6.52 1.92672
6.53 2.29932
6.54 2.67017
6.55 3.03144
6.56 3.37274
6.57 3.68655
6.58 3.96477
6.59 4.19706
6.6 4.38241
6.61 4.5071
6.62 4.57565
6.63 4.58147
6.64 4.52515
6.65 4.41147
6.66 4.23699
6.67 4.0145
6.68 3.74426
6.69 3.43765
6.7 3.10194
6.71 2.74538
6.72 2.37827
6.73 2.00882
6.74 1.64564
6.75 1.29663
6.76 0.968746
6.77 0.665771
6.78 0.395592
6.79 0.156464
6.8 -0.0460471
6.81 -0.214509
6.82 -0.349436
6.83 -0.451192
6.84 -0.525809
6.85 -0.572563
6.86 -0.598913
6.87 -0.606958
6.88 -0.601091
6.89 -0.585375
6.9 -0.562332
6.91 -0.535645
6.92 -0.507258
6.93 -0.479175
6.94 -0.452601
6.95 -0.428538
6.96 -0.407107
6.97 -0.388886
6.98 -0.373359
6.99 -0.36056
7 -0.350227
7.01 -0.342084
7.02 -0.336356
7.03 -0.332819
7.04 -0.332028
7.05 -0.334195
7.06 -0.339826
7.07 -0.349736
7.08 -0.363969
7.09 -0.38378
7.1 -0.408761
7.11 -0.439464
7.12 -0.475708
7.13 -0.516846
7.14 -0.562752
7.15 -0.61191
7.16 -0.66355
7.17 -0.716111
7.18 -0.768276
7.19 -0.818414
7.2 -0.865499
7.21 -0.90764
7.22 -0.944499
7.23 -0.974956
7.24 -0.998668
7.25 -1.01598
7.26 -1.02642
7.27 -1.03152
7.28 -1.03151
7.29 -1.0279
7.3 -1.02177
7.31 -1.01431
7.32 -1.00665
7.33 -0.999802
7.34 -0.994268
7.35 -0.990422
7.36 -0.988115
7.37 -0.986781
7.38 -0.98546
7.39 -0.982891
7.4 -0.977213
7.41 -0.96671
7.42 -0.949485
7.43 -0.922948
7.44 -0.886419
7.45 -0.836437
7.46 -0.773549
7.47 -0.695967
7.48 -0.603589
7.49 -0.497564
7.5 -0.377232
7.51 -0.246011
7.52 -0.104686
7.53 0.0432857
7.54 0.195175
7.55 0.347562
7.56 0.49731
7.57 0.640133
7.58 0.773654
7.59 0.894178
7.6 0.998927
7.61 1.08678
7.62 1.15361
7.63 1.2012
7.64 1.22651
7.65 1.23122
7.66 1.21573
7.67 1.18014
7.68 1.12804
7.69 1.05888
7.7 0.977116
7.71 0.884096
7.72 0.782655
7.73 0.675579
7.74 0.565003
7.75 0.453684
7.76 0.343858
7.77 0.237567
7.78 0.136568
7.79 0.0429705
7.8 -0.0427736
7.81 -0.118097
7.82 -0.183487
7.83 -0.237539
7.84 -0.279934
7.85 -0.311212
7.86 -0.330047
7.87 -0.338465
7.88 -0.335755
7.89 -0.323618
7.9 -0.303008
7.91 -0.274922
7.92 -0.241565
7.93 -0.204008
7.94 -0.164663
7.95 -0.125279
7.96 -0.0879961
7.97 -0.0544396
7.98 -0.0271726
7.99 -0.00688891
8 0.00409994
8.01 0.00537455
8.02 -0.00376382
8.03 -0.0242104
8.04 -0.0545904
8.05 -0.0958662
8.06 -0.145611
8.07 -0.203174
8.08 -0.26671
8.09 -0.334206
8.1 -0.403947
8.11 -0.473763
8.12 -0.54174
8.13 -0.606266
8.14 -0.666018
8.15 -0.719547
8.16 -0.766923
8.17 -0.806851
8.18 -0.840445
8.19 -0.867693
8.2 -0.889496
8.21 -0.907057
8.22 -0.921045
8.23 -0.932941
8.24 -0.9434
8.25 -0.953182
8.26 -0.962526
8.27 -0.9712
8.28 -0.978657
8.29 -0.983339
8.3 -0.983877
8.31 -0.977833
8.32 -0.962498
8.33 -0.9359
8.34 -0.893258
8.35 -0.834077
8.36 -0.753596
8.37 -0.651107
8.38 -0.525047
8.39 -0.373157
8.4 -0.198335
8.41 0.00197411
8.42 0.222381
8.43 0.46146
8.44 0.714737
8.45 0.977019
8.46 1.2432
8.47 1.50704
8.48 1.76176
8.49 2.00139
8.5 2.22016
8.51 2.41046
8.52 2.57083
8.53 2.69173
8.54 2.77512
8.55 2.81622
8.56 2.81447
8.57 2.7728
8.58 2.68781
8.59 2.56802
8.6 2.41284
8.61 2.22953
8.62 2.02275
8.63 1.79739
8.64 1.56073
8.65 1.31746
8.66 1.07401
8.67 0.835387
8.68 0.606567
8.69 0.390509
8.7 0.192506
8.71 0.0122867
8.72 -0.146384
8.73 -0.284347
8.74 -0.401611
8.75 -0.497823
8.76 -0.576531
8.77 -0.636935
8.78 -0.683562
8.79 -0.717645
8.8 -0.741896
8.81 -0.759059
8.82 -0.77075
8.83 -0.779632
8.84 -0.787122
8.85 -0.794779
8.86 -0.803587
8.87 -0.814422
8.88 -0.827423
8.89 -0.843065
8.9 -0.860869
8.91 -0.880678
8.92 -0.90197
8.93 -0.924156
8.94 -0.946685
8.95 -0.968965
8.96 -0.990427
8.97 -1.01067
8.98 -1.02937
8.99 -1.04617
9 -1.06118
9.01 -1.07408
9.02 -1.0852
9.03 -1.09455
9.04 -1.1023
9.05 -1.10872
9.06 -1.1138
9.07 -1.11782
9.08 -1.12069
9.09 -1.12244
9.1 -1.1229
9.11 -1.12173
9.12 -1.11875
9.13 -1.11318
9.14 -1.1048
9.15 -1.09285
9.16 -1.07669
9.17 -1.05605
9.18 -1.02973
9.19 -0.998094
9.2 -0.960178
9.21 -0.916287
9.22 -0.866477
9.23 -0.810726
9.24 -0.750188
9.25 -0.684971
9.26 -0.616705
9.27 -0.54636
9.28 -0.475478
9.29 -0.405482
9.3 -0.338334
9.31 -0.275191
9.32 -0.218165
9.33 -0.168338
9.34 -0.126885
9.35 -0.0954283
9.36 -0.0734792
9.37 -0.0629413
9.38 -0.0623118
9.39 -0.0719089
9.4 -0.0908304
9.41 -0.117489
9.42 -0.151328
9.43 -0.18981
9.44 -0.231706
9.45 -0.274875
9.46 -0.31765
9.47 -0.358131
9.48 -0.395221
9.49 -0.427015
9.5 -0.453297
9.51 -0.473157
9.52 -0.486457
9.53 -0.493809
9.54 -0.49506
9.55 -0.491888
9.56 -0.484892
9.57 -0.475679
9.58 -0.465524
9.59 -0.455906
9.6 -0.447945
9.61 -0.443178
9.62 -0.44212
9.63 -0.445667
9.64 -0.454193
9.65 -0.46744
9.66 -0.485794
9.67 -0.508092
9.68 -0.534122
9.69 -0.562762
9.7 -0.593169
9.71 -0.624419
9.72 -0.65562
9.73 -0.685898
9.74 -0.71473
9.75 -0.74155
9.76 -0.766012
9.77 -0.788093
9.78 -0.80735
9.79 -0.824106
9.8 -0.837928
9.81 -0.848764
9.82 -0.856201
9.83 -0.859223
9.84 -0.857369
9.85 -0.848274
9.86 -0.831037
9.87 -0.802973
9.88 -0.761426
9.89 -0.704818
9.9 -0.627868
9.91 -0.530726
9.92 -0.408205
9.93 -0.259671
9.94 -0.0835285
9.95 0.123072
9.96 0.356848
9.97 0.621181
9.98 0.910253
9.99 1.22287
10 1.55446
10.01 1.89917
10.02 2.25184
10.03 2.60491
10.04 2.95091
10.05 3.2824
10.06 3.59234
10.07 3.87122
10.08 4.11639
10.09 4.3159
10.1 4.4707
10.11 4.5742
10.12 4.62422
10.13 4.62361
10.14 4.56639
10.15 4.4626
10.16 4.31021
10.17 4.11751
10.18 3.88992
10.19 3.63253
10.2 3.35509
10.21 3.06246
10.22 2.76375
10.23 2.46509
10.24 2.17328
10.25 1.89279
10.26 1.63035
10.27 1.38677
10.28 1.16682
10.29 0.970281
10.3 0.79737
10.31 0.648836
10.32 0.520572
10.33 0.413391
10.34 0.321973
10.35 0.244566
10.36 0.177791
10.37 0.118226
10.38 0.0636301
10.39 0.0109281
10.4 -0.0417697
10.41 -0.0961368
10.42 -0.153187
10.43 -0.213761
10.44 -0.277577
10.45 -0.344825
10.46 -0.414431
10.47 -0.485682
10.48 -0.557398
10.49 -0.628491
10.5 -0.697515
10.51 -0.763674
10.52 -0.825571
10.53 -0.882572
10.54 -0.934037
10.55 -0.97903
10.56 -1.01797
10.57 -1.04973
10.58 -1.07517
10.59 -1.09396
10.6 -1.10631
10.61 -1.11289
10.62 -1.11321
10.63 -1.10846
10.64 -1.09833
10.65 -1.08354
10.66 -1.0644
10.67 -1.04103
10.68 -1.01426
10.69 -0.984037
10.7 -0.951267
10.71 -0.916306
10.72 -0.879822
10.73 -0.842524
10.74 -0.805146
10.75 -0.768447
10.76 -0.733343
10.77 -0.700584
10.78 -0.670901
10.79 -0.645327
10.8 -0.623998
10.81 -0.608199
10.82 -0.597661
10.83 -0.592999
10.84 -0.594322
10.85 -0.601175
10.86 -0.614079
10.87 -0.63183
10.88 -0.654504
10.89 -0.681136
10.9 -0.711065
10.91 -0.743656
10.92 -0.77789
10.93 -0.813151
10.94 -0.848544
10.95 -0.883393
10.96 -0.916999
10.97 -0.948944
10.98 -0.978467
10.99 -1.00556
11 -1.02968
11.01 -1.05086
11.02 -1.06905
11.03 -1.08412
11.04 -1.09654
11.05 -1.10612
11.06 -1.1135
11.07 -1.11884
11.08 -1.12254
11.09 -1.12506
11.1 -1.12667
11.11 -1.12784
11.12 -1.12883
11.13 -1.12989
11.14 -1.13114
11.15 -1.13258
11.16 -1.13403
11.17 -1.1351
11.18 -1.13526
11.19 -1.13369
11.2 -1.12927
11.21 -1.12109
11.22 -1.10698
11.23 -1.08624
11.24 -1.05631
11.25 -1.0159
11.26 -0.963423
11.27 -0.896214
11.28 -0.814611
11.29 -0.715042
11.3 -0.598924
11.31 -0.464845
11.32 -0.313024
11.33 -0.14539
11.34 0.0386613
11.35 0.234853
11.36 0.441941
11.37 0.655841
11.38 0.873079
11.39 1.08927
11.4 1.30056
11.41 1.50118
11.42 1.68796
11.43 1.85587
11.44 2.00066
11.45 2.12085
11.46 2.2098
11.47 2.26998
11.48 2.29667
11.49 2.29165
11.5 2.25558
11.51 2.18792
11.52 2.0943
11.53 1.97386
11.54 1.83344
11.55 1.67552
11.56 1.50467
11.57 1.3257
11.58 1.14235
11.59 0.959112
11.6 0.779763
11.61 0.607425
11.62 0.444507
11.63 0.293905
11.64 0.155446
11.65 0.0317984
11.66 -0.0787812
11.67 -0.175915
11.68 -0.26062
11.69 -0.334939
11.7 -0.399177
11.71 -0.456362
11.72 -0.507346
11.73 -0.554163
11.74 -0.598101
11.75 -0.640179
11.76 -0.681298
11.77 -0.72173
11.78 -0.761561
11.79 -0.8004
11.8 -0.837493
11.81 -0.872094
11.82 -0.902491
11.83 -0.928006
11.84 -0.946633
11.85 -0.957358
11.86 -0.959041
11.87 -0.949797
11.88 -0.930051
11.89 -0.897456
11.9 -0.853234
11.91 -0.796622
11.92 -0.727923
11.93 -0.648541
11.94 -0.557999
11.95 -0.459014
11.96 -0.352017
11.97 -0.239208
11.98 -0.122265
11.99 -0.00301928
12 0.116478
12.01 0.234078
12.02 0.348035
12.03 0.45629
12.04 0.556871
12.05 0.648829
12.06 0.729219
12.07 0.798447
12.08 0.854095
12.09 0.896156
12.1 0.924233
12.11 0.937081
12.12 0.936506
12.13 0.920822
12.14 0.892524
12.15 0.851721
12.16 0.799681
12.17 0.738472
12.18 0.668596
12.19 0.592924
12.2 0.512568
12.21 0.429687
12.22 0.345899
12.23 0.262953
12.24 0.182073
12.25 0.104937
12.26 0.0320679
12.27 -0.0356082
12.28 -0.0976475
12.29 -0.15436
12.3 -0.205173
12.31 -0.251318
12.32 -0.29285
12.33 -0.330823
12.34 -0.366014
12.35 -0.399136
12.36 -0.431109
12.37 -0.462438
12.38 -0.493633
