# xPDFsuite Configuration #
[PDF]
wavelength = 0.1432
dataformat = twotheta
inputfile = 1_1Pd_CeO2_cycle-00122.chi
backgroundfile = background-00000.chi
mode = xray
bgscale = 1.007
composition = CeO2
outputtype = gr
qmaxinst = 28.8974762299
qmin = 0.5
qmax = 27.9
rmax = 50.0
rmin = 0.0
rstep = 0.01
rpoly = 1.8657

[Misc]
inputdir = G:/SankarDec16/1Pd/Chi
savedir = D:/DATA/APS_CeO2/1Pd
backgroundfilefull = G:/SankarDec16/Background/background-00000.chi

#### start data
#S 1
#L r($\AA$)  G($\AA^{-2}$)
0 0
0.01 -0.00554537
0.02 -0.0106715
0.03 -0.014947
0.04 -0.018047
0.05 -0.0197913
0.06 -0.0198899
0.07 -0.0185376
0.08 -0.0156425
0.09 -0.0115753
0.1 -0.00659301
0.11 -0.00108851
0.12 0.00451164
0.13 0.00972726
0.14 0.0142212
0.15 0.0175789
0.16 0.0195597
0.17 0.0200694
0.18 0.0189136
0.19 0.01638
0.2 0.0124842
0.21 0.00765942
0.22 0.00222636
0.23 -0.00337363
0.24 -0.00874043
0.25 -0.013357
0.26 -0.0169852
0.27 -0.0192483
0.28 -0.0200022
0.29 -0.0192433
0.3 -0.0168828
0.31 -0.0132871
0.32 -0.00857878
0.33 -0.00323172
0.34 0.00238571
0.35 0.0078055
0.36 0.0126744
0.37 0.0164645
0.38 0.0190485
0.39 0.0201072
0.4 0.0195998
0.41 0.0176144
0.42 0.014172
0.43 0.00969992
0.44 0.00442128
0.45 -0.00117263
0.46 -0.00668461
0.47 -0.0116432
0.48 -0.0157601
0.49 -0.0185235
0.5 -0.0199233
0.51 -0.0197141
0.52 -0.0179611
0.53 -0.0148397
0.54 -0.0104804
0.55 -0.0053497
0.56 0.000239544
0.57 0.00580321
0.58 0.0109355
0.59 0.0151852
0.6 0.0183437
0.61 0.0199411
0.62 0.0200858
0.63 0.0186187
0.64 0.0157081
0.65 0.0116081
0.66 0.00655253
0.67 0.00102368
0.68 -0.00459162
0.69 -0.00984063
0.7 -0.0143297
0.71 -0.0176502
0.72 -0.0196843
0.73 -0.0200276
0.74 -0.0189012
0.75 -0.0162401
0.76 -0.0123066
0.77 -0.00741977
0.78 -0.00190388
0.79 0.00376846
0.8 0.00915862
0.81 0.0138691
0.82 0.0175406
0.83 0.0198302
0.84 0.0207172
0.85 0.0198867
0.86 0.0176595
0.87 0.014069
0.88 0.00945641
0.89 0.00418612
0.9 -0.00134776
0.91 -0.00671316
0.92 -0.0114512
0.93 -0.0152495
0.94 -0.0178143
0.95 -0.0189024
0.96 -0.0186006
0.97 -0.0167296
0.98 -0.0136976
0.99 -0.00966077
1 -0.00503577
1.01 -0.000221676
1.02 0.00431017
1.03 0.00820536
1.04 0.0109856
1.05 0.0124611
1.06 0.0124258
1.07 0.0107675
1.08 0.00771527
1.09 0.00326492
1.1 -0.00205158
1.11 -0.00790557
1.12 -0.0137563
1.13 -0.0191282
1.14 -0.0233865
1.15 -0.0262339
1.16 -0.0270624
1.17 -0.0257751
1.18 -0.02218
1.19 -0.0162086
1.2 -0.00824421
1.21 0.00169875
1.22 0.0128816
1.23 0.0248834
1.24 0.0370054
1.25 0.0486366
1.26 0.0589749
1.27 0.067609
1.28 0.0737353
1.29 0.0771512
1.3 0.077513
1.31 0.0745682
1.32 0.0686716
1.33 0.0595212
1.34 0.0479287
1.35 0.0340931
1.36 0.0186678
1.37 0.00227148
1.38 -0.0144703
1.39 -0.0309146
1.4 -0.0463776
1.41 -0.0603874
1.42 -0.0724666
1.43 -0.0821396
1.44 -0.0894133
1.45 -0.0936931
1.46 -0.0953782
1.47 -0.0942564
1.48 -0.0905506
1.49 -0.0845448
1.5 -0.0762829
1.51 -0.0663314
1.52 -0.0547994
1.53 -0.0421823
1.54 -0.0287797
1.55 -0.0149548
1.56 -0.00106527
1.57 0.0124955
1.58 0.0254339
1.59 0.0373534
1.6 0.0479284
1.61 0.0569246
1.62 0.0638415
1.63 0.0687051
1.64 0.0710084
1.65 0.07083
1.66 0.0680311
1.67 0.0625287
1.68 0.0546901
1.69 0.0443525
1.7 0.0321993
1.71 0.0184562
1.72 0.00370198
1.73 -0.0115123
1.74 -0.0265574
1.75 -0.04089
1.76 -0.0538048
1.77 -0.0649082
1.78 -0.0737695
1.79 -0.0800021
1.8 -0.0837625
1.81 -0.0846805
1.82 -0.0834029
1.83 -0.0801009
1.84 -0.0754118
1.85 -0.0699877
1.86 -0.0645756
1.87 -0.059878
1.88 -0.0567566
1.89 -0.0557235
1.9 -0.0573035
1.91 -0.0619456
1.92 -0.0694352
1.93 -0.0801126
1.94 -0.093133
1.95 -0.10813
1.96 -0.124181
1.97 -0.140365
1.98 -0.155487
1.99 -0.16865
2 -0.178455
2.01 -0.184211
2.02 -0.185066
2.03 -0.180203
2.04 -0.169922
2.05 -0.153263
2.06 -0.131439
2.07 -0.104483
2.08 -0.0733729
2.09 -0.0391559
2.1 -0.00271271
2.11 0.0346301
2.12 0.0718725
2.13 0.108056
2.14 0.142451
2.15 0.174434
2.16 0.204046
2.17 0.23096
2.18 0.255924
2.19 0.279338
2.2 0.302086
2.21 0.325012
2.22 0.349175
2.23 0.375202
2.24 0.404053
2.25 0.435894
2.26 0.470871
2.27 0.508765
2.28 0.548652
2.29 0.589604
2.3 0.63001
2.31 0.668085
2.32 0.701785
2.33 0.729433
2.34 0.748096
2.35 0.757234
2.36 0.753958
2.37 0.738272
2.38 0.709361
2.39 0.666769
2.4 0.612485
2.41 0.545977
2.42 0.47089
2.43 0.388705
2.44 0.302536
2.45 0.215228
2.46 0.130066
2.47 0.0494819
2.48 -0.0231432
2.49 -0.0862699
2.5 -0.138143
2.51 -0.177241
2.52 -0.204613
2.53 -0.218736
2.54 -0.222651
2.55 -0.217049
2.56 -0.204512
2.57 -0.187603
2.58 -0.168849
2.59 -0.150946
2.6 -0.136567
2.61 -0.127524
2.62 -0.125416
2.63 -0.131602
2.64 -0.145541
2.65 -0.1682
2.66 -0.197368
2.67 -0.232215
2.68 -0.270554
2.69 -0.310264
2.7 -0.348919
2.71 -0.38459
2.72 -0.414804
2.73 -0.438417
2.74 -0.45427
2.75 -0.461514
2.76 -0.461147
2.77 -0.452717
2.78 -0.438699
2.79 -0.420296
2.8 -0.399867
2.81 -0.37955
2.82 -0.361912
2.83 -0.348543
2.84 -0.341836
2.85 -0.342486
2.86 -0.35128
2.87 -0.368572
2.88 -0.392939
2.89 -0.424183
2.9 -0.459556
2.91 -0.497333
2.92 -0.534876
2.93 -0.569958
2.94 -0.599655
2.95 -0.622764
2.96 -0.636748
2.97 -0.641406
2.98 -0.636251
2.99 -0.621342
3 -0.598659
3.01 -0.568838
3.02 -0.535123
3.03 -0.499664
3.04 -0.465441
3.05 -0.434844
3.06 -0.411066
3.07 -0.395116
3.08 -0.389567
3.09 -0.394277
3.1 -0.409455
3.11 -0.434666
3.12 -0.467548
3.13 -0.50701
3.14 -0.549564
3.15 -0.592739
3.16 -0.633436
3.17 -0.66931
3.18 -0.697194
3.19 -0.716501
3.2 -0.725008
3.21 -0.723452
3.22 -0.712229
3.23 -0.692568
3.24 -0.667288
3.25 -0.638581
3.26 -0.610036
3.27 -0.584853
3.28 -0.566313
3.29 -0.556631
3.3 -0.559255
3.31 -0.57385
3.32 -0.602473
3.33 -0.643303
3.34 -0.695114
3.35 -0.755593
3.36 -0.820934
3.37 -0.887618
3.38 -0.951408
3.39 -1.00806
3.4 -1.05374
3.41 -1.0861
3.42 -1.10112
3.43 -1.10001
3.44 -1.08069
3.45 -1.04615
3.46 -0.998478
3.47 -0.941145
3.48 -0.879121
3.49 -0.817251
3.5 -0.760529
3.51 -0.714103
3.52 -0.682114
3.53 -0.666621
3.54 -0.671247
3.55 -0.693178
3.56 -0.732557
3.57 -0.783728
3.58 -0.841417
3.59 -0.897554
3.6 -0.94439
3.61 -0.969243
3.62 -0.965291
3.63 -0.920253
3.64 -0.825406
3.65 -0.676159
3.66 -0.459993
3.67 -0.182805
3.68 0.163842
3.69 0.571058
3.7 1.03446
3.71 1.54647
3.72 2.09154
3.73 2.65916
3.74 3.23032
3.75 3.78868
3.76 4.31576
3.77 4.79751
3.78 5.21068
3.79 5.55111
3.8 5.79702
3.81 5.9478
3.82 5.99693
3.83 5.93859
3.84 5.78604
3.85 5.5301
3.86 5.19473
3.87 4.78439
3.88 4.31606
3.89 3.80673
3.9 3.27045
3.91 2.72635
3.92 2.19
3.93 1.67575
3.94 1.19584
3.95 0.763147
3.96 0.379608
3.97 0.0590178
3.98 -0.205695
3.99 -0.410179
4 -0.559141
4.01 -0.659876
4.02 -0.714501
4.03 -0.736452
4.04 -0.730138
4.05 -0.706647
4.06 -0.673127
4.07 -0.637074
4.08 -0.604141
4.09 -0.580125
4.1 -0.566831
4.11 -0.566768
4.12 -0.579822
4.13 -0.60436
4.14 -0.639246
4.15 -0.680331
4.16 -0.724831
4.17 -0.768704
4.18 -0.808625
4.19 -0.840877
4.2 -0.863876
4.21 -0.873814
4.22 -0.871361
4.23 -0.854994
4.24 -0.825342
4.25 -0.783897
4.26 -0.73095
4.27 -0.669725
4.28 -0.601217
4.29 -0.528131
4.3 -0.452168
4.31 -0.375048
4.32 -0.298099
4.33 -0.222456
4.34 -0.148521
4.35 -0.0766903
4.36 -0.00689449
4.37 0.0611543
4.38 0.127584
4.39 0.192858
4.4 0.256963
4.41 0.319909
4.42 0.381332
4.43 0.440414
4.44 0.496514
4.45 0.54768
4.46 0.593133
4.47 0.630779
4.48 0.659016
4.49 0.676902
4.5 0.681725
4.51 0.674278
4.52 0.652334
4.53 0.61702
4.54 0.568524
4.55 0.507339
4.56 0.436119
4.57 0.355358
4.58 0.268654
4.59 0.177912
4.6 0.0860045
4.61 -0.00469473
4.62 -0.0913345
4.63 -0.172489
4.64 -0.245662
4.65 -0.310254
4.66 -0.365459
4.67 -0.410639
4.68 -0.447126
4.69 -0.474326
4.7 -0.494677
4.71 -0.508946
4.72 -0.518944
4.73 -0.526345
4.74 -0.532606
4.75 -0.539182
4.76 -0.547298
4.77 -0.557683
4.78 -0.570828
4.79 -0.587016
4.8 -0.60576
4.81 -0.626947
4.82 -0.649533
4.83 -0.672804
4.84 -0.695744
4.85 -0.717531
4.86 -0.737077
4.87 -0.75403
4.88 -0.767532
4.89 -0.777597
4.9 -0.784146
4.91 -0.787247
4.92 -0.78763
4.93 -0.785495
4.94 -0.781883
4.95 -0.777398
4.96 -0.772866
4.97 -0.768925
4.98 -0.766335
4.99 -0.765362
5 -0.766553
5.01 -0.769901
5.02 -0.775448
5.03 -0.783158
5.04 -0.792594
5.05 -0.803686
5.06 -0.815842
5.07 -0.82878
5.08 -0.842076
5.09 -0.855377
5.1 -0.868286
5.11 -0.880533
5.12 -0.891663
5.13 -0.901362
5.14 -0.909177
5.15 -0.914395
5.16 -0.916671
5.17 -0.91456
5.18 -0.907682
5.19 -0.894502
5.2 -0.873772
5.21 -0.84466
5.22 -0.804628
5.23 -0.753928
5.24 -0.689995
5.25 -0.613031
5.26 -0.522396
5.27 -0.417427
5.28 -0.300112
5.29 -0.169667
5.3 -0.0296772
5.31 0.118351
5.32 0.271066
5.33 0.425077
5.34 0.57612
5.35 0.720683
5.36 0.853496
5.37 0.971212
5.38 1.06999
5.39 1.14513
5.4 1.19665
5.41 1.21833
5.42 1.21324
5.43 1.17896
5.44 1.11694
5.45 1.03025
5.46 0.919018
5.47 0.789816
5.48 0.644574
5.49 0.489295
5.5 0.328298
5.51 0.166623
5.52 0.00846999
5.53 -0.140826
5.54 -0.278901
5.55 -0.401967
5.56 -0.508004
5.57 -0.596734
5.58 -0.665582
5.59 -0.717559
5.6 -0.751581
5.61 -0.770814
5.62 -0.777012
5.63 -0.772162
5.64 -0.75965
5.65 -0.740898
5.66 -0.718917
5.67 -0.695195
5.68 -0.671252
5.69 -0.647914
5.7 -0.625708
5.71 -0.604406
5.72 -0.58361
5.73 -0.562438
5.74 -0.539937
5.75 -0.514833
5.76 -0.486472
5.77 -0.453353
5.78 -0.415585
5.79 -0.372605
5.8 -0.324778
5.81 -0.272995
5.82 -0.218081
5.83 -0.161909
5.84 -0.10624
5.85 -0.053164
5.86 -0.00470993
5.87 0.036574
5.88 0.0697342
5.89 0.0916045
5.9 0.102551
5.91 0.100957
5.92 0.0868217
5.93 0.0611179
5.94 0.0234173
5.95 -0.0234181
5.96 -0.0788069
5.97 -0.140023
5.98 -0.205155
5.99 -0.272011
6 -0.338561
6.01 -0.402684
6.02 -0.463205
6.03 -0.518722
6.04 -0.568549
6.05 -0.61273
6.06 -0.650727
6.07 -0.683837
6.08 -0.712242
6.09 -0.737326
6.1 -0.76005
6.11 -0.781475
6.12 -0.802595
6.13 -0.82422
6.14 -0.846774
6.15 -0.870531
6.16 -0.895364
6.17 -0.920871
6.18 -0.946423
6.19 -0.971259
6.2 -0.994368
6.21 -1.01497
6.22 -1.03232
6.23 -1.04557
6.24 -1.05487
6.25 -1.0595
6.26 -1.06036
6.27 -1.0577
6.28 -1.05242
6.29 -1.04552
6.3 -1.0379
6.31 -1.0305
6.32 -1.02401
6.33 -1.0186
6.34 -1.01405
6.35 -1.0094
6.36 -1.00323
6.37 -0.992681
6.38 -0.975324
6.39 -0.947036
6.4 -0.903491
6.41 -0.841475
6.42 -0.753511
6.43 -0.638942
6.44 -0.490227
6.45 -0.306707
6.46 -0.0859549
6.47 0.174963
6.48 0.471247
6.49 0.806298
6.5 1.17098
6.51 1.56236
6.52 1.97239
6.53 2.39237
6.54 2.8126
6.55 3.22319
6.56 3.61164
6.57 3.96846
6.58 4.28361
6.59 4.54441
6.6 4.74933
6.61 4.8818
6.62 4.94718
6.63 4.93771
6.64 4.85439
6.65 4.70329
6.66 4.48107
6.67 4.2035
6.68 3.872
6.69 3.50076
6.7 3.09933
6.71 2.67863
6.72 2.25096
6.73 1.82755
6.74 1.41802
6.75 1.03227
6.76 0.678245
6.77 0.359601
6.78 0.0855294
6.79 -0.147785
6.8 -0.334514
6.81 -0.47939
6.82 -0.584383
6.83 -0.651576
6.84 -0.689244
6.85 -0.698429
6.86 -0.688458
6.87 -0.663046
6.88 -0.627926
6.89 -0.587759
6.9 -0.546281
6.91 -0.506494
6.92 -0.47079
6.93 -0.440146
6.94 -0.415036
6.95 -0.395536
6.96 -0.380409
6.97 -0.369224
6.98 -0.36029
6.99 -0.352701
7 -0.345435
7.01 -0.337916
7.02 -0.329867
7.03 -0.321573
7.04 -0.313686
7.05 -0.307251
7.06 -0.303514
7.07 -0.304277
7.08 -0.310424
7.09 -0.324414
7.1 -0.346323
7.11 -0.377515
7.12 -0.41816
7.13 -0.467478
7.14 -0.525598
7.15 -0.589999
7.16 -0.659531
7.17 -0.731441
7.18 -0.803395
7.19 -0.872474
7.2 -0.936678
7.21 -0.992594
7.22 -1.03941
7.23 -1.07502
7.24 -1.09871
7.25 -1.11101
7.26 -1.11111
7.27 -1.10177
7.28 -1.08358
7.29 -1.05947
7.3 -1.03166
7.31 -1.00278
7.32 -0.975158
7.33 -0.951464
7.34 -0.932891
7.35 -0.920944
7.36 -0.916023
7.37 -0.917449
7.38 -0.924794
7.39 -0.935526
7.4 -0.947528
7.41 -0.957613
7.42 -0.962685
7.43 -0.95864
7.44 -0.94343
7.45 -0.91178
7.46 -0.863333
7.47 -0.794941
7.48 -0.705691
7.49 -0.596652
7.5 -0.466262
7.51 -0.319147
7.52 -0.155995
7.53 0.0183107
7.54 0.199947
7.55 0.384113
7.56 0.566071
7.57 0.739861
7.58 0.901773
7.59 1.04659
7.6 1.17033
7.61 1.27139
7.62 1.34423
7.63 1.39137
7.64 1.40905
7.65 1.39991
7.66 1.36495
7.67 1.30499
7.68 1.22515
7.69 1.12571
7.7 1.01275
7.71 0.888719
7.72 0.757734
7.73 0.623424
7.74 0.489199
7.75 0.357943
7.76 0.232811
7.77 0.115724
7.78 0.00847496
7.79 -0.086771
7.8 -0.170366
7.81 -0.239634
7.82 -0.296113
7.83 -0.338737
7.84 -0.367849
7.85 -0.384608
7.86 -0.388128
7.87 -0.380984
7.88 -0.362845
7.89 -0.335747
7.9 -0.300899
7.91 -0.259587
7.92 -0.214067
7.93 -0.165758
7.94 -0.117025
7.95 -0.0698513
7.96 -0.0265027
7.97 0.0113829
7.98 0.040883
7.99 0.0614949
8 0.0705941
8.01 0.0679012
8.02 0.0527413
8.03 0.0242315
8.04 -0.0158494
8.05 -0.0684049
8.06 -0.130422
8.07 -0.200883
8.08 -0.27738
8.09 -0.357395
8.1 -0.438516
8.11 -0.518221
8.12 -0.593918
8.13 -0.663761
8.14 -0.726178
8.15 -0.779453
8.16 -0.824036
8.17 -0.858483
8.18 -0.884668
8.19 -0.902969
8.2 -0.915029
8.21 -0.922781
8.22 -0.927784
8.23 -0.932135
8.24 -0.937393
8.25 -0.944743
8.26 -0.954815
8.27 -0.967774
8.28 -0.982644
8.29 -0.998054
8.3 -1.01166
8.31 -1.02048
8.32 -1.02075
8.33 -1.00948
8.34 -0.980536
8.35 -0.932525
8.36 -0.859222
8.37 -0.759193
8.38 -0.630126
8.39 -0.468871
8.4 -0.278824
8.41 -0.056609
8.42 0.191053
8.43 0.462379
8.44 0.751675
8.45 1.05232
8.46 1.35776
8.47 1.66008
8.48 1.95065
8.49 2.22204
8.5 2.46703
8.51 2.67629
8.52 2.84827
8.53 2.97149
8.54 3.04886
8.55 3.07505
8.56 3.05011
8.57 2.97823
8.58 2.85637
8.59 2.6953
8.6 2.49551
8.61 2.26622
8.62 2.0137
8.63 1.74462
8.64 1.46745
8.65 1.18879
8.66 0.915484
8.67 0.653648
8.68 0.408677
8.69 0.183208
8.7 -0.0167881
8.71 -0.193045
8.72 -0.341765
8.73 -0.465135
8.74 -0.564085
8.75 -0.639243
8.76 -0.695447
8.77 -0.732835
8.78 -0.756952
8.79 -0.769866
8.8 -0.774998
8.81 -0.775414
8.82 -0.7734
8.83 -0.77133
8.84 -0.770946
8.85 -0.773422
8.86 -0.779505
8.87 -0.78983
8.88 -0.803938
8.89 -0.822107
8.9 -0.843279
8.91 -0.867008
8.92 -0.892434
8.93 -0.918729
8.94 -0.945131
8.95 -0.970971
8.96 -0.995587
8.97 -1.0186
8.98 -1.03972
8.99 -1.05863
9 -1.07554
9.01 -1.09017
9.02 -1.10293
9.03 -1.11384
9.04 -1.12311
9.05 -1.13097
9.06 -1.13736
9.07 -1.14253
9.08 -1.14628
9.09 -1.14856
9.1 -1.14914
9.11 -1.14754
9.12 -1.1436
9.13 -1.1364
9.14 -1.12578
9.15 -1.11094
9.16 -1.09127
9.17 -1.06658
9.18 -1.03567
9.19 -0.999074
9.2 -0.955861
9.21 -0.906471
9.22 -0.851059
9.23 -0.789723
9.24 -0.723712
9.25 -0.653274
9.26 -0.58011
9.27 -0.505313
9.28 -0.430533
9.29 -0.35724
9.3 -0.287584
9.31 -0.222693
9.32 -0.16485
9.33 -0.11514
9.34 -0.0747813
9.35 -0.0454816
9.36 -0.0266326
9.37 -0.0202504
9.38 -0.0246266
9.39 -0.0400375
9.4 -0.0654201
9.41 -0.0989852
9.42 -0.139995
9.43 -0.185655
9.44 -0.234482
9.45 -0.284089
9.46 -0.332589
9.47 -0.377791
9.48 -0.418547
9.49 -0.452632
9.5 -0.479927
9.51 -0.499415
9.52 -0.511022
9.53 -0.515544
9.54 -0.512871
9.55 -0.505047
9.56 -0.492844
9.57 -0.478202
9.58 -0.462658
9.59 -0.448003
9.6 -0.435538
9.61 -0.427113
9.62 -0.423283
9.63 -0.425092
9.64 -0.432934
9.65 -0.446452
9.66 -0.466056
9.67 -0.49032
9.68 -0.518954
9.69 -0.550613
9.7 -0.5843
9.71 -0.618951
9.72 -0.653565
9.73 -0.687213
9.74 -0.719383
9.75 -0.749565
9.76 -0.777537
9.77 -0.803405
9.78 -0.826966
9.79 -0.848641
9.8 -0.868239
9.81 -0.885762
9.82 -0.900834
9.83 -0.912437
9.84 -0.919858
9.85 -0.920524
9.86 -0.913066
9.87 -0.894301
9.88 -0.860907
9.89 -0.810767
9.9 -0.737551
9.91 -0.641109
9.92 -0.5152
9.93 -0.358877
9.94 -0.170151
9.95 0.0543976
9.96 0.310907
9.97 0.603282
9.98 0.924557
9.99 1.27314
10 1.64339
10.01 2.02825
10.02 2.42126
10.03 2.81346
10.04 3.19572
10.05 3.55929
10.06 3.89586
10.07 4.19423
10.08 4.45167
10.09 4.6543
10.1 4.80382
10.11 4.89302
10.12 4.92005
10.13 4.88892
10.14 4.79367
10.15 4.64656
10.16 4.44637
10.17 4.20333
10.18 3.92441
10.19 3.6165
10.2 3.29071
10.21 2.95388
10.22 2.61585
10.23 2.28409
10.24 1.96615
10.25 1.66645
10.26 1.39281
10.27 1.14475
10.28 0.927415
10.29 0.73939
10.3 0.580086
10.31 0.449449
10.32 0.341906
10.33 0.257483
10.34 0.189525
10.35 0.135371
10.36 0.0906961
10.37 0.0515017
10.38 0.0146804
10.39 -0.0228324
10.4 -0.0634376
10.41 -0.108628
10.42 -0.159298
10.43 -0.216196
10.44 -0.278432
10.45 -0.346091
10.46 -0.417423
10.47 -0.491402
10.48 -0.566417
10.49 -0.641028
10.5 -0.713489
10.51 -0.782808
10.52 -0.847399
10.53 -0.906569
10.54 -0.959654
10.55 -1.0057
10.56 -1.04524
10.57 -1.07714
10.58 -1.10239
10.59 -1.12071
10.6 -1.13236
10.61 -1.13804
10.62 -1.13726
10.63 -1.13121
10.64 -1.11953
10.65 -1.10289
10.66 -1.08158
10.67 -1.05564
10.68 -1.02593
10.69 -0.992311
10.7 -0.955779
10.71 -0.916708
10.72 -0.875852
10.73 -0.834037
10.74 -0.792123
10.75 -0.751016
10.76 -0.711805
10.77 -0.675386
10.78 -0.642627
10.79 -0.614742
10.8 -0.591878
10.81 -0.575524
10.82 -0.565328
10.83 -0.561968
10.84 -0.565515
10.85 -0.575394
10.86 -0.592123
10.87 -0.614272
10.88 -0.641843
10.89 -0.673679
10.9 -0.708969
10.91 -0.746912
10.92 -0.786346
10.93 -0.826465
10.94 -0.866279
10.95 -0.904963
10.96 -0.941698
10.97 -0.976031
10.98 -1.00701
10.99 -1.03472
11 -1.05845
11.01 -1.07831
11.02 -1.09429
11.03 -1.10623
11.04 -1.1148
11.05 -1.11984
11.06 -1.12221
11.07 -1.12227
11.08 -1.12065
11.09 -1.11806
11.1 -1.11511
11.11 -1.11248
11.12 -1.1108
11.13 -1.11055
11.14 -1.11203
11.15 -1.11553
11.16 -1.12077
11.17 -1.1276
11.18 -1.13517
11.19 -1.14255
11.2 -1.14829
11.21 -1.15101
11.22 -1.14804
11.23 -1.13809
11.24 -1.11787
11.25 -1.08548
11.26 -1.0387
11.27 -0.974034
11.28 -0.891687
11.29 -0.787118
11.3 -0.662005
11.31 -0.514592
11.32 -0.345218
11.33 -0.156379
11.34 0.0524583
11.35 0.275844
11.36 0.511943
11.37 0.755515
11.38 1.00208
11.39 1.24597
11.4 1.48249
11.41 1.70432
11.42 1.90784
11.43 2.08698
11.44 2.23685
11.45 2.35609
11.46 2.43707
11.47 2.48342
11.48 2.49011
11.49 2.45999
11.5 2.39453
11.51 2.29402
11.52 2.16551
11.53 2.00915
11.54 1.8331
11.55 1.641
11.56 1.43857
11.57 1.23128
11.58 1.02418
11.59 0.821674
11.6 0.628406
11.61 0.447288
11.62 0.280614
11.63 0.131294
11.64 -0.00184285
11.65 -0.116167
11.66 -0.214627
11.67 -0.297404
11.68 -0.36638
11.69 -0.424397
11.7 -0.472517
11.71 -0.514367
11.72 -0.55146
11.73 -0.586199
11.74 -0.620153
11.75 -0.654698
11.76 -0.690518
11.77 -0.728189
11.78 -0.767343
11.79 -0.807509
11.8 -0.847622
11.81 -0.886514
11.82 -0.922236
11.83 -0.953595
11.84 -0.978256
11.85 -0.994798
11.86 -1.00175
11.87 -0.996802
11.88 -0.98022
11.89 -0.949178
11.9 -0.904864
11.91 -0.846232
11.92 -0.773438
11.93 -0.687967
11.94 -0.589043
11.95 -0.479766
11.96 -0.360476
11.97 -0.233719
11.98 -0.10146
11.99 0.0341478
12 0.170527
12.01 0.305044
12.02 0.435382
12.03 0.558886
12.04 0.672927
12.05 0.776165
12.06 0.864733
12.07 0.939041
12.08 0.99594
12.09 1.03542
12.1 1.05704
12.11 1.05938
12.12 1.04493
12.13 1.01192
12.14 0.963857
12.15 0.901343
12.16 0.826509
12.17 0.742272
12.18 0.650109
12.19 0.553614
12.2 0.454881
12.21 0.356644
12.22 0.261002
12.23 0.170364
12.24 0.0856318
12.25 0.00904099
12.26 -0.0596618
12.27 -0.119746
12.28 -0.171417
12.29 -0.215848
12.3 -0.253146
12.31 -0.285559
12.32 -0.314
12.33 -0.340339
12.34 -0.365995
12.35 -0.39246
12.36 -0.420676
12.37 -0.451797
12.38 -0.485875
12.39 -0.523054
