# xPDFsuite Configuration #
[PDF]
wavelength = 0.1432
dataformat = twotheta
inputfile = 1_1Pd_CeO2_cycle-00431.chi
backgroundfile = background-00000.chi
mode = xray
bgscale = 1.007
composition = CeO2
outputtype = gr
qmaxinst = 28.8974762299
qmin = 0.5
qmax = 27.9
rmax = 50.0
rmin = 0.0
rstep = 0.01
rpoly = 1.8657

[Misc]
inputdir = G:/SankarDec16/1Pd/Chi
savedir = D:/DATA/APS_CeO2/1Pd
backgroundfilefull = G:/SankarDec16/Background/background-00000.chi

#### start data
#S 1
#L r($\AA$)  G($\AA^{-2}$)
0 0
0.01 -0.00484267
0.02 -0.00932211
0.03 -0.0130642
0.04 -0.0157869
0.05 -0.0173328
0.06 -0.0174487
0.07 -0.0163016
0.08 -0.0138084
0.09 -0.0102884
0.1 -0.0059617
0.11 -0.00116609
0.12 0.00372797
0.13 0.00830678
0.14 0.0122737
0.15 0.0152677
0.16 0.0170749
0.17 0.017608
0.18 0.0166908
0.19 0.0145671
0.2 0.0112413
0.21 0.00708479
0.22 0.00237052
0.23 -0.00252264
0.24 -0.00724453
0.25 -0.0113494
0.26 -0.0146202
0.27 -0.0167254
0.28 -0.0175286
0.29 -0.0170167
0.3 -0.0150988
0.31 -0.0120845
0.32 -0.00806585
0.33 -0.0034499
0.34 0.0014495
0.35 0.00622903
0.36 0.0105745
0.37 0.0140279
0.38 0.0164617
0.39 0.0175884
0.4 0.0173557
0.41 0.0158251
0.42 0.0129956
0.43 0.00922885
0.44 0.00470085
0.45 -0.00016357
0.46 -0.0050238
0.47 -0.00946966
0.48 -0.0132372
0.49 -0.0158766
0.5 -0.0173554
0.51 -0.0174437
0.52 -0.0161756
0.53 -0.0136851
0.54 -0.010061
0.55 -0.00570182
0.56 -0.000859404
0.57 0.0040421
0.58 0.00865061
0.59 0.0125671
0.6 0.0155901
0.61 0.0172979
0.62 0.0177553
0.63 0.0168003
0.64 0.0145523
0.65 0.0112125
0.66 0.00695619
0.67 0.00220087
0.68 -0.00273635
0.69 -0.00745061
0.7 -0.011594
0.71 -0.014796
0.72 -0.0169267
0.73 -0.0176111
0.74 -0.0170084
0.75 -0.0150316
0.76 -0.0118802
0.77 -0.0078128
0.78 -0.00308349
0.79 0.00188993
0.8 0.00674015
0.81 0.0110993
0.82 0.0146395
0.83 0.0170353
0.84 0.0182334
0.85 0.0179215
0.86 0.0163443
0.87 0.0134909
0.88 0.00962899
0.89 0.00505944
0.9 9.67048e-05
0.91 -0.00486352
0.92 -0.00943052
0.93 -0.013295
0.94 -0.0161732
0.95 -0.0178096
0.96 -0.0182324
0.97 -0.0172249
0.98 -0.0151009
0.99 -0.0119384
1 -0.00806058
1.01 -0.00379323
1.02 0.000499766
1.03 0.00448143
1.04 0.00776119
1.05 0.0101268
1.06 0.011373
1.07 0.0113586
1.08 0.0102199
1.09 0.00789979
1.1 0.00479412
1.11 0.00112436
1.12 -0.00269968
1.13 -0.00630759
1.14 -0.00922116
1.15 -0.0111823
1.16 -0.0117306
1.17 -0.0107697
1.18 -0.00815139
1.19 -0.00382963
1.2 0.00190427
1.21 0.00899722
1.22 0.0168807
1.23 0.0251845
1.24 0.0333437
1.25 0.04087
1.26 0.0470934
1.27 0.0517262
1.28 0.0541157
1.29 0.0541593
1.3 0.0516281
1.31 0.0463956
1.32 0.038831
1.33 0.0288183
1.34 0.0170978
1.35 0.00397246
1.36 -0.00991808
1.37 -0.0239969
1.38 -0.0375934
1.39 -0.0502245
1.4 -0.0612006
1.41 -0.0702215
1.42 -0.0769188
1.43 -0.0809719
1.44 -0.0825647
1.45 -0.0813069
1.46 -0.0777696
1.47 -0.0719657
1.48 -0.0643063
1.49 -0.055205
1.5 -0.0449649
1.51 -0.0341127
1.52 -0.0229759
1.53 -0.0119445
1.54 -0.00130829
1.55 0.0086428
1.56 0.0178074
1.57 0.0258944
1.58 0.0329817
1.59 0.0389263
1.6 0.043744
1.61 0.0474796
1.62 0.0500239
1.63 0.0515325
1.64 0.0518569
1.65 0.0510888
1.66 0.0491761
1.67 0.0460484
1.68 0.0418091
1.69 0.0362597
1.7 0.0296158
1.71 0.0218253
1.72 0.0130293
1.73 0.00340312
1.74 -0.00691825
1.75 -0.0176184
1.76 -0.0284548
1.77 -0.039104
1.78 -0.0492709
1.79 -0.0586097
1.8 -0.0669676
1.81 -0.0739293
1.82 -0.0795593
1.83 -0.0836643
1.84 -0.0863137
1.85 -0.0876696
1.86 -0.0878181
1.87 -0.0871699
1.88 -0.0859625
1.89 -0.0846185
1.9 -0.0834803
1.91 -0.0829387
1.92 -0.0832
1.93 -0.0846597
1.94 -0.0872658
1.95 -0.0911462
1.96 -0.0961569
1.97 -0.102053
1.98 -0.108558
1.99 -0.115194
2 -0.121454
2.01 -0.126811
2.02 -0.130714
2.03 -0.132502
2.04 -0.131939
2.05 -0.12812
2.06 -0.121186
2.07 -0.110597
2.08 -0.096314
2.09 -0.0784666
2.1 -0.0567558
2.11 -0.0318347
2.12 -0.00350913
2.13 0.0276266
2.14 0.0613555
2.15 0.0974275
2.16 0.135331
2.17 0.175048
2.18 0.216045
2.19 0.258198
2.2 0.301206
2.21 0.344798
2.22 0.388705
2.23 0.43256
2.24 0.475913
2.25 0.518276
2.26 0.55904
2.27 0.59734
2.28 0.632687
2.29 0.663528
2.3 0.689576
2.31 0.709408
2.32 0.722187
2.33 0.727434
2.34 0.723527
2.35 0.711186
2.36 0.688999
2.37 0.657895
2.38 0.618001
2.39 0.569748
2.4 0.514893
2.41 0.453799
2.42 0.388921
2.43 0.321593
2.44 0.253855
2.45 0.187408
2.46 0.124405
2.47 0.0658967
2.48 0.0139099
2.49 -0.0310945
2.5 -0.0683593
2.51 -0.0973478
2.52 -0.119086
2.53 -0.133031
2.54 -0.141291
2.55 -0.144569
2.56 -0.144584
2.57 -0.142922
2.58 -0.141212
2.59 -0.14086
2.6 -0.143414
2.61 -0.149655
2.62 -0.160287
2.63 -0.175782
2.64 -0.195529
2.65 -0.219663
2.66 -0.246688
2.67 -0.275761
2.68 -0.305408
2.69 -0.334322
2.7 -0.36085
2.71 -0.38413
2.72 -0.402645
2.73 -0.416089
2.74 -0.424031
2.75 -0.426325
2.76 -0.423967
2.77 -0.417125
2.78 -0.407604
2.79 -0.396519
2.8 -0.385547
2.81 -0.376084
2.82 -0.369932
2.83 -0.367806
2.84 -0.371208
2.85 -0.38018
2.86 -0.394918
2.87 -0.415225
2.88 -0.439798
2.89 -0.467976
2.9 -0.497721
2.91 -0.527485
2.92 -0.555325
2.93 -0.579725
2.94 -0.598521
2.95 -0.611262
2.96 -0.616238
2.97 -0.613764
2.98 -0.603833
2.99 -0.58692
3 -0.564806
3.01 -0.538447
3.02 -0.510371
3.03 -0.482485
3.04 -0.457091
3.05 -0.435925
3.06 -0.421459
3.07 -0.414093
3.08 -0.415677
3.09 -0.425707
3.1 -0.444048
3.11 -0.470007
3.12 -0.501494
3.13 -0.537278
3.14 -0.574555
3.15 -0.611168
3.16 -0.644649
3.17 -0.673219
3.18 -0.694353
3.19 -0.707876
3.2 -0.712128
3.21 -0.707996
3.22 -0.696025
3.23 -0.677467
3.24 -0.654771
3.25 -0.629991
3.26 -0.606073
3.27 -0.585772
3.28 -0.571786
3.29 -0.565876
3.3 -0.570905
3.31 -0.586415
3.32 -0.614085
3.33 -0.652257
3.34 -0.699836
3.35 -0.754829
3.36 -0.813998
3.37 -0.874393
3.38 -0.93245
3.39 -0.984634
3.4 -1.02774
3.41 -1.0598
3.42 -1.07746
3.43 -1.08167
3.44 -1.07064
3.45 -1.04676
3.46 -1.01165
3.47 -0.968019
3.48 -0.919876
3.49 -0.870911
3.5 -0.825184
3.51 -0.786642
3.52 -0.758488
3.53 -0.742284
3.54 -0.740568
3.55 -0.751082
3.56 -0.773442
3.57 -0.802989
3.58 -0.835148
3.59 -0.862962
3.6 -0.880232
3.61 -0.875885
3.62 -0.844724
3.63 -0.776301
3.64 -0.663513
3.65 -0.502784
3.66 -0.283577
3.67 -0.0113652
3.68 0.32089
3.69 0.705266
3.7 1.13779
3.71 1.61171
3.72 2.11351
3.73 2.63387
3.74 3.15635
3.75 3.66659
3.76 4.14844
3.77 4.58963
3.78 4.96958
3.79 5.28466
3.8 5.51542
3.81 5.66116
3.82 5.7158
3.83 5.67374
3.84 5.54651
3.85 5.32516
3.86 5.03081
3.87 4.66679
3.88 4.2478
3.89 3.78881
3.9 3.30164
3.91 2.80376
3.92 2.30855
3.93 1.82931
3.94 1.37714
3.95 0.963839
3.96 0.591931
3.97 0.274008
3.98 0.00474144
3.99 -0.211402
4 -0.377845
4.01 -0.500485
4.02 -0.58041
4.03 -0.629301
4.04 -0.650369
4.05 -0.653369
4.06 -0.64441
4.07 -0.629908
4.08 -0.61523
4.09 -0.605124
4.1 -0.601827
4.11 -0.607529
4.12 -0.622453
4.13 -0.645511
4.14 -0.675764
4.15 -0.710044
4.16 -0.74595
4.17 -0.780257
4.18 -0.8102
4.19 -0.832664
4.2 -0.846478
4.21 -0.848389
4.22 -0.8392
4.23 -0.817709
4.24 -0.784643
4.25 -0.741457
4.26 -0.688614
4.27 -0.629031
4.28 -0.563789
4.29 -0.495311
4.3 -0.425166
4.31 -0.354926
4.32 -0.285632
4.33 -0.21831
4.34 -0.153049
4.35 -0.0900477
4.36 -0.028971
4.37 0.0306938
4.38 0.0894074
4.39 0.147787
4.4 0.206185
4.41 0.264747
4.42 0.323314
4.43 0.381298
4.44 0.437953
4.45 0.491635
4.46 0.541228
4.47 0.584653
4.48 0.620044
4.49 0.646133
4.5 0.659934
4.51 0.661768
4.52 0.649009
4.53 0.622357
4.54 0.581615
4.55 0.526843
4.56 0.46058
4.57 0.38285
4.58 0.297428
4.59 0.206079
4.6 0.111846
4.61 0.0173914
4.62 -0.0742453
4.63 -0.161113
4.64 -0.240367
4.65 -0.310922
4.66 -0.37157
4.67 -0.421233
4.68 -0.461065
4.69 -0.490036
4.7 -0.510701
4.71 -0.523711
4.72 -0.531041
4.73 -0.534643
4.74 -0.536203
4.75 -0.537658
4.76 -0.540617
4.77 -0.546249
4.78 -0.555426
4.79 -0.56884
4.8 -0.586106
4.81 -0.607498
4.82 -0.631763
4.83 -0.658221
4.84 -0.685601
4.85 -0.712736
4.86 -0.738197
4.87 -0.761135
4.88 -0.78022
4.89 -0.795033
4.9 -0.805113
4.91 -0.810119
4.92 -0.810769
4.93 -0.806896
4.94 -0.799878
4.95 -0.790359
4.96 -0.779533
4.97 -0.768475
4.98 -0.758402
4.99 -0.750123
5 -0.744759
5.01 -0.742744
5.02 -0.74452
5.03 -0.750461
5.04 -0.760066
5.05 -0.77361
5.06 -0.79004
5.07 -0.80895
5.08 -0.829428
5.09 -0.850588
5.1 -0.871437
5.11 -0.891112
5.12 -0.908463
5.13 -0.922722
5.14 -0.933008
5.15 -0.938187
5.16 -0.938069
5.17 -0.930879
5.18 -0.916858
5.19 -0.894701
5.2 -0.863808
5.21 -0.824031
5.22 -0.77364
5.23 -0.713588
5.24 -0.642237
5.25 -0.560336
5.26 -0.467801
5.27 -0.364539
5.28 -0.252326
5.29 -0.130907
5.3 -0.00306507
5.31 0.129885
5.32 0.265357
5.33 0.400806
5.34 0.53286
5.35 0.658987
5.36 0.775002
5.37 0.878369
5.38 0.966026
5.39 1.03414
5.4 1.08266
5.41 1.10629
5.42 1.10736
5.43 1.08356
5.44 1.03573
5.45 0.966112
5.46 0.874256
5.47 0.765553
5.48 0.641071
5.49 0.505808
5.5 0.363246
5.51 0.217503
5.52 0.0724995
5.53 -0.0673661
5.54 -0.199419
5.55 -0.320162
5.56 -0.427292
5.57 -0.520016
5.58 -0.595513
5.59 -0.655848
5.6 -0.699445
5.61 -0.728651
5.62 -0.74461
5.63 -0.74865
5.64 -0.743825
5.65 -0.730984
5.66 -0.71321
5.67 -0.691828
5.68 -0.668536
5.69 -0.644486
5.7 -0.620462
5.71 -0.596804
5.72 -0.573541
5.73 -0.550291
5.74 -0.526509
5.75 -0.501357
5.76 -0.474279
5.77 -0.444149
5.78 -0.410838
5.79 -0.373786
5.8 -0.333062
5.81 -0.289183
5.82 -0.242588
5.83 -0.19465
5.84 -0.146621
5.85 -0.100166
5.86 -0.0569278
5.87 -0.0190328
5.88 0.0125626
5.89 0.0351022
5.9 0.048614
5.91 0.0514963
5.92 0.0434416
5.93 0.025028
5.94 -0.00448559
5.95 -0.0427705
5.96 -0.0896557
5.97 -0.142838
5.98 -0.200747
5.99 -0.261541
6 -0.323237
6.01 -0.384012
6.02 -0.442467
6.03 -0.497199
6.04 -0.547291
6.05 -0.592508
6.06 -0.632073
6.07 -0.666933
6.08 -0.697001
6.09 -0.723424
6.1 -0.746996
6.11 -0.768644
6.12 -0.789425
6.13 -0.810139
6.14 -0.831451
6.15 -0.853825
6.16 -0.877427
6.17 -0.902109
6.18 -0.927609
6.19 -0.953294
6.2 -0.978449
6.21 -1.00229
6.22 -1.02407
6.23 -1.04285
6.24 -1.05843
6.25 -1.0698
6.26 -1.07736
6.27 -1.08082
6.28 -1.08049
6.29 -1.07694
6.3 -1.07029
6.31 -1.06139
6.32 -1.0503
6.33 -1.0373
6.34 -1.02215
6.35 -1.004
6.36 -0.982136
6.37 -0.954042
6.38 -0.918341
6.39 -0.871752
6.4 -0.811065
6.41 -0.733971
6.42 -0.634458
6.43 -0.512326
6.44 -0.361433
6.45 -0.181392
6.46 0.0297606
6.47 0.274467
6.48 0.54876
6.49 0.855582
6.5 1.18739
6.51 1.54185
6.52 1.91232
6.53 2.29155
6.54 2.67147
6.55 3.04365
6.56 3.3975
6.57 3.72477
6.58 4.01672
6.59 4.26221
6.6 4.45958
6.61 4.5941
6.62 4.66992
6.63 4.67973
6.64 4.62377
6.65 4.50684
6.66 4.32508
6.67 4.09205
6.68 3.80804
6.69 3.4853
6.7 3.1318
6.71 2.75664
6.72 2.37102
6.73 1.98418
6.74 1.60543
6.75 1.24351
6.76 0.905962
6.77 0.596749
6.78 0.324393
6.79 0.0865624
6.8 -0.110986
6.81 -0.271565
6.82 -0.39623
6.83 -0.486034
6.84 -0.547922
6.85 -0.581979
6.86 -0.596461
6.87 -0.594232
6.88 -0.580309
6.89 -0.559028
6.9 -0.533511
6.91 -0.507071
6.92 -0.481856
6.93 -0.459309
6.94 -0.440209
6.95 -0.424993
6.96 -0.413026
6.97 -0.404192
6.98 -0.397307
6.99 -0.391746
7 -0.386719
7.01 -0.381723
7.02 -0.376486
7.03 -0.371118
7.04 -0.366031
7.05 -0.361949
7.06 -0.359777
7.07 -0.360861
7.08 -0.36591
7.09 -0.376836
7.1 -0.393795
7.11 -0.417933
7.12 -0.449519
7.13 -0.488071
7.14 -0.53389
7.15 -0.585101
7.16 -0.641023
7.17 -0.699587
7.18 -0.759069
7.19 -0.817313
7.2 -0.872672
7.21 -0.922613
7.22 -0.966298
7.23 -1.00205
7.24 -1.02914
7.25 -1.04779
7.26 -1.05717
7.27 -1.05918
7.28 -1.05404
7.29 -1.04378
7.3 -1.0299
7.31 -1.01415
7.32 -0.998261
7.33 -0.983908
7.34 -0.972061
7.35 -0.963646
7.36 -0.958885
7.37 -0.957291
7.38 -0.958263
7.39 -0.960102
7.4 -0.960954
7.41 -0.958533
7.42 -0.950478
7.43 -0.933594
7.44 -0.906567
7.45 -0.865186
7.46 -0.809506
7.47 -0.737116
7.48 -0.647481
7.49 -0.541633
7.5 -0.418448
7.51 -0.281795
7.52 -0.132352
7.53 0.0258465
7.54 0.189622
7.55 0.354975
7.56 0.518048
7.57 0.673828
7.58 0.819302
7.59 0.950081
7.6 1.06282
7.61 1.15613
7.62 1.22524
7.63 1.27224
7.64 1.29375
7.65 1.29189
7.66 1.26735
7.67 1.22058
7.68 1.15591
7.69 1.07323
7.7 0.977773
7.71 0.871475
7.72 0.757804
7.73 0.639956
7.74 0.520737
7.75 0.402909
7.76 0.28917
7.77 0.181434
7.78 0.0814102
7.79 -0.00885266
7.8 -0.0894116
7.81 -0.157796
7.82 -0.215131
7.83 -0.260352
7.84 -0.293625
7.85 -0.315887
7.86 -0.326264
7.87 -0.327015
7.88 -0.317798
7.89 -0.300418
7.9 -0.275936
7.91 -0.245464
7.92 -0.211012
7.93 -0.173752
7.94 -0.135771
7.95 -0.0987301
7.96 -0.0645456
7.97 -0.0346139
7.98 -0.0113379
7.99 0.00481504
8 0.0116858
8.01 0.00899848
8.02 -0.0038417
8.03 -0.0276235
8.04 -0.0609616
8.05 -0.104721
8.06 -0.156525
8.07 -0.215692
8.08 -0.280396
8.09 -0.348668
8.1 -0.418768
8.11 -0.488611
8.12 -0.556267
8.13 -0.620182
8.14 -0.679063
8.15 -0.731483
8.16 -0.777579
8.17 -0.816082
8.18 -0.848182
8.19 -0.873923
8.2 -0.89428
8.21 -0.910522
8.22 -0.923416
8.23 -0.93448
8.24 -0.944465
8.25 -0.954156
8.26 -0.963823
8.27 -0.973266
8.28 -0.981873
8.29 -0.988095
8.3 -0.990439
8.31 -0.986391
8.32 -0.973107
8.33 -0.948485
8.34 -0.907563
8.35 -0.849734
8.36 -0.770039
8.37 -0.667672
8.38 -0.540964
8.39 -0.387525
8.4 -0.210314
8.41 -0.00663943
8.42 0.217936
8.43 0.461961
8.44 0.720813
8.45 0.98911
8.46 1.26158
8.47 1.53174
8.48 1.79257
8.49 2.03789
8.5 2.26171
8.51 2.45615
8.52 2.61971
8.53 2.74252
8.54 2.82664
8.55 2.86714
8.56 2.86347
8.57 2.8187
8.58 2.72936
8.59 2.60427
8.6 2.44291
8.61 2.2528
8.62 2.03879
8.63 1.80598
8.64 1.56189
8.65 1.31143
8.66 1.06122
8.67 0.816461
8.68 0.582282
8.69 0.361706
8.7 0.160238
8.71 -0.0224866
8.72 -0.18256
8.73 -0.320917
8.74 -0.437599
8.75 -0.532275
8.76 -0.608683
8.77 -0.66603
8.78 -0.709071
8.79 -0.739138
8.8 -0.759109
8.81 -0.771882
8.82 -0.779231
8.83 -0.783948
8.84 -0.787613
8.85 -0.791883
8.86 -0.797839
8.87 -0.806477
8.88 -0.817915
8.89 -0.832764
8.9 -0.85045
8.91 -0.870841
8.92 -0.893357
8.93 -0.917303
8.94 -0.942091
8.95 -0.966951
8.96 -0.991226
8.97 -1.01436
8.98 -1.0359
8.99 -1.05536
9 -1.07274
9.01 -1.08756
9.02 -1.10015
9.03 -1.1104
9.04 -1.11848
9.05 -1.12467
9.06 -1.12893
9.07 -1.13167
9.08 -1.13283
9.09 -1.13254
9.1 -1.13077
9.11 -1.12726
9.12 -1.12197
9.13 -1.11422
9.14 -1.10389
9.15 -1.0903
9.16 -1.07286
9.17 -1.05133
9.18 -1.02454
9.19 -0.992797
9.2 -0.955132
9.21 -0.911764
9.22 -0.86268
9.23 -0.807783
9.24 -0.748131
9.25 -0.683747
9.26 -0.616191
9.27 -0.546366
9.28 -0.475765
9.29 -0.405801
9.3 -0.338394
9.31 -0.274752
9.32 -0.216989
9.33 -0.166249
9.34 -0.123758
9.35 -0.091198
9.36 -0.0681464
9.37 -0.0565753
9.38 -0.0550278
9.39 -0.0638741
9.4 -0.0822479
9.41 -0.108568
9.42 -0.142313
9.43 -0.180911
9.44 -0.223141
9.45 -0.266826
9.46 -0.310274
9.47 -0.351562
9.48 -0.389556
9.49 -0.422339
9.5 -0.449664
9.51 -0.470612
9.52 -0.485039
9.53 -0.493546
9.54 -0.495984
9.55 -0.494023
9.56 -0.488258
9.57 -0.480284
9.58 -0.471355
9.59 -0.462919
9.6 -0.456063
9.61 -0.45226
9.62 -0.451986
9.63 -0.45607
9.64 -0.464823
9.65 -0.477962
9.66 -0.495781
9.67 -0.517158
9.68 -0.541835
9.69 -0.568748
9.7 -0.597108
9.71 -0.626071
9.72 -0.654877
9.73 -0.682792
9.74 -0.709451
9.75 -0.734463
9.76 -0.757666
9.77 -0.779141
9.78 -0.79869
9.79 -0.816603
9.8 -0.832612
9.81 -0.846593
9.82 -0.85808
9.83 -0.865979
9.84 -0.869572
9.85 -0.866323
9.86 -0.854996
9.87 -0.832607
9.88 -0.796138
9.89 -0.74375
9.9 -0.669684
9.91 -0.574013
9.92 -0.451146
9.93 -0.300417
9.94 -0.120168
9.95 0.0925448
9.96 0.334103
9.97 0.607918
9.98 0.907655
9.99 1.23184
10 1.57544
10.01 1.93213
10.02 2.29624
10.03 2.65981
10.04 3.01483
10.05 3.35356
10.06 3.6687
10.07 3.95038
10.08 4.19613
10.09 4.39368
10.1 4.54441
10.11 4.6418
10.12 4.68401
10.13 4.67436
10.14 4.60716
10.15 4.49304
10.16 4.33035
10.17 4.12786
10.18 3.89129
10.19 3.62616
10.2 3.34227
10.21 3.04483
10.22 2.74279
10.23 2.44232
10.24 2.15007
10.25 1.87022
10.26 1.60936
10.27 1.36788
10.28 1.15029
10.29 0.956051
10.3 0.785127
10.31 0.638005
10.32 0.510501
10.33 0.403228
10.34 0.310968
10.35 0.23198
10.36 0.163037
10.37 0.100926
10.38 0.0436182
10.39 -0.0116935
10.4 -0.0666219
10.41 -0.122612
10.42 -0.180487
10.43 -0.24086
10.44 -0.303481
10.45 -0.368357
10.46 -0.434614
10.47 -0.501595
10.48 -0.568329
10.49 -0.633995
10.5 -0.697407
10.51 -0.758088
10.52 -0.814966
10.53 -0.867676
10.54 -0.915808
10.55 -0.958706
10.56 -0.996776
10.57 -1.02913
10.58 -1.05643
10.59 -1.07833
10.6 -1.09486
10.61 -1.10639
10.62 -1.11224
10.63 -1.1132
10.64 -1.10866
10.65 -1.09902
10.66 -1.08431
10.67 -1.06434
10.68 -1.03987
10.69 -1.01052
10.7 -0.977347
10.71 -0.940623
10.72 -0.901124
10.73 -0.859786
10.74 -0.817443
10.75 -0.775232
10.76 -0.73429
10.77 -0.695696
10.78 -0.66045
10.79 -0.629899
10.8 -0.604328
10.81 -0.585344
10.82 -0.572679
10.83 -0.56709
10.84 -0.5687
10.85 -0.576933
10.86 -0.592348
10.87 -0.613445
10.88 -0.640219
10.89 -0.671442
10.9 -0.706246
10.91 -0.743771
10.92 -0.782797
10.93 -0.822471
10.94 -0.861778
10.95 -0.899882
10.96 -0.935978
10.97 -0.969648
10.98 -1
10.99 -1.02719
11 -1.05061
11.01 -1.07044
11.02 -1.08675
11.03 -1.09949
11.04 -1.10933
11.05 -1.1162
11.06 -1.12088
11.07 -1.12369
11.08 -1.12516
11.09 -1.12583
11.1 -1.12614
11.11 -1.12655
11.12 -1.12743
11.13 -1.12901
11.14 -1.13139
11.15 -1.13459
11.16 -1.13827
11.17 -1.14203
11.18 -1.14516
11.19 -1.14671
11.2 -1.1454
11.21 -1.14017
11.22 -1.12862
11.23 -1.10994
11.24 -1.08135
11.25 -1.04145
11.26 -0.988563
11.27 -0.91985
11.28 -0.835735
11.29 -0.732489
11.3 -0.611716
11.31 -0.47203
11.32 -0.313801
11.33 -0.139174
11.34 0.0522904
11.35 0.256023
11.36 0.470528
11.37 0.691452
11.38 0.915079
11.39 1.13672
11.4 1.35241
11.41 1.55605
11.42 1.7445
11.43 1.9126
11.44 2.05606
11.45 2.17358
11.46 2.25842
11.47 2.3134
11.48 2.33388
11.49 2.32194
11.5 2.27848
11.51 2.20321
11.52 2.10202
11.53 1.97434
11.54 1.82716
11.55 1.66317
11.56 1.48712
11.57 1.30382
11.58 1.11721
11.59 0.931655
11.6 0.751006
11.61 0.578267
11.62 0.415767
11.63 0.266346
11.64 0.129643
11.65 0.00829149
11.66 -0.0996293
11.67 -0.193819
11.68 -0.275398
11.69 -0.346499
11.7 -0.407501
11.71 -0.461501
11.72 -0.509423
11.73 -0.55336
11.74 -0.594657
11.75 -0.634429
11.76 -0.673605
11.77 -0.712603
11.78 -0.751526
11.79 -0.790094
11.8 -0.827631
11.81 -0.863391
11.82 -0.895802
11.83 -0.924066
11.84 -0.94623
11.85 -0.961147
11.86 -0.967554
11.87 -0.963411
11.88 -0.9489
11.89 -0.921411
11.9 -0.881897
11.91 -0.829283
11.92 -0.763549
11.93 -0.685927
11.94 -0.595494
11.95 -0.495033
11.96 -0.384677
11.97 -0.266724
11.98 -0.142936
11.99 -0.0152245
12 0.113924
12.01 0.242142
12.02 0.367124
12.03 0.486365
12.04 0.597323
12.05 0.698621
12.06 0.7866
12.07 0.861492
12.08 0.920291
12.09 0.962892
12.1 0.988805
12.11 0.996624
12.12 0.988636
12.13 0.963118
12.14 0.923295
12.15 0.869681
12.16 0.804206
12.17 0.729569
12.18 0.647026
12.19 0.559941
12.2 0.470142
12.21 0.380148
12.22 0.291864
12.23 0.207421
12.24 0.127717
12.25 0.0546843
12.26 -0.0118073
12.27 -0.0711086
12.28 -0.123362
12.29 -0.169535
12.3 -0.209701
12.31 -0.245735
12.32 -0.278378
12.33 -0.30917
12.34 -0.339261
12.35 -0.369824
12.36 -0.401605
12.37 -0.435432
