# xPDFsuite Configuration #
[PDF]
wavelength = 0.1432
dataformat = twotheta
inputfile = 1_1Pd_CeO2_cycle-00221.chi
backgroundfile = background-00000.chi
mode = xray
bgscale = 1.007
composition = CeO2
outputtype = gr
qmaxinst = 28.8974762299
qmin = 0.5
qmax = 27.9
rmax = 50.0
rmin = 0.0
rstep = 0.01
rpoly = 1.8657

[Misc]
inputdir = G:/SankarDec16/1Pd/Chi
savedir = D:/DATA/APS_CeO2/1Pd
backgroundfilefull = G:/SankarDec16/Background/background-00000.chi

#### start data
#S 1
#L r($\AA$)  G($\AA^{-2}$)
0 0
0.01 -0.00795551
0.02 -0.0153128
0.03 -0.0214559
0.04 -0.0259205
0.05 -0.0284481
0.06 -0.0286227
0.07 -0.0267202
0.08 -0.0226056
0.09 -0.0168058
0.1 -0.00968456
0.11 -0.00179974
0.12 0.00623897
0.13 0.0137489
0.14 0.0202437
0.15 0.0251296
0.16 0.0280572
0.17 0.0288853
0.18 0.027328
0.19 0.0237894
0.2 0.0182818
0.21 0.0114189
0.22 0.00365298
0.23 -0.00438979
0.24 -0.0121343
0.25 -0.0188448
0.26 -0.0241692
0.27 -0.0275637
0.28 -0.0288095
0.29 -0.0278899
0.3 -0.0246624
0.31 -0.0196412
0.32 -0.0129855
0.33 -0.00536773
0.34 0.00269186
0.35 0.0105273
0.36 0.0176247
0.37 0.0232293
0.38 0.0271395
0.39 0.0288868
0.4 0.0283938
0.41 0.0257693
0.42 0.0210213
0.43 0.0147509
0.44 0.00725707
0.45 -0.000759063
0.46 -0.00873381
0.47 -0.0159913
0.48 -0.0221034
0.49 -0.0263309
0.5 -0.0286327
0.51 -0.0286379
0.52 -0.0264141
0.53 -0.0221918
0.54 -0.0161299
0.55 -0.0088889
0.56 -0.000894451
0.57 0.00715567
0.58 0.0146804
0.59 0.0210249
0.6 0.0258671
0.61 0.0285179
0.62 0.0290992
0.63 0.0273555
0.64 0.0234977
0.65 0.0178674
0.66 0.0107684
0.67 0.00289052
0.68 -0.00523316
0.69 -0.0129401
0.7 -0.0196589
0.71 -0.0247857
0.72 -0.0281202
0.73 -0.0290553
0.74 -0.0278709
0.75 -0.0244391
0.76 -0.0191042
0.77 -0.0123035
0.78 -0.0044711
0.79 0.00370632
0.8 0.0116143
0.81 0.0186569
0.82 0.0243008
0.83 0.0280228
0.84 0.0297544
0.85 0.0290017
0.86 0.0261889
0.87 0.0213222
0.88 0.014863
0.89 0.00732074
0.9 -0.000762767
0.91 -0.00874172
0.92 -0.0159566
0.93 -0.0219136
0.94 -0.0261531
0.95 -0.028271
0.96 -0.0283418
0.97 -0.0260327
0.98 -0.0218954
0.99 -0.0160922
1 -0.00919057
1.01 -0.00175465
1.02 0.00556962
1.03 0.0122208
1.04 0.0175081
1.05 0.021082
1.06 0.0225858
1.07 0.0217707
1.08 0.0188838
1.09 0.0137972
1.1 0.00721127
1.11 -0.000514074
1.12 -0.00867351
1.13 -0.016624
1.14 -0.0235533
1.15 -0.0289814
1.16 -0.0321068
1.17 -0.0327099
1.18 -0.0304851
1.19 -0.0252744
1.2 -0.0175068
1.21 -0.0071352
1.22 0.00493263
1.23 0.01821
1.24 0.0318373
1.25 0.0450552
1.26 0.0568973
1.27 0.0668336
1.28 0.0739136
1.29 0.0778898
1.3 0.0783776
1.31 0.0751256
1.32 0.0685854
1.33 0.0585124
1.34 0.0458907
1.35 0.0310583
1.36 0.0148361
1.37 -0.0020302
1.38 -0.0187406
1.39 -0.0346368
1.4 -0.0489242
1.41 -0.0612077
1.42 -0.0710655
1.43 -0.0781482
1.44 -0.0826567
1.45 -0.0842097
1.46 -0.0834292
1.47 -0.0803577
1.48 -0.0754335
1.49 -0.0690748
1.5 -0.0615593
1.51 -0.053365
1.52 -0.0447182
1.53 -0.0359048
1.54 -0.0270781
1.55 -0.0183496
1.56 -0.00974966
1.57 -0.0013063
1.58 0.00701712
1.59 0.0152174
1.6 0.0232784
1.61 0.0311484
1.62 0.0386678
1.63 0.0457065
1.64 0.0519329
1.65 0.0571103
1.66 0.0608957
1.67 0.0628613
1.68 0.0629061
1.69 0.060394
1.7 0.0555306
1.71 0.0480195
1.72 0.0380073
1.73 0.0257815
1.74 0.011499
1.75 -0.00412732
1.76 -0.0206622
1.77 -0.0373426
1.78 -0.0535183
1.79 -0.0684158
1.8 -0.0816069
1.81 -0.0922
1.82 -0.100215
1.83 -0.105206
1.84 -0.107257
1.85 -0.106666
1.86 -0.103585
1.87 -0.0988508
1.88 -0.092955
1.89 -0.0867823
1.9 -0.0810585
1.91 -0.0766194
1.92 -0.0739109
1.93 -0.0737981
1.94 -0.0761868
1.95 -0.0813871
1.96 -0.0891347
1.97 -0.0989523
1.98 -0.110348
1.99 -0.122355
2 -0.134053
2.01 -0.144417
2.02 -0.152447
2.03 -0.156989
2.04 -0.157646
2.05 -0.152997
2.06 -0.143408
2.07 -0.12823
2.08 -0.107712
2.09 -0.082381
2.1 -0.0523474
2.11 -0.0189076
2.12 0.0175031
2.13 0.0556836
2.14 0.0948392
2.15 0.134106
2.16 0.172864
2.17 0.21045
2.18 0.246744
2.19 0.281541
2.2 0.315
2.21 0.347425
2.22 0.379141
2.23 0.410648
2.24 0.442355
2.25 0.474569
2.26 0.507446
2.27 0.540932
2.28 0.574667
2.29 0.607982
2.3 0.640039
2.31 0.669572
2.32 0.695183
2.33 0.715677
2.34 0.728758
2.35 0.734018
2.36 0.729035
2.37 0.713694
2.38 0.687154
2.39 0.648794
2.4 0.600101
2.41 0.540265
2.42 0.47226
2.43 0.397072
2.44 0.317238
2.45 0.235184
2.46 0.153608
2.47 0.0748751
2.48 0.00195054
2.49 -0.0634628
2.5 -0.119547
2.51 -0.164576
2.52 -0.19909
2.53 -0.221241
2.54 -0.233416
2.55 -0.235783
2.56 -0.230346
2.57 -0.219254
2.58 -0.204414
2.59 -0.188484
2.6 -0.173681
2.61 -0.161993
2.62 -0.155067
2.63 -0.154447
2.64 -0.16012
2.65 -0.173333
2.66 -0.192574
2.67 -0.217521
2.68 -0.246595
2.69 -0.278129
2.7 -0.310342
2.71 -0.341421
2.72 -0.369402
2.73 -0.393051
2.74 -0.411241
2.75 -0.423044
2.76 -0.428982
2.77 -0.428475
2.78 -0.423311
2.79 -0.414291
2.8 -0.403203
2.81 -0.391735
2.82 -0.38188
2.83 -0.375008
2.84 -0.373035
2.85 -0.376624
2.86 -0.38646
2.87 -0.402873
2.88 -0.424776
2.89 -0.45198
2.9 -0.482288
2.91 -0.514239
2.92 -0.545642
2.93 -0.574642
2.94 -0.598736
2.95 -0.616959
2.96 -0.627132
2.97 -0.629132
2.98 -0.622574
2.99 -0.607557
3 -0.585841
3.01 -0.558057
3.02 -0.527062
3.03 -0.494809
3.04 -0.463946
3.05 -0.436594
3.06 -0.415619
3.07 -0.401869
3.08 -0.397643
3.09 -0.402757
3.1 -0.417358
3.11 -0.440999
3.12 -0.471508
3.13 -0.507835
3.14 -0.546811
3.15 -0.586159
3.16 -0.623069
3.17 -0.655432
3.18 -0.68039
3.19 -0.69748
3.2 -0.70475
3.21 -0.702967
3.22 -0.692593
3.23 -0.67488
3.24 -0.652464
3.25 -0.627531
3.26 -0.60335
3.27 -0.582951
3.28 -0.569335
3.29 -0.564471
3.3 -0.571504
3.31 -0.589931
3.32 -0.621518
3.33 -0.664357
3.34 -0.717103
3.35 -0.777349
3.36 -0.84142
3.37 -0.905703
3.38 -0.966247
3.39 -1.0189
3.4 -1.06007
3.41 -1.08764
3.42 -1.09784
3.43 -1.09211
3.44 -1.06864
3.45 -1.03058
3.46 -0.980203
3.47 -0.92114
3.48 -0.858329
3.49 -0.796801
3.5 -0.741358
3.51 -0.697158
3.52 -0.668185
3.53 -0.656319
3.54 -0.665038
3.55 -0.691275
3.56 -0.734979
3.57 -0.790279
3.58 -0.851717
3.59 -0.911023
3.6 -0.960383
3.61 -0.986898
3.62 -0.983813
3.63 -0.938765
3.64 -0.843082
3.65 -0.692275
3.66 -0.473861
3.67 -0.193949
3.68 0.155803
3.69 0.566307
3.7 1.03304
3.71 1.54824
3.72 2.09625
3.73 2.6664
3.74 3.23964
3.75 3.79953
3.76 4.32759
3.77 4.80979
3.78 5.22285
3.79 5.56274
3.8 5.8077
3.81 5.95724
3.82 6.00492
3.83 5.94502
3.84 5.79087
3.85 5.53335
3.86 5.19647
3.87 4.78474
3.88 4.31514
3.89 3.80463
3.9 3.26728
3.91 2.72216
3.92 2.18483
3.93 1.66959
3.94 1.18868
3.95 0.754957
3.96 0.370374
3.97 0.0487605
3.98 -0.216908
3.99 -0.422204
4 -0.571748
4.01 -0.672763
4.02 -0.727227
4.03 -0.748554
4.04 -0.741025
4.05 -0.715731
4.06 -0.679808
4.07 -0.640758
4.08 -0.604364
4.09 -0.576476
4.1 -0.559114
4.11 -0.554957
4.12 -0.564121
4.13 -0.585172
4.14 -0.617275
4.15 -0.656386
4.16 -0.700013
4.17 -0.744157
4.18 -0.785579
4.19 -0.82062
4.2 -0.847501
4.21 -0.862432
4.22 -0.865713
4.23 -0.855617
4.24 -0.832414
4.25 -0.797265
4.26 -0.750031
4.27 -0.693686
4.28 -0.628781
4.29 -0.557866
4.3 -0.482445
4.31 -0.404067
4.32 -0.324254
4.33 -0.244005
4.34 -0.164182
4.35 -0.0853686
4.36 -0.00793114
4.37 0.0679909
4.38 0.142025
4.39 0.214233
4.4 0.28406
4.41 0.351231
4.42 0.415086
4.43 0.474522
4.44 0.529056
4.45 0.57649
4.46 0.616539
4.47 0.647265
4.48 0.667539
4.49 0.676911
4.5 0.67321
4.51 0.657744
4.52 0.628904
4.53 0.588206
4.54 0.536218
4.55 0.473811
4.56 0.40352
4.57 0.326181
4.58 0.244872
4.59 0.161373
4.6 0.0780539
4.61 -0.00325738
4.62 -0.0802943
4.63 -0.152248
4.64 -0.21732
4.65 -0.275403
4.66 -0.326161
4.67 -0.369451
4.68 -0.406528
4.69 -0.437271
4.7 -0.463588
4.71 -0.486187
4.72 -0.506372
4.73 -0.525232
4.74 -0.543649
4.75 -0.562334
4.76 -0.581778
4.77 -0.602086
4.78 -0.623173
4.79 -0.644697
4.8 -0.666137
4.81 -0.686735
4.82 -0.705899
4.83 -0.722828
4.84 -0.736911
4.85 -0.74787
4.86 -0.755034
4.87 -0.758866
4.88 -0.759125
4.89 -0.756532
4.9 -0.751607
4.91 -0.745077
4.92 -0.737867
4.93 -0.730859
4.94 -0.724856
4.95 -0.720673
4.96 -0.718925
4.97 -0.719873
4.98 -0.724088
4.99 -0.731146
5 -0.74123
5.01 -0.753726
5.02 -0.768223
5.03 -0.784194
5.04 -0.800949
5.05 -0.817969
5.06 -0.834704
5.07 -0.850715
5.08 -0.865667
5.09 -0.879412
5.1 -0.891655
5.11 -0.90252
5.12 -0.911749
5.13 -0.919354
5.14 -0.92511
5.15 -0.92852
5.16 -0.92933
5.17 -0.926217
5.18 -0.91872
5.19 -0.905257
5.2 -0.884422
5.21 -0.855216
5.22 -0.814884
5.23 -0.763525
5.24 -0.698362
5.25 -0.619526
5.26 -0.526321
5.27 -0.418077
5.28 -0.296945
5.29 -0.162248
5.3 -0.0178675
5.31 0.134426
5.32 0.290949
5.33 0.448054
5.34 0.601071
5.35 0.746418
5.36 0.878506
5.37 0.994042
5.38 1.0892
5.39 1.15938
5.4 1.20494
5.41 1.21991
5.42 1.20786
5.43 1.16679
5.44 1.09864
5.45 1.00686
5.46 0.892124
5.47 0.761097
5.48 0.616125
5.49 0.463114
5.5 0.306344
5.51 0.150722
5.52 -4.64824e-05
5.53 -0.140905
5.54 -0.270157
5.55 -0.384537
5.56 -0.482645
5.57 -0.564661
5.58 -0.6287
5.59 -0.677867
5.6 -0.71159
5.61 -0.732922
5.62 -0.743581
5.63 -0.745411
5.64 -0.74122
5.65 -0.732139
5.66 -0.720404
5.67 -0.706927
5.68 -0.69253
5.69 -0.677523
5.7 -0.661681
5.71 -0.644648
5.72 -0.625476
5.73 -0.603388
5.74 -0.577464
5.75 -0.546573
5.76 -0.51067
5.77 -0.468548
5.78 -0.421128
5.79 -0.368435
5.8 -0.31155
5.81 -0.251892
5.82 -0.191034
5.83 -0.130975
5.84 -0.0740082
5.85 -0.0221028
5.86 0.0227676
5.87 0.0582286
5.88 0.0839375
5.89 0.0970635
5.9 0.0987665
5.91 0.0880285
5.92 0.0655465
5.93 0.0327895
5.94 -0.00994688
5.95 -0.059728
5.96 -0.115487
5.97 -0.174671
5.98 -0.235471
5.99 -0.29592
6 -0.354612
6.01 -0.409814
6.02 -0.461117
6.03 -0.507723
6.04 -0.549606
6.05 -0.587258
6.06 -0.620812
6.07 -0.651564
6.08 -0.680101
6.09 -0.707568
6.1 -0.734756
6.11 -0.762425
6.12 -0.790942
6.13 -0.820652
6.14 -0.851268
6.15 -0.882458
6.16 -0.91349
6.17 -0.943593
6.18 -0.971543
6.19 -0.996691
6.2 -1.01773
6.21 -1.03423
6.22 -1.04569
6.23 -1.05171
6.24 -1.05306
6.25 -1.0496
6.26 -1.04291
6.27 -1.03383
6.28 -1.02383
6.29 -1.01418
6.3 -1.00633
6.31 -1.00093
6.32 -0.998853
6.33 -0.999813
6.34 -1.00318
6.35 -1.00745
6.36 -1.01052
6.37 -1.00878
6.38 -0.999204
6.39 -0.976979
6.4 -0.937266
6.41 -0.876653
6.42 -0.787167
6.43 -0.668573
6.44 -0.513236
6.45 -0.321128
6.46 -0.0903281
6.47 0.181405
6.48 0.488505
6.49 0.833493
6.5 1.20662
6.51 1.6042
6.52 2.01767
6.53 2.43819
6.54 2.85555
6.55 3.26043
6.56 3.64028
6.57 3.98636
6.58 4.28924
6.59 4.53703
6.6 4.72904
6.61 4.8497
6.62 4.905
6.63 4.88797
6.64 4.80016
6.65 4.64774
6.66 4.42789
6.67 4.15573
6.68 3.8327
6.69 3.47217
6.7 3.08303
6.71 2.67534
6.72 2.26053
6.73 1.84883
6.74 1.44917
6.75 1.07071
6.76 0.720862
6.77 0.403217
6.78 0.126524
6.79 -0.112347
6.8 -0.307501
6.81 -0.462796
6.82 -0.579491
6.83 -0.658761
6.84 -0.70802
6.85 -0.727238
6.86 -0.725175
6.87 -0.704773
6.88 -0.671343
6.89 -0.629562
6.9 -0.582826
6.91 -0.534927
6.92 -0.488459
6.93 -0.445371
6.94 -0.406949
6.95 -0.374295
6.96 -0.34704
6.97 -0.32596
6.98 -0.309857
6.99 -0.298637
7 -0.291646
7.01 -0.288201
7.02 -0.288328
7.03 -0.291354
7.04 -0.29764
7.05 -0.307107
7.06 -0.320066
7.07 -0.33714
7.08 -0.358257
7.09 -0.384493
7.1 -0.415404
7.11 -0.451425
7.12 -0.492308
7.13 -0.537393
7.14 -0.58641
7.15 -0.637913
7.16 -0.690998
7.17 -0.744144
7.18 -0.796012
7.19 -0.844931
7.2 -0.889993
7.21 -0.929235
7.22 -0.962515
7.23 -0.988769
7.24 -1.00782
7.25 -1.02018
7.26 -1.02561
7.27 -1.02584
7.28 -1.02138
7.29 -1.01397
7.3 -1.00492
7.31 -0.995712
7.32 -0.987535
7.33 -0.981739
7.34 -0.978716
7.35 -0.978965
7.36 -0.982254
7.37 -0.987799
7.38 -0.994551
7.39 -1.00079
7.4 -1.00437
7.41 -1.00309
7.42 -0.994592
7.43 -0.975715
7.44 -0.945443
7.45 -0.899552
7.46 -0.838456
7.47 -0.759849
7.48 -0.663388
7.49 -0.550276
7.5 -0.419463
7.51 -0.274956
7.52 -0.117466
7.53 0.0489047
7.54 0.220942
7.55 0.394601
7.56 0.56596
7.57 0.729903
7.58 0.883305
7.59 1.0216
7.6 1.1412
7.61 1.24057
7.62 1.3145
7.63 1.36496
7.64 1.38813
7.65 1.38597
7.66 1.35895
7.67 1.30721
7.68 1.23528
7.69 1.14268
7.7 1.03512
7.71 0.914568
7.72 0.784883
7.73 0.649746
7.74 0.512391
7.75 0.376244
7.76 0.244625
7.77 0.120071
7.78 0.00487543
7.79 -0.0981883
7.8 -0.18899
7.81 -0.264201
7.82 -0.325132
7.83 -0.370338
7.84 -0.400034
7.85 -0.415502
7.86 -0.415787
7.87 -0.40399
7.88 -0.379988
7.89 -0.346375
7.9 -0.304801
7.91 -0.257072
7.92 -0.205809
7.93 -0.152945
7.94 -0.100954
7.95 -0.0520629
7.96 -0.00854409
7.97 0.028145
7.98 0.0551482
7.99 0.072431
8 0.0776456
8.01 0.0709737
8.02 0.0521145
8.03 0.0206107
8.04 -0.0215616
8.05 -0.0749212
8.06 -0.136522
8.07 -0.205266
8.08 -0.278897
8.09 -0.355176
8.1 -0.431944
8.11 -0.507129
8.12 -0.57854
8.13 -0.644741
8.14 -0.70451
8.15 -0.756527
8.16 -0.801279
8.17 -0.837663
8.18 -0.867291
8.19 -0.890508
8.2 -0.908651
8.21 -0.923252
8.22 -0.935471
8.23 -0.946896
8.24 -0.958567
8.25 -0.97124
8.26 -0.985172
8.27 -1.00011
8.28 -1.01512
8.29 -1.02847
8.3 -1.0382
8.31 -1.0414
8.32 -1.03471
8.33 -1.0156
8.34 -0.978399
8.35 -0.92229
8.36 -0.841614
8.37 -0.73539
8.38 -0.601697
8.39 -0.437812
8.4 -0.247074
8.41 -0.0264545
8.42 0.217735
8.43 0.483809
8.44 0.766488
8.45 1.05964
8.46 1.35721
8.47 1.65183
8.48 1.93547
8.49 2.2011
8.5 2.44192
8.51 2.64898
8.52 2.82065
8.53 2.94577
8.54 3.02683
8.55 3.05837
8.56 3.04001
8.57 2.97545
8.58 2.86114
8.59 2.70732
8.6 2.51389
8.61 2.28967
8.62 2.04056
8.63 1.77286
8.64 1.49513
8.65 1.21369
8.66 0.93581
8.67 0.667749
8.68 0.415332
8.69 0.181692
8.7 -0.026709
8.71 -0.211067
8.72 -0.367022
8.73 -0.496353
8.74 -0.599639
8.75 -0.677122
8.76 -0.733737
8.77 -0.769304
8.78 -0.78978
8.79 -0.797329
8.8 -0.795755
8.81 -0.788577
8.82 -0.77849
8.83 -0.768386
8.84 -0.760481
8.85 -0.756344
8.86 -0.757042
8.87 -0.763559
8.88 -0.775397
8.89 -0.793122
8.9 -0.815368
8.91 -0.841641
8.92 -0.870799
8.93 -0.901664
8.94 -0.933193
8.95 -0.9643
8.96 -0.993994
8.97 -1.02159
8.98 -1.04657
8.99 -1.06839
9 -1.08726
9.01 -1.10274
9.02 -1.11543
9.03 -1.12542
9.04 -1.1331
9.05 -1.13895
9.06 -1.14309
9.07 -1.14602
9.08 -1.14774
9.09 -1.14834
9.1 -1.1477
9.11 -1.14542
9.12 -1.14128
9.13 -1.13435
9.14 -1.12432
9.15 -1.11026
9.16 -1.09138
9.17 -1.06735
9.18 -1.03678
9.19 -1.00012
9.2 -0.956318
9.21 -0.90582
9.22 -0.848803
9.23 -0.785424
9.24 -0.717098
9.25 -0.644222
9.26 -0.568714
9.27 -0.491878
9.28 -0.415586
9.29 -0.341445
9.3 -0.27186
9.31 -0.207924
9.32 -0.152067
9.33 -0.105268
9.34 -0.0686581
9.35 -0.0438145
9.36 -0.0298561
9.37 -0.0285833
9.38 -0.0379788
9.39 -0.0580355
9.4 -0.0873958
9.41 -0.124093
9.42 -0.167054
9.43 -0.213518
9.44 -0.261792
9.45 -0.309595
9.46 -0.355113
9.47 -0.396253
9.48 -0.432178
9.49 -0.460826
9.5 -0.482442
9.51 -0.496275
9.52 -0.502564
9.53 -0.502322
9.54 -0.495767
9.55 -0.48498
9.56 -0.470957
9.57 -0.455601
9.58 -0.440429
9.59 -0.427199
9.6 -0.416968
9.61 -0.411512
9.62 -0.411081
9.63 -0.416535
9.64 -0.428026
9.65 -0.445013
9.66 -0.467679
9.67 -0.494524
9.68 -0.525104
9.69 -0.55807
9.7 -0.592425
9.71 -0.627111
9.72 -0.661272
9.73 -0.694016
9.74 -0.725008
9.75 -0.753841
9.76 -0.780421
9.77 -0.80495
9.78 -0.827327
9.79 -0.848001
9.8 -0.866828
9.81 -0.883787
9.82 -0.898474
9.83 -0.909823
9.84 -0.917045
9.85 -0.917499
9.86 -0.909747
9.87 -0.890545
9.88 -0.85653
9.89 -0.805583
9.9 -0.731357
9.91 -0.633767
9.92 -0.506618
9.93 -0.349056
9.94 -0.159183
9.95 0.0662989
9.96 0.323457
9.97 0.616043
9.98 0.937071
9.99 1.28486
10 1.65377
10.01 2.03675
10.02 2.42735
10.03 2.81674
10.04 3.19586
10.05 3.5561
10.06 3.88929
10.07 4.18439
10.08 4.43879
10.09 4.63879
10.1 4.78616
10.11 4.87381
10.12 4.89997
10.13 4.86861
10.14 4.77388
10.15 4.62789
10.16 4.42942
10.17 4.1886
10.18 3.91227
10.19 3.60723
10.2 3.28445
10.21 2.95065
10.22 2.61556
10.23 2.28655
10.24 1.97107
10.25 1.6735
10.26 1.40155
10.27 1.15477
10.28 0.938243
10.29 0.750583
10.3 0.591207
10.31 0.460058
10.32 0.351634
10.33 0.265941
10.34 0.19641
10.35 0.140398
10.36 0.0936285
10.37 0.052165
10.38 0.0129368
10.39 -0.0270443
10.4 -0.0701196
10.41 -0.117707
10.42 -0.17063
10.43 -0.22954
10.44 -0.293502
10.45 -0.362467
10.46 -0.434671
10.47 -0.508999
10.48 -0.583798
10.49 -0.657645
10.5 -0.728723
10.51 -0.796153
10.52 -0.858345
10.53 -0.914729
10.54 -0.964739
10.55 -1.00754
10.56 -1.04383
10.57 -1.0726
10.58 -1.095
10.59 -1.11087
10.6 -1.1206
10.61 -1.12493
10.62 -1.1235
10.63 -1.11742
10.64 -1.10636
10.65 -1.09089
10.66 -1.07119
10.67 -1.04718
10.68 -1.01955
10.69 -0.987988
10.7 -0.953339
10.71 -0.915816
10.72 -0.876041
10.73 -0.834786
10.74 -0.792785
10.75 -0.751032
10.76 -0.710598
10.77 -0.672513
10.78 -0.63777
10.79 -0.607752
10.8 -0.58279
10.81 -0.564597
10.82 -0.552977
10.83 -0.548797
10.84 -0.552269
10.85 -0.562845
10.86 -0.581185
10.87 -0.605703
10.88 -0.636401
10.89 -0.67192
10.9 -0.711264
10.91 -0.753397
10.92 -0.796909
10.93 -0.840687
10.94 -0.883541
10.95 -0.924394
10.96 -0.962239
10.97 -0.996591
10.98 -1.02629
10.99 -1.05163
11 -1.0719
11.01 -1.08743
11.02 -1.09844
11.03 -1.10505
11.04 -1.10825
11.05 -1.10822
11.06 -1.10612
11.07 -1.10259
11.08 -1.09851
11.09 -1.09466
11.1 -1.09192
11.11 -1.09075
11.12 -1.09184
11.13 -1.0954
11.14 -1.10151
11.15 -1.11019
11.16 -1.12078
11.17 -1.13277
11.18 -1.14499
11.19 -1.15618
11.2 -1.1646
11.21 -1.16878
11.22 -1.16576
11.23 -1.15443
11.24 -1.13144
11.25 -1.09513
11.26 -1.04354
11.27 -0.973429
11.28 -0.885411
11.29 -0.775319
11.3 -0.645188
11.31 -0.493631
11.32 -0.321308
11.33 -0.130843
11.34 0.0779421
11.35 0.299782
11.36 0.532705
11.37 0.771718
11.38 1.01255
11.39 1.24979
11.4 1.47916
11.41 1.6937
11.42 1.89019
11.43 2.06296
11.44 2.20747
11.45 2.32257
11.46 2.40104
11.47 2.44639
11.48 2.45383
11.49 2.42605
11.5 2.36436
11.51 2.26893
11.52 2.14639
11.53 1.9967
11.54 1.82759
11.55 1.64234
11.56 1.44637
11.57 1.24486
11.58 1.04253
11.59 0.843714
11.6 0.652841
11.61 0.472855
11.62 0.306083
11.63 0.155461
11.64 0.0200896
11.65 -0.0973345
11.66 -0.19943
11.67 -0.286191
11.68 -0.359248
11.69 -0.42124
11.7 -0.473002
11.71 -0.518064
11.72 -0.557776
11.73 -0.594512
11.74 -0.629828
11.75 -0.665083
11.76 -0.701084
11.77 -0.738419
11.78 -0.776882
11.79 -0.816086
11.8 -0.855082
11.81 -0.8928
11.82 -0.927378
11.83 -0.957678
11.84 -0.981413
11.85 -0.997171
11.86 -1.00347
11.87 -0.997999
11.88 -0.980965
11.89 -0.949512
11.9 -0.904778
11.91 -0.845681
11.92 -0.772346
11.93 -0.686249
11.94 -0.5866
11.95 -0.47653
11.96 -0.356398
11.97 -0.228801
11.98 -0.0957487
11.99 0.04054
12 0.177449
12.01 0.312268
12.02 0.442669
12.03 0.565953
12.04 0.679481
12.05 0.781939
12.06 0.869449
12.07 0.942496
12.08 0.997961
12.09 1.03591
12.1 1.05596
12.11 1.05676
12.12 1.04086
12.13 1.00658
12.14 0.95743
12.15 0.894072
12.16 0.818659
12.17 0.734095
12.18 0.641891
12.19 0.545584
12.2 0.447273
12.21 0.349646
12.22 0.254772
12.23 0.165032
12.24 0.0812864
12.25 0.00575103
12.26 -0.0618608
12.27 -0.120836
12.28 -0.171402
12.29 -0.214746
12.3 -0.250996
12.31 -0.282411
12.32 -0.309933
12.33 -0.33545
12.34 -0.360407
12.35 -0.38634
12.36 -0.414202
12.37 -0.445211
12.38 -0.479421
12.39 -0.517015
12.4 -0.557485
12.41 -0.599794
