# xPDFsuite Configuration #
[PDF]
wavelength = 0.1432
dataformat = twotheta
inputfile = 1_1Pd_CeO2_cycle-00187.chi
backgroundfile = background-00000.chi
mode = xray
bgscale = 1.007
composition = CeO2
outputtype = gr
qmaxinst = 28.8974762299
qmin = 0.5
qmax = 27.9
rmax = 50.0
rmin = 0.0
rstep = 0.01
rpoly = 1.8657

[Misc]
inputdir = G:/SankarDec16/1Pd/Chi
savedir = D:/DATA/APS_CeO2/1Pd
backgroundfilefull = G:/SankarDec16/Background/background-00000.chi

#### start data
#S 1
#L r($\AA$)  G($\AA^{-2}$)
0 0
0.01 -0.00711999
0.02 -0.0137035
0.03 -0.0191983
0.04 -0.0231882
0.05 -0.0254419
0.06 -0.0255872
0.07 -0.023872
0.08 -0.0201767
0.09 -0.0149744
0.1 -0.00859255
0.11 -0.00153219
0.12 0.00566019
0.13 0.0123715
0.14 0.0181674
0.15 0.0225162
0.16 0.0251065
0.17 0.0258141
0.18 0.0243854
0.19 0.0211851
0.2 0.0162278
0.21 0.0100651
0.22 0.00310475
0.23 -0.00409046
0.24 -0.0110062
0.25 -0.0169818
0.26 -0.0217057
0.27 -0.0246923
0.28 -0.0257498
0.29 -0.0248675
0.3 -0.0219227
0.31 -0.0173798
0.32 -0.0113871
0.33 -0.00454897
0.34 0.0026659
0.35 0.00965941
0.36 0.015974
0.37 0.0209329
0.38 0.0243622
0.39 0.0258462
0.4 0.0253217
0.41 0.0228926
0.42 0.0185735
0.43 0.0129068
0.44 0.00616754
0.45 -0.00101508
0.46 -0.00813411
0.47 -0.0145841
0.48 -0.0199864
0.49 -0.0236807
0.5 -0.0256393
0.51 -0.0255365
0.52 -0.0234418
0.53 -0.0195689
0.54 -0.0140699
0.55 -0.00753972
0.56 -0.00036766
0.57 0.00682214
0.58 0.0135086
0.59 0.0191074
0.6 0.0233379
0.61 0.0255875
0.62 0.0259771
0.63 0.0242871
0.64 0.020717
0.65 0.0155809
0.66 0.00916232
0.67 0.00208023
0.68 -0.00517965
0.69 -0.0120277
0.7 -0.0179538
0.71 -0.0224225
0.72 -0.0252647
0.73 -0.0259453
0.74 -0.0247282
0.75 -0.0215106
0.76 -0.0166128
0.77 -0.0104343
0.78 -0.00337569
0.79 0.00394947
0.8 0.0109839
0.81 0.017201
0.82 0.0221274
0.83 0.0253033
0.84 0.0266801
0.85 0.0258272
0.86 0.0231379
0.87 0.0186311
0.88 0.0127305
0.89 0.0058985
0.9 -0.0013702
0.91 -0.00850263
0.92 -0.0149055
0.93 -0.0201482
0.94 -0.0238276
0.95 -0.0255951
0.96 -0.0255312
0.97 -0.0233546
0.98 -0.0195695
0.99 -0.0143346
1 -0.00816421
1.01 -0.00156407
1.02 0.00488532
1.03 0.0106953
1.04 0.0152562
1.05 0.0182761
1.06 0.0194557
1.07 0.0185986
1.08 0.0159438
1.09 0.0114129
1.1 0.00563839
1.11 -0.0010332
1.12 -0.00796524
1.13 -0.0145862
1.14 -0.0201649
1.15 -0.0243034
1.16 -0.0262972
1.17 -0.0259916
1.18 -0.0231487
1.19 -0.0176751
1.2 -0.00999196
1.21 -0.000124208
1.22 0.0110942
1.23 0.0231724
1.24 0.0353136
1.25 0.046827
1.26 0.0568059
1.27 0.0648145
1.28 0.0699781
1.29 0.0721266
1.3 0.0709427
1.31 0.0662451
1.32 0.0585032
1.33 0.0475511
1.34 0.0343415
1.35 0.0192454
1.36 0.00306577
1.37 -0.0134787
1.38 -0.0295849
1.39 -0.0446562
1.4 -0.057898
1.41 -0.0689644
1.42 -0.0774536
1.43 -0.0830374
1.44 -0.0859491
1.45 -0.0858137
1.46 -0.0832869
1.47 -0.0784273
1.48 -0.0717023
1.49 -0.0635587
1.5 -0.0543192
1.51 -0.0444959
1.52 -0.0343828
1.53 -0.0243098
1.54 -0.014492
1.55 -0.00511601
1.56 0.00377389
1.57 0.0120356
1.58 0.0197458
1.59 0.0268462
1.6 0.0333455
1.61 0.0392411
1.62 0.0443977
1.63 0.0488146
1.64 0.0522392
1.65 0.0545813
1.66 0.0556276
1.67 0.0551125
1.68 0.0530338
1.69 0.0489634
1.7 0.0431268
1.71 0.0353591
1.72 0.0258286
1.73 0.0147918
1.74 0.00243061
1.75 -0.010719
1.76 -0.0242807
1.77 -0.0377033
1.78 -0.050505
1.79 -0.0621302
1.8 -0.0723215
1.81 -0.0804555
1.82 -0.0866367
1.83 -0.0906112
1.84 -0.0925328
1.85 -0.0926938
1.86 -0.0913162
1.87 -0.0890397
1.88 -0.0863163
1.89 -0.0837793
1.9 -0.0819611
1.91 -0.0814409
1.92 -0.0824409
1.93 -0.0855137
1.94 -0.0904296
1.95 -0.0972625
1.96 -0.105641
1.97 -0.115072
1.98 -0.124963
1.99 -0.134562
2 -0.142976
2.01 -0.149468
2.02 -0.153254
2.03 -0.153474
2.04 -0.15
2.05 -0.141767
2.06 -0.129315
2.07 -0.11227
2.08 -0.0910193
2.09 -0.0661136
2.1 -0.0377894
2.11 -0.00709925
2.12 0.0255504
2.13 0.0592891
2.14 0.0935769
2.15 0.127896
2.16 0.161943
2.17 0.195484
2.18 0.228609
2.19 0.261452
2.2 0.294344
2.21 0.327629
2.22 0.361804
2.23 0.397082
2.24 0.433862
2.25 0.472057
2.26 0.511529
2.27 0.551815
2.28 0.592162
2.29 0.631385
2.3 0.668365
2.31 0.701404
2.32 0.728857
2.33 0.749441
2.34 0.760593
2.35 0.762211
2.36 0.75181
2.37 0.729712
2.38 0.695382
2.39 0.648637
2.4 0.591452
2.41 0.523563
2.42 0.448357
2.43 0.36733
2.44 0.283376
2.45 0.199097
2.46 0.117583
2.47 0.0409372
2.48 -0.0276978
2.49 -0.0870376
2.5 -0.13553
2.51 -0.171857
2.52 -0.197111
2.53 -0.209955
2.54 -0.213318
2.55 -0.207918
2.56 -0.19623
2.57 -0.18068
2.58 -0.163689
2.59 -0.147756
2.6 -0.135413
2.61 -0.128314
2.62 -0.127932
2.63 -0.135502
2.64 -0.15045
2.65 -0.173629
2.66 -0.202894
2.67 -0.237393
2.68 -0.275007
2.69 -0.313696
2.7 -0.351097
2.71 -0.385402
2.72 -0.414222
2.73 -0.43651
2.74 -0.451183
2.75 -0.457473
2.76 -0.456395
2.77 -0.447575
2.78 -0.433452
2.79 -0.41525
2.8 -0.395298
2.81 -0.375695
2.82 -0.358991
2.83 -0.346706
2.84 -0.341211
2.85 -0.343144
2.86 -0.353262
2.87 -0.371885
2.88 -0.397566
2.89 -0.430078
2.9 -0.466664
2.91 -0.505574
2.92 -0.544157
2.93 -0.580172
2.94 -0.610655
2.95 -0.634399
2.96 -0.64881
2.97 -0.653668
2.98 -0.648445
2.99 -0.633147
3 -0.609754
3.01 -0.578819
3.02 -0.543626
3.03 -0.506293
3.04 -0.469827
3.05 -0.436671
3.06 -0.410052
3.07 -0.391095
3.08 -0.382462
3.09 -0.384143
3.1 -0.39648
3.11 -0.419202
3.12 -0.450041
3.13 -0.488134
3.14 -0.530013
3.15 -0.573364
3.16 -0.61513
3.17 -0.65295
3.18 -0.683727
3.19 -0.70669
3.2 -0.719598
3.21 -0.722964
3.22 -0.717012
3.23 -0.702734
3.24 -0.682721
3.25 -0.658853
3.26 -0.634535
3.27 -0.612682
3.28 -0.596383
3.29 -0.587758
3.3 -0.590004
3.31 -0.602937
3.32 -0.628469
3.33 -0.665003
3.34 -0.711445
3.35 -0.76569
3.36 -0.824273
3.37 -0.88395
3.38 -0.940864
3.39 -0.991129
3.4 -1.03126
3.41 -1.05916
3.42 -1.07122
3.43 -1.06864
3.44 -1.04968
3.45 -1.01717
3.46 -0.973205
3.47 -0.921131
3.48 -0.865544
3.49 -0.811122
3.5 -0.762334
3.51 -0.723953
3.52 -0.699635
3.53 -0.691054
3.54 -0.701272
3.55 -0.727307
3.56 -0.768799
3.57 -0.820062
3.58 -0.875699
3.59 -0.927584
3.6 -0.968322
3.61 -0.985216
3.62 -0.972071
3.63 -0.916929
3.64 -0.811636
3.65 -0.652112
3.66 -0.426483
3.67 -0.141031
3.68 0.212024
3.69 0.623554
3.7 1.08887
3.71 1.60012
3.72 2.142
3.73 2.70375
3.74 3.26699
3.75 3.81554
3.76 4.3315
3.77 4.80139
3.78 5.20255
3.79 5.53144
3.8 5.76694
3.81 5.90893
3.82 5.95133
3.83 5.88878
3.84 5.73449
3.85 5.47974
3.86 5.14797
3.87 4.74367
3.88 4.28334
3.89 3.78345
3.9 3.2576
3.91 2.7242
3.92 2.19822
3.93 1.69344
3.94 1.22157
3.95 0.794939
3.96 0.415406
3.97 0.0962023
3.98 -0.169405
3.99 -0.377164
4 -0.531463
4.01 -0.639164
4.02 -0.702042
4.03 -0.73286
4.04 -0.735517
4.05 -0.720509
4.06 -0.694489
4.07 -0.664409
4.08 -0.635768
4.09 -0.613819
4.1 -0.600597
4.11 -0.598479
4.12 -0.607592
4.13 -0.626668
4.14 -0.654849
4.15 -0.688592
4.16 -0.725561
4.17 -0.762255
4.18 -0.795804
4.19 -0.822983
4.2 -0.84236
4.21 -0.850606
4.22 -0.848195
4.23 -0.833706
4.24 -0.807536
4.25 -0.770835
4.26 -0.723606
4.27 -0.668523
4.28 -0.606137
4.29 -0.538661
4.3 -0.467378
4.31 -0.393552
4.32 -0.318409
4.33 -0.242647
4.34 -0.166911
4.35 -0.0915393
4.36 -0.0167362
4.37 0.0574188
4.38 0.130711
4.39 0.203062
4.4 0.273966
4.41 0.342957
4.42 0.409249
4.43 0.471566
4.44 0.529204
4.45 0.579772
4.46 0.622787
4.47 0.65612
4.48 0.678483
4.49 0.689341
4.5 0.686357
4.51 0.670901
4.52 0.641268
4.53 0.599081
4.54 0.544969
4.55 0.479892
4.56 0.40656
4.57 0.325918
4.58 0.241242
4.59 0.154461
4.6 0.0681151
4.61 -0.0158503
4.62 -0.0949818
4.63 -0.168449
4.64 -0.2343
4.65 -0.292444
4.66 -0.342524
4.67 -0.384384
4.68 -0.419404
4.69 -0.447451
4.7 -0.470624
4.71 -0.489715
4.72 -0.506187
4.73 -0.521274
4.74 -0.536025
4.75 -0.551282
4.76 -0.567717
4.77 -0.585536
4.78 -0.604768
4.79 -0.625201
4.8 -0.646291
4.81 -0.667441
4.82 -0.687938
4.83 -0.707021
4.84 -0.724
4.85 -0.738482
4.86 -0.749738
4.87 -0.758031
4.88 -0.763004
4.89 -0.765187
4.9 -0.764939
4.91 -0.762788
4.92 -0.759545
4.93 -0.755841
4.94 -0.752438
4.95 -0.74998
4.96 -0.749003
4.97 -0.749767
4.98 -0.752701
4.99 -0.757539
5 -0.764387
5.01 -0.772799
5.02 -0.782451
5.03 -0.792935
5.04 -0.803774
5.05 -0.814582
5.06 -0.825043
5.07 -0.834907
5.08 -0.844056
5.09 -0.852501
5.1 -0.860214
5.11 -0.867372
5.12 -0.873974
5.13 -0.880057
5.14 -0.885482
5.15 -0.889853
5.16 -0.892777
5.17 -0.893073
5.18 -0.890014
5.19 -0.88198
5.2 -0.867371
5.21 -0.844966
5.22 -0.811819
5.23 -0.767748
5.24 -0.709715
5.25 -0.637593
5.26 -0.550443
5.27 -0.447298
5.28 -0.330224
5.29 -0.198176
5.3 -0.0551112
5.31 0.0973807
5.32 0.255598
5.33 0.415767
5.34 0.573248
5.35 0.724105
5.36 0.862642
5.37 0.985202
5.38 1.08767
5.39 1.1651
5.4 1.21755
5.41 1.23859
5.42 1.23163
5.43 1.19433
5.44 1.12842
5.45 1.03732
5.46 0.921462
5.47 0.787769
5.48 0.638509
5.49 0.479922
5.5 0.316518
5.51 0.153517
5.52 -0.00496148
5.53 -0.153467
5.54 -0.289912
5.55 -0.410619
5.56 -0.513829
5.57 -0.599526
5.58 -0.665406
5.59 -0.714705
5.6 -0.746595
5.61 -0.764359
5.62 -0.769846
5.63 -0.765107
5.64 -0.753395
5.65 -0.73612
5.66 -0.716034
5.67 -0.69446
5.68 -0.672677
5.69 -0.651307
5.7 -0.630628
5.71 -0.610319
5.72 -0.589802
5.73 -0.568211
5.74 -0.544607
5.75 -0.517789
5.76 -0.487312
5.77 -0.451838
5.78 -0.411746
5.79 -0.366717
5.8 -0.31737
5.81 -0.264757
5.82 -0.209968
5.83 -0.154832
5.84 -0.101245
5.85 -0.051142
5.86 -0.00642512
5.87 0.0305667
5.88 0.0591912
5.89 0.0766046
5.9 0.0834976
5.91 0.0786092
5.92 0.0622458
5.93 0.0355412
5.94 -0.00159664
5.95 -0.0464481
5.96 -0.0982774
5.97 -0.15462
5.98 -0.21376
5.99 -0.273796
6 -0.333124
6.01 -0.390026
6.02 -0.443753
6.03 -0.493341
6.04 -0.538483
6.05 -0.579428
6.06 -0.61605
6.07 -0.64949
6.08 -0.680136
6.09 -0.709089
6.1 -0.737111
6.11 -0.764974
6.12 -0.7932
6.13 -0.822218
6.14 -0.851971
6.15 -0.882301
6.16 -0.912683
6.17 -0.94249
6.18 -0.970696
6.19 -0.996662
6.2 -1.01918
6.21 -1.03773
6.22 -1.05175
6.23 -1.06065
6.24 -1.06501
6.25 -1.06446
6.26 -1.06033
6.27 -1.05321
6.28 -1.04433
6.29 -1.03487
6.3 -1.02602
6.31 -1.01857
6.32 -1.01329
6.33 -1.0101
6.34 -1.00856
6.35 -1.0074
6.36 -1.00485
6.37 -0.997674
6.38 -0.98315
6.39 -0.956832
6.4 -0.914182
6.41 -0.851931
6.42 -0.762434
6.43 -0.645288
6.44 -0.493
6.45 -0.305265
6.46 -0.079955
6.47 0.18547
6.48 0.485875
6.49 0.824188
6.5 1.19109
6.51 1.58332
6.52 1.99269
6.53 2.41059
6.54 2.82722
6.55 3.23308
6.56 3.61586
6.57 3.9665
6.58 4.2754
6.59 4.53037
6.6 4.73022
6.61 4.85899
6.62 4.92217
6.63 4.91231
6.64 4.8305
6.65 4.68269
6.66 4.46555
6.67 4.19433
6.68 3.87018
6.69 3.50674
6.7 3.11305
6.71 2.69941
6.72 2.27775
6.73 1.85863
6.74 1.45154
6.75 1.06605
6.76 0.710028
6.77 0.387351
6.78 0.107219
6.79 -0.133554
6.8 -0.328817
6.81 -0.482627
6.82 -0.596389
6.83 -0.671501
6.84 -0.715821
6.85 -0.729644
6.86 -0.722216
6.87 -0.696888
6.88 -0.659385
6.89 -0.614628
6.9 -0.566422
6.91 -0.518487
6.92 -0.473624
6.93 -0.433567
6.94 -0.399427
6.95 -0.37205
6.96 -0.350629
6.97 -0.33556
6.98 -0.325186
6.99 -0.318972
7 -0.315851
7.01 -0.314909
7.02 -0.315727
7.03 -0.317755
7.04 -0.32112
7.05 -0.325995
7.06 -0.332876
7.07 -0.342656
7.08 -0.355753
7.09 -0.373631
7.1 -0.39637
7.11 -0.424887
7.12 -0.459409
7.13 -0.499566
7.14 -0.545619
7.15 -0.596055
7.16 -0.650312
7.17 -0.706678
7.18 -0.763707
7.19 -0.819565
7.2 -0.872854
7.21 -0.921374
7.22 -0.964399
7.23 -1.00045
7.24 -1.02886
7.25 -1.04979
7.26 -1.06246
7.27 -1.06851
7.28 -1.06805
7.29 -1.06284
7.3 -1.05415
7.31 -1.04343
7.32 -1.0322
7.33 -1.02181
7.34 -1.01311
7.35 -1.00679
7.36 -1.00298
7.37 -1.00118
7.38 -1.00063
7.39 -0.999839
7.4 -0.996899
7.41 -0.989725
7.42 -0.976077
7.43 -0.952884
7.44 -0.919055
7.45 -0.870475
7.46 -0.807399
7.47 -0.727529
7.48 -0.630453
7.49 -0.517288
7.5 -0.387014
7.51 -0.243529
7.52 -0.0875996
7.53 0.0767122
7.54 0.246178
7.55 0.41671
7.56 0.584443
7.57 0.744187
7.58 0.892924
7.59 1.0261
7.6 1.14026
7.61 1.23396
7.62 1.30216
7.63 1.34701
7.64 1.36492
7.65 1.35804
7.66 1.32704
7.67 1.27233
7.68 1.19846
7.69 1.10527
7.7 0.99836
7.71 0.879812
7.72 0.753411
7.73 0.622664
7.74 0.490748
7.75 0.360732
7.76 0.235748
7.77 0.117993
7.78 0.00947878
7.79 -0.0873592
7.8 -0.172587
7.81 -0.243245
7.82 -0.300687
7.83 -0.343665
7.84 -0.37243
7.85 -0.388171
7.86 -0.389981
7.87 -0.380645
7.88 -0.359949
7.89 -0.330174
7.9 -0.292728
7.91 -0.249138
7.92 -0.201793
7.93 -0.152341
7.94 -0.103139
7.95 -0.0562407
7.96 -0.0138515
7.97 0.0225287
7.98 0.0500905
7.99 0.0685794
8 0.0755726
8.01 0.0710163
8.02 0.0544207
8.03 0.0251035
8.04 -0.0151318
8.05 -0.0670412
8.06 -0.127754
8.07 -0.196308
8.08 -0.270487
8.09 -0.348006
8.1 -0.426728
8.11 -0.504387
8.12 -0.578715
8.13 -0.648069
8.14 -0.711061
8.15 -0.766168
8.16 -0.813734
8.17 -0.852436
8.18 -0.883825
8.19 -0.908118
8.2 -0.926604
8.21 -0.940851
8.22 -0.951961
8.23 -0.961689
8.24 -0.971094
8.25 -0.981094
8.26 -0.992062
8.27 -1.00387
8.28 -1.01572
8.29 -1.026
8.3 -1.03284
8.31 -1.03341
8.32 -1.0244
8.33 -1.00331
8.34 -0.964521
8.35 -0.907156
8.36 -0.825594
8.37 -0.718812
8.38 -0.584876
8.39 -0.421068
8.4 -0.230688
8.41 -0.0107569
8.42 0.232445
8.43 0.497196
8.44 0.778196
8.45 1.06932
8.46 1.36445
8.47 1.65629
8.48 1.93678
8.49 2.19897
8.5 2.43611
8.51 2.63936
8.52 2.80721
8.53 2.92866
8.54 3.00633
8.55 3.03495
8.56 3.01431
8.57 2.9482
8.58 2.83334
8.59 2.6799
8.6 2.48796
8.61 2.26628
8.62 2.02072
8.63 1.75754
8.64 1.48504
8.65 1.20946
8.66 0.937744
8.67 0.675938
8.68 0.429569
8.69 0.20154
8.7 -0.0020389
8.71 -0.18247
8.72 -0.335697
8.73 -0.463554
8.74 -0.566694
8.75 -0.645452
8.76 -0.704558
8.77 -0.7439
8.78 -0.769098
8.79 -0.782179
8.8 -0.786669
8.81 -0.785808
8.82 -0.782008
8.83 -0.777906
8.84 -0.775426
8.85 -0.77595
8.86 -0.780376
8.87 -0.789494
8.88 -0.802859
8.89 -0.820844
8.9 -0.842276
8.91 -0.866658
8.92 -0.892982
8.93 -0.920266
8.94 -0.947561
8.95 -0.974052
8.96 -0.998888
8.97 -1.0216
8.98 -1.04182
8.99 -1.05919
9 -1.07401
9.01 -1.08601
9.02 -1.09583
9.03 -1.10363
9.04 -1.10986
9.05 -1.11495
9.06 -1.11915
9.07 -1.12281
9.08 -1.126
9.09 -1.12873
9.1 -1.13082
9.11 -1.13186
9.12 -1.13149
9.13 -1.12876
9.14 -1.12322
9.15 -1.11383
9.16 -1.0997
9.17 -1.08034
9.18 -1.0542
9.19 -1.02162
9.2 -0.98134
9.21 -0.933684
9.22 -0.878703
9.23 -0.816376
9.24 -0.748147
9.25 -0.674197
9.26 -0.596582
9.27 -0.516563
9.28 -0.436103
9.29 -0.356982
9.3 -0.28169
9.31 -0.211614
9.32 -0.149372
9.33 -0.0962203
9.34 -0.0535295
9.35 -0.0231721
9.36 -0.00441164
9.37 0.000618388
9.38 -0.00608242
9.39 -0.0246801
9.4 -0.0538551
9.41 -0.0915449
9.42 -0.136744
9.43 -0.186397
9.44 -0.238745
9.45 -0.291223
9.46 -0.341801
9.47 -0.388136
9.48 -0.429159
9.49 -0.462551
9.5 -0.488412
9.51 -0.50582
9.52 -0.514909
9.53 -0.516699
9.54 -0.511313
9.55 -0.501
9.56 -0.486768
9.57 -0.470694
9.58 -0.454428
9.59 -0.439873
9.6 -0.428241
9.61 -0.42144
9.62 -0.419814
9.63 -0.424295
9.64 -0.435069
9.65 -0.45157
9.66 -0.473962
9.67 -0.500646
9.68 -0.531098
9.69 -0.563857
9.7 -0.597835
9.71 -0.631865
9.72 -0.665065
9.73 -0.696462
9.74 -0.725781
9.75 -0.752642
9.76 -0.777055
9.77 -0.79935
9.78 -0.819595
9.79 -0.838393
9.8 -0.855809
9.81 -0.871964
9.82 -0.886582
9.83 -0.89875
9.84 -0.907623
9.85 -0.910674
9.86 -0.906266
9.87 -0.891068
9.88 -0.861497
9.89 -0.815179
9.9 -0.74547
9.91 -0.652014
9.92 -0.528263
9.93 -0.373128
9.94 -0.184497
9.95 0.0411904
9.96 0.299923
9.97 0.595678
9.98 0.921179
9.99 1.27467
10 1.65022
10.01 2.04043
10.02 2.43849
10.03 2.83514
10.04 3.2209
10.05 3.58679
10.06 3.92431
10.07 4.22205
10.08 4.47741
10.09 4.67635
10.1 4.82092
10.11 4.90406
10.12 4.92426
10.13 4.88589
10.14 4.7834
10.15 4.62946
10.16 4.42329
10.17 4.17547
10.18 3.89323
10.19 3.58382
10.2 3.25827
10.21 2.92371
10.22 2.58966
10.23 2.26351
10.24 1.95251
10.25 1.66063
10.26 1.39534
10.27 1.15563
10.28 0.946148
10.29 0.765027
10.3 0.611288
10.31 0.484404
10.32 0.378767
10.33 0.293951
10.34 0.223563
10.35 0.164895
10.36 0.11386
10.37 0.0668729
10.38 0.0210983
10.39 -0.0259089
10.4 -0.0760878
10.41 -0.130376
10.42 -0.189205
10.43 -0.252758
10.44 -0.319977
10.45 -0.390384
10.46 -0.462358
10.47 -0.534708
10.48 -0.60594
10.49 -0.674961
10.5 -0.740156
10.51 -0.801171
10.52 -0.856786
10.53 -0.906891
10.54 -0.9513
10.55 -0.989627
10.56 -1.02268
10.57 -1.0499
10.58 -1.07228
10.59 -1.08977
10.6 -1.10261
10.61 -1.11125
10.62 -1.11515
10.63 -1.11494
10.64 -1.10996
10.65 -1.10036
10.66 -1.08597
10.67 -1.06632
10.68 -1.04195
10.69 -1.0122
10.7 -0.977999
10.71 -0.939492
10.72 -0.897412
10.73 -0.852791
10.74 -0.806506
10.75 -0.759972
10.76 -0.714531
10.77 -0.671575
10.78 -0.632378
10.79 -0.598643
10.8 -0.570804
10.81 -0.550841
10.82 -0.538465
10.83 -0.534574
10.84 -0.539253
10.85 -0.55173
10.86 -0.572499
10.87 -0.599649
10.88 -0.632935
10.89 -0.67073
10.9 -0.711837
10.91 -0.754995
10.92 -0.798783
10.93 -0.841937
10.94 -0.883429
10.95 -0.92225
10.96 -0.957598
10.97 -0.989232
10.98 -1.01627
10.99 -1.03927
11 -1.05782
11.01 -1.07247
11.02 -1.08361
11.03 -1.09155
11.04 -1.09717
11.05 -1.10077
11.06 -1.10322
11.07 -1.10501
11.08 -1.10673
11.09 -1.10882
11.1 -1.11177
11.11 -1.11574
11.12 -1.12103
11.13 -1.1276
11.14 -1.13533
11.15 -1.14401
11.16 -1.15311
11.17 -1.16198
11.18 -1.1698
11.19 -1.17546
11.2 -1.17758
11.21 -1.17507
11.22 -1.16538
11.23 -1.14778
11.24 -1.11936
11.25 -1.07874
11.26 -1.0242
11.27 -0.952773
11.28 -0.864942
11.29 -0.756729
11.3 -0.629806
11.31 -0.482635
11.32 -0.315522
11.33 -0.130688
11.34 0.0724665
11.35 0.289079
11.36 0.517634
11.37 0.753447
11.38 0.992496
11.39 1.22966
11.4 1.46055
11.41 1.67838
11.42 1.87956
11.43 2.05826
11.44 2.20958
11.45 2.33192
11.46 2.41761
11.47 2.46971
11.48 2.48294
11.49 2.45962
11.5 2.40078
11.51 2.30623
11.52 2.18272
11.53 2.02992
11.54 1.85596
11.55 1.66427
11.56 1.4606
11.57 1.25063
11.58 1.0395
11.59 0.832088
11.6 0.633341
11.61 0.446642
11.62 0.274679
11.63 0.120829
11.64 -0.01585
11.65 -0.132276
11.66 -0.231401
11.67 -0.313256
11.68 -0.379774
11.69 -0.434047
11.7 -0.47725
11.71 -0.513502
11.72 -0.544634
11.73 -0.573518
11.74 -0.602114
11.75 -0.632275
11.76 -0.664881
11.77 -0.700974
11.78 -0.740145
11.79 -0.782071
11.8 -0.82562
11.81 -0.869352
11.82 -0.911208
11.83 -0.949476
11.84 -0.981501
11.85 -1.00538
11.86 -1.01922
11.87 -1.02025
11.88 -1.00849
11.89 -0.980649
11.9 -0.937909
11.91 -0.879046
11.92 -0.804241
11.93 -0.715219
11.94 -0.611239
11.95 -0.495904
11.96 -0.369798
11.97 -0.235929
11.98 -0.0966313
11.99 0.0455052
12 0.187647
12.01 0.32673
12.02 0.460376
12.03 0.585731
12.04 0.70013
12.05 0.802388
12.06 0.888601
12.07 0.959565
12.08 1.01227
12.09 1.04705
12.1 1.06373
12.11 1.06119
12.12 1.04216
12.13 1.00514
12.14 0.953727
12.15 0.888664
12.16 0.81213
12.17 0.726966
12.18 0.634688
12.19 0.538674
12.2 0.440959
12.21 0.344092
12.22 0.250043
12.23 0.16109
12.24 0.0780335
12.25 0.00302484
12.26 -0.064216
12.27 -0.12297
12.28 -0.173416
12.29 -0.216679
12.3 -0.252805
12.31 -0.283984
12.32 -0.311069
12.33 -0.335905
12.34 -0.359909
12.35 -0.384598
12.36 -0.41099
12.37 -0.440345
12.38 -0.47284
12.39 -0.508779
12.4 -0.54781
12.41 -0.589017
