# xPDFsuite Configuration #
[PDF]
wavelength = 0.1432
dataformat = twotheta
inputfile = 1_1Pd_CeO2_cycle-00372.chi
backgroundfile = background-00000.chi
mode = xray
bgscale = 1.007
composition = CeO2
outputtype = gr
qmaxinst = 28.8974762299
qmin = 0.5
qmax = 27.9
rmax = 50.0
rmin = 0.0
rstep = 0.01
rpoly = 1.8657

[Misc]
inputdir = G:/SankarDec16/1Pd/Chi
savedir = D:/DATA/APS_CeO2/1Pd
backgroundfilefull = G:/SankarDec16/Background/background-00000.chi

#### start data
#S 1
#L r($\AA$)  G($\AA^{-2}$)
0 0
0.01 -0.00693825
0.02 -0.013354
0.03 -0.018709
0.04 -0.0225982
0.05 -0.0247958
0.06 -0.0249394
0.07 -0.0232702
0.08 -0.0196715
0.09 -0.0146041
0.1 -0.00838663
0.11 -0.00150713
0.12 0.00550208
0.13 0.0120439
0.14 0.017695
0.15 0.0219373
0.16 0.0244671
0.17 0.0251629
0.18 0.0237774
0.19 0.0206653
0.2 0.0158401
0.21 0.00983901
0.22 0.00305876
0.23 -0.00395274
0.24 -0.0106942
0.25 -0.0165223
0.26 -0.0211329
0.27 -0.0240526
0.28 -0.0250937
0.29 -0.0242451
0.3 -0.0213864
0.31 -0.0169692
0.32 -0.0111369
0.33 -0.00447806
0.34 0.00255139
0.35 0.00936908
0.36 0.0155288
0.37 0.0203715
0.38 0.0237265
0.39 0.0251881
0.4 0.0246937
0.41 0.0223433
0.42 0.0181497
0.43 0.0126404
0.44 0.00608208
0.45 -0.000912799
0.46 -0.00785085
0.47 -0.0141424
0.48 -0.0194179
0.49 -0.0230339
0.5 -0.0249618
0.51 -0.024883
0.52 -0.0228638
0.53 -0.0191106
0.54 -0.01377
0.55 -0.00742041
0.56 -0.00043944
0.57 0.00656506
0.58 0.0130859
0.59 0.0185537
0.6 0.0226938
0.61 0.0249091
0.62 0.0253148
0.63 0.0236954
0.64 0.0202432
0.65 0.0152624
0.66 0.00902663
0.67 0.00213817
0.68 -0.00493186
0.69 -0.0116089
0.7 -0.0173962
0.71 -0.0217715
0.72 -0.0245684
0.73 -0.0252644
0.74 -0.0241137
0.75 -0.0210137
0.76 -0.0162737
0.77 -0.0102805
0.78 -0.00342107
0.79 0.00370761
0.8 0.0105655
0.81 0.0166395
0.82 0.0214689
0.83 0.0246056
0.84 0.0259998
0.85 0.025232
0.86 0.0226815
0.87 0.0183647
0.88 0.0126914
0.89 0.0061093
0.9 -0.000903018
0.91 -0.00778927
0.92 -0.0139751
0.93 -0.0190422
0.94 -0.0226004
0.95 -0.0243128
0.96 -0.0242578
0.97 -0.0221668
0.98 -0.0185299
0.99 -0.0135065
1 -0.00759996
1.01 -0.00130473
1.02 0.00480671
1.03 0.01026
1.04 0.0144533
1.05 0.0171041
1.06 0.017919
1.07 0.0167064
1.08 0.0137064
1.09 0.0088439
1.1 0.00274982
1.11 -0.0042269
1.12 -0.0114472
1.13 -0.0183356
1.14 -0.0241488
1.15 -0.0284809
1.16 -0.0306041
1.17 -0.0303473
1.18 -0.0274471
1.19 -0.0217767
1.2 -0.0137465
1.21 -0.00332508
1.22 0.00864437
1.23 0.0217065
1.24 0.0350649
1.25 0.0480162
1.26 0.0596581
1.27 0.0694966
1.28 0.0766315
1.29 0.0808175
1.3 0.08167
1.31 0.0789145
1.32 0.0729481
1.33 0.0634661
1.34 0.0513736
1.35 0.0369194
1.36 0.0208378
1.37 0.0038129
1.38 -0.0134594
1.39 -0.0303089
1.4 -0.0460125
1.41 -0.0601179
1.42 -0.0721718
1.43 -0.0817532
1.44 -0.0889395
1.45 -0.0932334
1.46 -0.0951054
1.47 -0.09444
1.48 -0.0915221
1.49 -0.0866593
1.5 -0.0799415
1.51 -0.0718539
1.52 -0.0624722
1.53 -0.0521484
1.54 -0.0410449
1.55 -0.0293286
1.56 -0.0172027
1.57 -0.00477275
1.58 0.00775701
1.59 0.0202172
1.6 0.0323787
1.61 0.0440206
1.62 0.0547482
1.63 0.0643625
1.64 0.0723218
1.65 0.0783881
1.66 0.0821652
1.67 0.0832076
1.68 0.0815562
1.69 0.0765513
1.7 0.0686452
1.71 0.0576385
1.72 0.0438738
1.73 0.0278099
1.74 0.00979055
1.75 -0.00933471
1.76 -0.0289506
1.77 -0.0482165
1.78 -0.066393
1.79 -0.0826323
1.8 -0.0965591
1.81 -0.107196
1.82 -0.11471
1.83 -0.118667
1.84 -0.119257
1.85 -0.116881
1.86 -0.111767
1.87 -0.104876
1.88 -0.0967791
1.89 -0.0884491
1.9 -0.0806784
1.91 -0.0743697
1.92 -0.0699902
1.93 -0.0684757
1.94 -0.0697132
1.95 -0.0740505
1.96 -0.0812228
1.97 -0.0907439
1.98 -0.102152
1.99 -0.114439
2 -0.126714
2.01 -0.137919
2.02 -0.147045
2.03 -0.152925
2.04 -0.15511
2.05 -0.152163
2.06 -0.14437
2.07 -0.131025
2.08 -0.112289
2.09 -0.0886117
2.1 -0.0599798
2.11 -0.0276325
2.12 0.00813349
2.13 0.0461578
2.14 0.0857143
2.15 0.125997
2.16 0.166327
2.17 0.206097
2.18 0.245026
2.19 0.282842
2.2 0.319539
2.21 0.355252
2.22 0.390088
2.23 0.424376
2.24 0.45826
2.25 0.491907
2.26 0.525301
2.27 0.558219
2.28 0.590354
2.29 0.620847
2.3 0.649104
2.31 0.673888
2.32 0.694036
2.33 0.708611
2.34 0.715605
2.35 0.71494
2.36 0.704576
2.37 0.684695
2.38 0.654769
2.39 0.614509
2.4 0.56543
2.41 0.507116
2.42 0.442289
2.43 0.372028
2.44 0.298647
2.45 0.224279
2.46 0.151382
2.47 0.081827
2.48 0.0181883
2.49 -0.0383054
2.5 -0.0862617
2.51 -0.12444
2.52 -0.153569
2.53 -0.17237
2.54 -0.183114
2.55 -0.186228
2.56 -0.183628
2.57 -0.177248
2.58 -0.168935
2.59 -0.160808
2.6 -0.154845
2.61 -0.152495
2.62 -0.15499
2.63 -0.163383
2.64 -0.177334
2.65 -0.19755
2.66 -0.222429
2.67 -0.251326
2.68 -0.282604
2.69 -0.314673
2.7 -0.345675
2.71 -0.374198
2.72 -0.398363
2.73 -0.417361
2.74 -0.430358
2.75 -0.436783
2.76 -0.437467
2.77 -0.432179
2.78 -0.422868
2.79 -0.410556
2.8 -0.397108
2.81 -0.384183
2.82 -0.373808
2.83 -0.367117
2.84 -0.365935
2.85 -0.370655
2.86 -0.38176
2.87 -0.399339
2.88 -0.422139
2.89 -0.449742
2.9 -0.479916
2.91 -0.511106
2.92 -0.541157
2.93 -0.568313
2.94 -0.590173
2.95 -0.605996
2.96 -0.613808
2.97 -0.613722
2.98 -0.60557
2.99 -0.589695
3 -0.567933
3.01 -0.541176
3.02 -0.512175
3.03 -0.482948
3.04 -0.456021
3.05 -0.433331
3.06 -0.417584
3.07 -0.409311
3.08 -0.410552
3.09 -0.420821
3.1 -0.439997
3.11 -0.467334
3.12 -0.500567
3.13 -0.538316
3.14 -0.577525
3.15 -0.615806
3.16 -0.650452
3.17 -0.679531
3.18 -0.70029
3.19 -0.712606
3.2 -0.714725
3.21 -0.70773
3.22 -0.69233
3.23 -0.670053
3.24 -0.643671
3.25 -0.615651
3.26 -0.589232
3.27 -0.567567
3.28 -0.553619
3.29 -0.549261
3.3 -0.557617
3.31 -0.577952
3.32 -0.61196
3.33 -0.657535
3.34 -0.713212
3.35 -0.77646
3.36 -0.843518
3.37 -0.910704
3.38 -0.974056
3.39 -1.02942
3.4 -1.07321
3.41 -1.10337
3.42 -1.11614
3.43 -1.11299
3.44 -1.0921
3.45 -1.05658
3.46 -1.00861
3.47 -0.951677
3.48 -0.890603
3.49 -0.830116
3.5 -0.774895
3.51 -0.729794
3.52 -0.69859
3.53 -0.683057
3.54 -0.686365
3.55 -0.705628
3.56 -0.740633
3.57 -0.785812
3.58 -0.835924
3.59 -0.883062
3.6 -0.919925
3.61 -0.934194
3.62 -0.919697
3.63 -0.86478
3.64 -0.761432
3.65 -0.605608
3.66 -0.385715
3.67 -0.107771
3.68 0.235847
3.69 0.636345
3.7 1.08924
3.71 1.587
3.72 2.1148
3.73 2.66234
3.74 3.21179
3.75 3.74757
3.76 4.25236
3.77 4.71308
3.78 5.10787
3.79 5.43318
3.8 5.66861
3.81 5.81389
3.82 5.86304
3.83 5.81075
3.84 5.66961
3.85 5.43094
3.86 5.11724
3.87 4.73255
3.88 4.29259
3.89 3.8131
3.9 3.30681
3.91 2.79155
3.92 2.28139
3.93 1.78967
3.94 1.32764
3.95 0.907116
3.96 0.530184
3.97 0.209474
3.98 -0.0610052
3.99 -0.277008
4 -0.44237
4.01 -0.563318
4.02 -0.641151
4.03 -0.687758
4.04 -0.706409
4.05 -0.706867
4.06 -0.695175
4.07 -0.677614
4.08 -0.659459
4.09 -0.645235
4.1 -0.637172
4.11 -0.637352
4.12 -0.646045
4.13 -0.662289
4.14 -0.685298
4.15 -0.712212
4.16 -0.740963
4.17 -0.768688
4.18 -0.792988
4.19 -0.811182
4.2 -0.822229
4.21 -0.823371
4.22 -0.815233
4.23 -0.796749
4.24 -0.768433
4.25 -0.731392
4.26 -0.685783
4.27 -0.633899
4.28 -0.576286
4.29 -0.514754
4.3 -0.450321
4.31 -0.383933
4.32 -0.316454
4.33 -0.248263
4.34 -0.179724
4.35 -0.110899
4.36 -0.0417854
4.37 0.0276332
4.38 0.0973602
4.39 0.167197
4.4 0.236764
4.41 0.305435
4.42 0.372348
4.43 0.436134
4.44 0.495869
4.45 0.549094
4.46 0.595099
4.47 0.631646
4.48 0.657307
4.49 0.671447
4.5 0.671635
4.51 0.659206
4.52 0.632399
4.53 0.592846
4.54 0.541178
4.55 0.478372
4.56 0.407181
4.57 0.328564
4.58 0.245842
4.59 0.160962
4.6 0.0764749
4.61 -0.00567053
4.62 -0.0830429
4.63 -0.154831
4.64 -0.219136
4.65 -0.275908
4.66 -0.324847
4.67 -0.365873
4.68 -0.400384
4.69 -0.428357
4.7 -0.451867
4.71 -0.471763
4.72 -0.4895
4.73 -0.506273
4.74 -0.523137
4.75 -0.540819
4.76 -0.559949
4.77 -0.58061
4.78 -0.602734
4.79 -0.625981
4.8 -0.649713
4.81 -0.673179
4.82 -0.695614
4.83 -0.716142
4.84 -0.734022
4.85 -0.748857
4.86 -0.759852
4.87 -0.767376
4.88 -0.771068
4.89 -0.771588
4.9 -0.769395
4.91 -0.765149
4.92 -0.759804
4.93 -0.754158
4.94 -0.749096
4.95 -0.745412
4.96 -0.743757
4.97 -0.74444
4.98 -0.748019
4.99 -0.754143
5 -0.762974
5.01 -0.773934
5.02 -0.786611
5.03 -0.800456
5.04 -0.814805
5.05 -0.829077
5.06 -0.842764
5.07 -0.855399
5.08 -0.866668
5.09 -0.876467
5.1 -0.884527
5.11 -0.891076
5.12 -0.895946
5.13 -0.899282
5.14 -0.900997
5.15 -0.900787
5.16 -0.898509
5.17 -0.893126
5.18 -0.884224
5.19 -0.870437
5.2 -0.850462
5.21 -0.823303
5.22 -0.786376
5.23 -0.739571
5.24 -0.680164
5.25 -0.608037
5.26 -0.522315
5.27 -0.422081
5.28 -0.309168
5.29 -0.182571
5.3 -0.0458592
5.31 0.0995494
5.32 0.250282
5.33 0.402874
5.34 0.553039
5.35 0.697105
5.36 0.82975
5.37 0.947508
5.38 1.04648
5.39 1.12193
5.4 1.17384
5.41 1.19607
5.42 1.1917
5.43 1.15842
5.44 1.09778
5.45 1.0129
5.46 0.90408
5.47 0.777865
5.48 0.636291
5.49 0.485292
5.5 0.329134
5.51 0.172756
5.52 0.0201634
5.53 -0.123498
5.54 -0.256109
5.55 -0.37414
5.56 -0.475836
5.57 -0.561097
5.58 -0.627679
5.59 -0.678575
5.6 -0.712948
5.61 -0.733868
5.62 -0.743052
5.63 -0.742409
5.64 -0.735015
5.65 -0.722159
5.66 -0.706451
5.67 -0.689103
5.68 -0.67129
5.69 -0.653581
5.7 -0.636143
5.71 -0.618672
5.72 -0.600507
5.73 -0.580803
5.74 -0.558614
5.75 -0.532723
5.76 -0.50275
5.77 -0.467318
5.78 -0.426902
5.79 -0.381197
5.8 -0.330879
5.81 -0.277071
5.82 -0.220908
5.83 -0.164313
5.84 -0.109248
5.85 -0.0577334
5.86 -0.0117446
5.87 0.0262887
5.88 0.0556876
5.89 0.0735
5.9 0.0804274
5.91 0.0751558
5.92 0.0579971
5.93 0.0301268
5.94 -0.00853999
5.95 -0.0551694
5.96 -0.108963
5.97 -0.16733
5.98 -0.228443
5.99 -0.290254
6 -0.351068
6.01 -0.408984
6.02 -0.463217
6.03 -0.512681
6.04 -0.557024
6.05 -0.596516
6.06 -0.630968
6.07 -0.661671
6.08 -0.689033
6.09 -0.714324
6.1 -0.738443
6.11 -0.762334
6.12 -0.786689
6.13 -0.812151
6.14 -0.838788
6.15 -0.866621
6.16 -0.895244
6.17 -0.924062
6.18 -0.95219
6.19 -0.978858
6.2 -1.00291
6.21 -1.02364
6.22 -1.04038
6.23 -1.05238
6.24 -1.05999
6.25 -1.06263
6.26 -1.06142
6.27 -1.05676
6.28 -1.04969
6.29 -1.04127
6.3 -1.03249
6.31 -1.02422
6.32 -1.01712
6.33 -1.01123
6.34 -1.00621
6.35 -1.00093
6.36 -0.993864
6.37 -0.981976
6.38 -0.962832
6.39 -0.932263
6.4 -0.886018
6.41 -0.821027
6.42 -0.730023
6.43 -0.612621
6.44 -0.461653
6.45 -0.276789
6.46 -0.0559565
6.47 0.20333
6.48 0.496195
6.49 0.825508
6.5 1.18236
6.51 1.56366
6.52 1.96159
6.53 2.36786
6.54 2.77307
6.55 3.16808
6.56 3.54102
6.57 3.88318
6.58 4.18526
6.59 4.43552
6.6 4.63278
6.61 4.76166
6.62 4.82738
6.63 4.82278
6.64 4.74886
6.65 4.61133
6.66 4.40692
6.67 4.15028
6.68 3.84245
6.69 3.49648
6.7 3.12097
6.71 2.7257
6.72 2.32208
6.73 1.92001
6.74 1.52857
6.75 1.15675
6.76 0.811975
6.77 0.497915
6.78 0.223133
6.79 -0.0152764
6.8 -0.211605
6.81 -0.369584
6.82 -0.490482
6.83 -0.575526
6.84 -0.631917
6.85 -0.659757
6.86 -0.667481
6.87 -0.657955
6.88 -0.636233
6.89 -0.606695
6.9 -0.572432
6.91 -0.536864
6.92 -0.502162
6.93 -0.469909
6.94 -0.441021
6.95 -0.416143
6.96 -0.394827
6.97 -0.377296
6.98 -0.362542
6.99 -0.350265
7 -0.339929
7.01 -0.331144
7.02 -0.324015
7.03 -0.318487
7.04 -0.315219
7.05 -0.314724
7.06 -0.317793
7.07 -0.325615
7.08 -0.338476
7.09 -0.358076
7.1 -0.384069
7.11 -0.417238
7.12 -0.457415
7.13 -0.503799
7.14 -0.556216
7.15 -0.612703
7.16 -0.67221
7.17 -0.732688
7.18 -0.792394
7.19 -0.849175
7.2 -0.901723
7.21 -0.94757
7.22 -0.986361
7.23 -1.01671
7.24 -1.03829
7.25 -1.05168
7.26 -1.05648
7.27 -1.0548
7.28 -1.0472
7.29 -1.03581
7.3 -1.02221
7.31 -1.00821
7.32 -0.995295
7.33 -0.985123
7.34 -0.978248
7.35 -0.97535
7.36 -0.976265
7.37 -0.980165
7.38 -0.986013
7.39 -0.991877
7.4 -0.995499
7.41 -0.994456
7.42 -0.986241
7.43 -0.967507
7.44 -0.93715
7.45 -0.890841
7.46 -0.829043
7.47 -0.749502
7.48 -0.652028
7.49 -0.538005
7.5 -0.406666
7.51 -0.262207
7.52 -0.105677
7.53 0.0586565
7.54 0.227412
7.55 0.396366
7.56 0.561749
7.57 0.718347
7.58 0.863429
7.59 0.99265
7.6 1.10289
7.61 1.19303
7.62 1.25851
7.63 1.3017
7.64 1.31946
7.65 1.31411
7.66 1.28649
7.67 1.23719
7.68 1.17049
7.69 1.08637
7.7 0.989896
7.71 0.882896
7.72 0.76866
7.73 0.6502
7.74 0.530093
7.75 0.410963
7.76 0.295294
7.77 0.18493
7.78 0.0815273
7.79 -0.0128953
7.8 -0.0982375
7.81 -0.171963
7.82 -0.234916
7.83 -0.285797
7.84 -0.324455
7.85 -0.351562
7.86 -0.365826
7.87 -0.369369
7.88 -0.361464
7.89 -0.343849
7.9 -0.317485
7.91 -0.283385
7.92 -0.243826
7.93 -0.199941
7.94 -0.154278
7.95 -0.108739
7.96 -0.0656673
7.97 -0.0268595
7.98 0.00479505
7.99 0.0285103
8 0.0416459
8.01 0.0437078
8.02 0.0338879
8.03 0.0111623
8.04 -0.0228875
8.05 -0.0693193
8.06 -0.125314
8.07 -0.190045
8.08 -0.261309
8.09 -0.336729
8.1 -0.414183
8.11 -0.491176
8.12 -0.565376
8.13 -0.634948
8.14 -0.698374
8.15 -0.754
8.16 -0.802067
8.17 -0.841162
8.18 -0.872802
8.19 -0.897174
8.2 -0.915576
8.21 -0.929608
8.22 -0.9404
8.23 -0.949764
8.24 -0.958803
8.25 -0.968479
8.26 -0.979195
8.27 -0.990854
8.28 -1.00266
8.29 -1.01302
8.3 -1.02004
8.31 -1.02091
8.32 -1.01233
8.33 -0.9918
8.34 -0.953758
8.35 -0.897358
8.36 -0.817076
8.37 -0.711958
8.38 -0.580163
8.39 -0.419115
8.4 -0.232132
8.41 -0.0164266
8.42 0.221785
8.43 0.480717
8.44 0.755128
8.45 1.03904
8.46 1.32645
8.47 1.61036
8.48 1.88298
8.49 2.13774
8.5 2.36825
8.51 2.56615
8.52 2.73018
8.53 2.84997
8.54 2.9282
8.55 2.95999
8.56 2.94525
8.57 2.88765
8.58 2.7841
8.59 2.64418
8.6 2.46787
8.61 2.26326
8.62 2.03566
8.63 1.79065
8.64 1.53588
8.65 1.27669
8.66 1.01951
8.67 0.76963
8.68 0.53204
8.69 0.309468
8.7 0.107315
8.71 -0.0752321
8.72 -0.234451
8.73 -0.371596
8.74 -0.486915
8.75 -0.580253
8.76 -0.655437
8.77 -0.711727
8.78 -0.753818
8.79 -0.782963
8.8 -0.801888
8.81 -0.813353
8.82 -0.818901
8.83 -0.821243
8.84 -0.821759
8.85 -0.822082
8.86 -0.823278
8.87 -0.826357
8.88 -0.831638
8.89 -0.839853
8.9 -0.85074
8.91 -0.864438
8.92 -0.880707
8.93 -0.899111
8.94 -0.919492
8.95 -0.941168
8.96 -0.963833
8.97 -0.986939
8.98 -1.01007
8.99 -1.03276
9 -1.05471
9.01 -1.07538
9.02 -1.09462
9.03 -1.11205
9.04 -1.12742
9.05 -1.14066
9.06 -1.15127
9.07 -1.15944
9.08 -1.16471
9.09 -1.16712
9.1 -1.16652
9.11 -1.16253
9.12 -1.15537
9.13 -1.14428
9.14 -1.12956
9.15 -1.1107
9.16 -1.08745
9.17 -1.05986
9.18 -1.0271
9.19 -0.989694
9.2 -0.946953
9.21 -0.899223
9.22 -0.846588
9.23 -0.789036
9.24 -0.727503
9.25 -0.662045
9.26 -0.593992
9.27 -0.524144
9.28 -0.453816
9.29 -0.38426
9.3 -0.317264
9.31 -0.253939
9.32 -0.196328
9.33 -0.145576
9.34 -0.102946
9.35 -0.0702014
9.36 -0.04703
9.37 -0.0355673
9.38 -0.0344727
9.39 -0.0442731
9.4 -0.0642214
9.41 -0.0927652
9.42 -0.129501
9.43 -0.17172
9.44 -0.218189
9.45 -0.266536
9.46 -0.314891
9.47 -0.361084
9.48 -0.403751
9.49 -0.44065
9.5 -0.471361
9.51 -0.494707
9.52 -0.510373
9.53 -0.518949
9.54 -0.520095
9.55 -0.515722
9.56 -0.506418
9.57 -0.494061
9.58 -0.480142
9.59 -0.4664
9.6 -0.454246
9.61 -0.445507
9.62 -0.440909
9.63 -0.44157
9.64 -0.448006
9.65 -0.459975
9.66 -0.477977
9.67 -0.500662
9.68 -0.527797
9.69 -0.558048
9.7 -0.590412
9.71 -0.623786
9.72 -0.657116
9.73 -0.689388
9.74 -0.720024
9.75 -0.748432
9.76 -0.77432
9.77 -0.797776
9.78 -0.818539
9.79 -0.837102
9.8 -0.853292
9.81 -0.867232
9.82 -0.878667
9.83 -0.886754
9.84 -0.890934
9.85 -0.888898
9.86 -0.879412
9.87 -0.859527
9.88 -0.826107
9.89 -0.777095
9.9 -0.706435
9.91 -0.613837
9.92 -0.493221
9.93 -0.34349
9.94 -0.162557
9.95 0.0531021
9.96 0.299935
9.97 0.581995
9.98 0.892678
9.99 1.23066
10 1.59064
10.01 1.9658
10.02 2.35011
10.03 2.73471
10.04 3.11089
10.05 3.46996
10.06 3.80379
10.07 4.1014
10.08 4.35989
10.09 4.56569
10.1 4.7202
10.11 4.81625
10.12 4.85189
10.13 4.83083
10.14 4.74712
10.15 4.61262
10.16 4.42597
10.17 4.19709
10.18 3.93267
10.19 3.63932
10.2 3.32787
10.21 3.00478
10.22 2.67968
10.23 2.3597
10.24 2.05211
10.25 1.76118
10.26 1.49427
10.27 1.25101
10.28 1.03616
10.29 0.848385
10.3 0.687061
10.31 0.552042
10.32 0.438117
10.33 0.345196
10.34 0.267137
10.35 0.201467
10.36 0.144257
10.37 0.0919405
10.38 0.0418219
10.39 -0.00871634
10.4 -0.0615962
10.41 -0.117931
10.42 -0.17828
10.43 -0.242955
10.44 -0.311072
10.45 -0.382261
10.46 -0.455023
10.47 -0.528239
10.48 -0.600468
10.49 -0.670619
10.5 -0.737077
10.51 -0.799426
10.52 -0.85639
10.53 -0.907777
10.54 -0.953325
10.55 -0.992551
10.56 -1.02623
10.57 -1.0537
10.58 -1.07599
10.59 -1.093
10.6 -1.10502
10.61 -1.11256
10.62 -1.11513
10.63 -1.11348
10.64 -1.10706
10.65 -1.09611
10.66 -1.08058
10.67 -1.06011
10.68 -1.0353
10.69 -1.00561
10.7 -0.971943
10.71 -0.934482
10.72 -0.89394
10.73 -0.851276
10.74 -0.807345
10.75 -0.763418
10.76 -0.720762
10.77 -0.680637
10.78 -0.644209
10.79 -0.613051
10.8 -0.587523
10.81 -0.569465
10.82 -0.558568
10.83 -0.555651
10.84 -0.560768
10.85 -0.573176
10.86 -0.593311
10.87 -0.619368
10.88 -0.65109
10.89 -0.686936
10.9 -0.725766
10.91 -0.766368
10.92 -0.807413
10.93 -0.847676
10.94 -0.88621
10.95 -0.922054
10.96 -0.954466
10.97 -0.983246
10.98 -1.00758
10.99 -1.02805
11 -1.04432
11.01 -1.05697
11.02 -1.06643
11.03 -1.0731
11.04 -1.07785
11.05 -1.08109
11.06 -1.08368
11.07 -1.08614
11.08 -1.08908
11.09 -1.09291
11.1 -1.09814
11.11 -1.10482
11.12 -1.1132
11.13 -1.12313
11.14 -1.13437
11.15 -1.14656
11.16 -1.15905
11.17 -1.17098
11.18 -1.18143
11.19 -1.18915
11.2 -1.19263
11.21 -1.19077
11.22 -1.18089
11.23 -1.16239
11.24 -1.13234
11.25 -1.08954
11.26 -1.03242
11.27 -0.958228
11.28 -0.867678
11.29 -0.757085
11.3 -0.628344
11.31 -0.480191
11.32 -0.313174
11.33 -0.129594
11.34 0.0708547
11.35 0.283475
11.36 0.506638
11.37 0.735882
11.38 0.967386
11.39 1.19629
11.4 1.41861
11.41 1.62798
11.42 1.82124
11.43 1.99304
11.44 2.13896
11.45 2.25766
11.46 2.34211
11.47 2.39529
11.48 2.41232
11.49 2.39541
11.5 2.34547
11.51 2.26226
11.52 2.15193
11.53 2.01395
11.54 1.8557
11.55 1.6801
11.56 1.49222
11.57 1.29719
11.58 1.09932
11.59 0.903216
11.6 0.713115
11.61 0.532211
11.62 0.36301
11.63 0.20861
11.64 0.0685192
11.65 -0.0543759
11.66 -0.162288
11.67 -0.254941
11.68 -0.333656
11.69 -0.400867
11.7 -0.457107
11.71 -0.505868
11.72 -0.548307
11.73 -0.58682
11.74 -0.622982
11.75 -0.658166
11.76 -0.693388
11.77 -0.729291
11.78 -0.765928
11.79 -0.803072
11.8 -0.839988
11.81 -0.875784
11.82 -0.908822
11.83 -0.938061
11.84 -0.961402
11.85 -0.977488
11.86 -0.984887
11.87 -0.981359
11.88 -0.967002
11.89 -0.939014
11.9 -0.898357
11.91 -0.843883
11.92 -0.775578
11.93 -0.694761
11.94 -0.600508
11.95 -0.495783
11.96 -0.380791
11.97 -0.25799
11.98 -0.129272
11.99 0.00330641
12 0.137147
12.01 0.269727
12.02 0.398675
12.03 0.521379
12.04 0.635219
12.05 0.738812
12.06 0.828369
12.07 0.904203
12.08 0.963216
12.09 1.00535
12.1 1.03011
12.11 1.03607
12.12 1.02562
12.13 0.99697
12.14 0.953464
12.15 0.895635
12.16 0.82548
12.17 0.745803
12.18 0.657921
12.19 0.565349
12.2 0.470029
12.21 0.37463
12.22 0.281196
12.23 0.192054
12.24 0.108188
12.25 0.0317741
12.26 -0.0372862
12.27 -0.0981986
12.28 -0.151033
12.29 -0.196811
12.3 -0.235492
12.31 -0.269179
12.32 -0.298633
12.33 -0.325626
12.34 -0.351507
12.35 -0.377694
12.36 -0.405192
12.37 -0.435143
12.38 -0.46775
12.39 -0.503267
12.4 -0.541349
