# xPDFsuite Configuration #
[PDF]
wavelength = 0.1432
dataformat = twotheta
inputfile = 1_1Pd_CeO2_cycle-00329.chi
backgroundfile = background-00000.chi
mode = xray
bgscale = 1.007
composition = CeO2
outputtype = gr
qmaxinst = 28.8974762299
qmin = 0.5
qmax = 27.9
rmax = 50.0
rmin = 0.0
rstep = 0.01
rpoly = 1.8657

[Misc]
inputdir = G:/SankarDec16/1Pd/Chi
savedir = D:/DATA/APS_CeO2/1Pd
backgroundfilefull = G:/SankarDec16/Background/background-00000.chi

#### start data
#S 1
#L r($\AA$)  G($\AA^{-2}$)
0 0
0.01 -0.00692095
0.02 -0.0133212
0.03 -0.0186644
0.04 -0.0225468
0.05 -0.0247432
0.06 -0.0248919
0.07 -0.0232332
0.08 -0.01965
0.09 -0.0146012
0.1 -0.00840388
0.11 -0.00154374
0.12 0.00544854
0.13 0.0119785
0.14 0.0176234
0.15 0.0218666
0.16 0.0244046
0.17 0.0251154
0.18 0.023751
0.19 0.0206638
0.2 0.0158656
0.21 0.00989092
0.22 0.00313414
0.23 -0.00385952
0.24 -0.01059
0.25 -0.0164167
0.26 -0.0210347
0.27 -0.0239714
0.28 -0.0250379
0.29 -0.0242209
0.3 -0.0213981
0.31 -0.0170179
0.32 -0.0112206
0.33 -0.00459165
0.34 0.00241568
0.35 0.00922178
0.36 0.0153807
0.37 0.0202359
0.38 0.0236142
0.39 0.0251097
0.4 0.0246568
0.41 0.0223524
0.42 0.0182058
0.43 0.0127406
0.44 0.00621926
0.45 -0.000748525
0.46 -0.00767215
0.47 -0.0139642
0.48 -0.0192541
0.49 -0.0229002
0.5 -0.0248696
0.51 -0.0248421
0.52 -0.0228794
0.53 -0.019184
0.54 -0.0138973
0.55 -0.00759407
0.56 -0.000646595
0.57 0.00633922
0.58 0.0128585
0.59 0.0183432
0.6 0.0225162
0.61 0.0247806
0.62 0.025246
0.63 0.0236936
0.64 0.0203099
0.65 0.0153943
0.66 0.00921405
0.67 0.00236845
0.68 -0.00467709
0.69 -0.0113487
0.7 -0.0171509
0.71 -0.0215614
0.72 -0.0244095
0.73 -0.0251713
0.74 -0.0240936
0.75 -0.0210692
0.76 -0.0164006
0.77 -0.0104693
0.78 -0.00365557
0.79 0.00344536
0.8 0.0102986
0.81 0.0163894
0.82 0.0212565
0.83 0.0244487
0.84 0.02591
0.85 0.0252152
0.86 0.0227352
0.87 0.0184782
0.88 0.0128456
0.89 0.00627966
0.9 -0.000750368
0.91 -0.0076873
0.92 -0.0139627
0.93 -0.0191533
0.94 -0.0228655
0.95 -0.0247557
0.96 -0.0248912
0.97 -0.022992
0.98 -0.0195345
0.99 -0.0146625
1 -0.00886425
1.01 -0.00262289
1.02 0.00350954
1.03 0.00905926
1.04 0.0134437
1.05 0.0163765
1.06 0.0175679
1.07 0.0168265
1.08 0.014377
1.09 0.0101455
1.1 0.0047361
1.11 -0.00151508
1.12 -0.00799367
1.13 -0.0141472
1.14 -0.0192636
1.15 -0.0229591
1.16 -0.0245455
1.17 -0.0238734
1.18 -0.0207104
1.19 -0.014966
1.2 -0.00705468
1.21 0.00299594
1.22 0.0143632
1.23 0.0265568
1.24 0.038783
1.25 0.0503512
1.26 0.0603461
1.27 0.0683281
1.28 0.0734024
1.29 0.0753872
1.3 0.0739451
1.31 0.0688695
1.32 0.0606252
1.33 0.0490077
1.34 0.034985
1.35 0.0189124
1.36 0.00160684
1.37 -0.0161895
1.38 -0.0336518
1.39 -0.0501307
1.4 -0.0647831
1.41 -0.0772004
1.42 -0.0869166
1.43 -0.093523
1.44 -0.0972135
1.45 -0.0974996
1.46 -0.0950391
1.47 -0.089817
1.48 -0.0822893
1.49 -0.0729171
1.5 -0.0619968
1.51 -0.0501343
1.52 -0.0376362
1.53 -0.0249429
1.54 -0.01235
1.55 -0.0001531
1.56 0.0115007
1.57 0.0223309
1.58 0.0323372
1.59 0.0413377
1.6 0.0492624
1.61 0.0560675
1.62 0.0615125
1.63 0.0656579
1.64 0.0681795
1.65 0.0690756
1.66 0.0681686
1.67 0.0652564
1.68 0.0604627
1.69 0.0534238
1.7 0.0445133
1.71 0.0336685
1.72 0.0211781
1.73 0.0073904
1.74 -0.00738339
1.75 -0.0225767
1.76 -0.0376971
1.77 -0.0521939
1.78 -0.0655518
1.79 -0.0771941
1.8 -0.0869331
1.81 -0.0941045
1.82 -0.098939
1.83 -0.101207
1.84 -0.101153
1.85 -0.0991537
1.86 -0.0955078
1.87 -0.0909499
1.88 -0.0860203
1.89 -0.0814282
1.9 -0.0777799
1.91 -0.075735
1.92 -0.0755337
1.93 -0.0778328
1.94 -0.0823669
1.95 -0.0892604
1.96 -0.0981258
1.97 -0.108435
1.98 -0.119593
1.99 -0.130748
2 -0.140973
2.01 -0.149421
2.02 -0.155221
2.03 -0.157399
2.04 -0.155736
2.05 -0.149016
2.06 -0.13772
2.07 -0.12135
2.08 -0.100223
2.09 -0.0748633
2.1 -0.0454128
2.11 -0.0130137
2.12 0.0219694
2.13 0.0585367
2.14 0.096063
2.15 0.133897
2.16 0.171563
2.17 0.208639
2.18 0.24504
2.19 0.280684
2.2 0.315721
2.21 0.350375
2.22 0.384908
2.23 0.419582
2.24 0.454618
2.25 0.490049
2.26 0.525777
2.27 0.561443
2.28 0.596546
2.29 0.630057
2.3 0.661186
2.31 0.688505
2.32 0.710684
2.33 0.726685
2.34 0.734319
2.35 0.733557
2.36 0.722244
2.37 0.700675
2.38 0.66837
2.39 0.625141
2.4 0.572688
2.41 0.510712
2.42 0.442147
2.43 0.368235
2.44 0.29146
2.45 0.214074
2.46 0.138706
2.47 0.0672315
2.48 0.00234623
2.49 -0.0547752
2.5 -0.102754
2.51 -0.140395
2.52 -0.168563
2.53 -0.186029
2.54 -0.195235
2.55 -0.196704
2.56 -0.192473
2.57 -0.184564
2.58 -0.174917
2.59 -0.165672
2.6 -0.158856
2.61 -0.155884
2.62 -0.157961
2.63 -0.166083
2.64 -0.17983
2.65 -0.199826
2.66 -0.224388
2.67 -0.252789
2.68 -0.283331
2.69 -0.314395
2.7 -0.344081
2.71 -0.371028
2.72 -0.393369
2.73 -0.410391
2.74 -0.421347
2.75 -0.425787
2.76 -0.424649
2.77 -0.417872
2.78 -0.407474
2.79 -0.394616
2.8 -0.381233
2.81 -0.369002
2.82 -0.360038
2.83 -0.355357
2.84 -0.356802
2.85 -0.364613
2.86 -0.379165
2.87 -0.400398
2.88 -0.42689
2.89 -0.458041
2.9 -0.491481
2.91 -0.525485
2.92 -0.55778
2.93 -0.586552
2.94 -0.609274
2.95 -0.625291
2.96 -0.632567
2.97 -0.631349
2.98 -0.621546
2.99 -0.603621
3 -0.579573
3.01 -0.550426
3.02 -0.519086
3.03 -0.487706
3.04 -0.458922
3.05 -0.434731
3.06 -0.41793
3.07 -0.409002
3.08 -0.410009
3.09 -0.420369
3.1 -0.439886
3.11 -0.467707
3.12 -0.501449
3.13 -0.539608
3.14 -0.579038
3.15 -0.617252
3.16 -0.651494
3.17 -0.679827
3.18 -0.69948
3.19 -0.710429
3.2 -0.710982
3.21 -0.702364
3.22 -0.685414
3.23 -0.661835
3.24 -0.634505
3.25 -0.60611
3.26 -0.579915
3.27 -0.559198
3.28 -0.546934
3.29 -0.54494
3.3 -0.556325
3.31 -0.580145
3.32 -0.617964
3.33 -0.667422
3.34 -0.726826
3.35 -0.793357
3.36 -0.863076
3.37 -0.931939
3.38 -0.995943
3.39 -1.05071
3.4 -1.09264
3.41 -1.11973
3.42 -1.12821
3.43 -1.11987
3.44 -1.09305
3.45 -1.05126
3.46 -0.997016
3.47 -0.934252
3.48 -0.868097
3.49 -0.803854
3.5 -0.746349
3.51 -0.70084
3.52 -0.671263
3.53 -0.659377
3.54 -0.668551
3.55 -0.695465
3.56 -0.739866
3.57 -0.795644
3.58 -0.857141
3.59 -0.915875
3.6 -0.963991
3.61 -0.98841
3.62 -0.982523
3.63 -0.933991
3.64 -0.834338
3.65 -0.679299
3.66 -0.456664
3.67 -0.172816
3.68 0.180243
3.69 0.593201
3.7 1.0613
3.71 1.57657
3.72 2.1234
3.73 2.69093
3.74 3.26043
3.75 3.81555
3.76 4.33812
3.77 4.81448
3.78 5.22175
3.79 5.55629
3.8 5.79682
3.81 5.94315
3.82 5.98916
3.83 5.92943
3.84 5.77721
3.85 5.52368
3.86 5.19242
3.87 4.78786
3.88 4.32658
3.89 3.82509
3.9 3.29698
3.91 2.76078
3.92 2.23145
3.93 1.72288
3.94 1.24684
3.95 0.815747
3.96 0.431572
3.97 0.107651
3.98 -0.162615
3.99 -0.374839
4 -0.533266
4.01 -0.644654
4.02 -0.710585
4.03 -0.743807
4.04 -0.748042
4.05 -0.733802
4.06 -0.707706
4.07 -0.676691
4.08 -0.646399
4.09 -0.622072
4.1 -0.605978
4.11 -0.600607
4.12 -0.606291
4.13 -0.621946
4.14 -0.646932
4.15 -0.677849
4.16 -0.712577
4.17 -0.747701
4.18 -0.780447
4.19 -0.807674
4.2 -0.827859
4.21 -0.837746
4.22 -0.837596
4.23 -0.825914
4.24 -0.802911
4.25 -0.769558
4.26 -0.725661
4.27 -0.673729
4.28 -0.614112
4.29 -0.548917
4.3 -0.47932
4.31 -0.4065
4.32 -0.33174
4.33 -0.255675
4.34 -0.17912
4.35 -0.102479
4.36 -0.0261131
4.37 0.0497441
4.38 0.124717
4.39 0.19859
4.4 0.270706
4.41 0.340528
4.42 0.407208
4.43 0.469438
4.44 0.526592
4.45 0.576297
4.46 0.618233
4.47 0.650391
4.48 0.671653
4.49 0.681627
4.5 0.678172
4.51 0.662727
4.52 0.633748
4.53 0.592857
4.54 0.540692
4.55 0.478182
4.56 0.407876
4.57 0.330617
4.58 0.249436
4.59 0.166058
4.6 0.0827712
4.61 0.00132876
4.62 -0.0761165
4.63 -0.148786
4.64 -0.21497
4.65 -0.274546
4.66 -0.327164
4.67 -0.372628
4.68 -0.412067
4.69 -0.44524
4.7 -0.473879
4.71 -0.498509
4.72 -0.520242
4.73 -0.540033
4.74 -0.55853
4.75 -0.576458
4.76 -0.594146
4.77 -0.611791
4.78 -0.629365
4.79 -0.646647
4.8 -0.663374
4.81 -0.679
4.82 -0.693266
4.83 -0.705682
4.84 -0.715976
4.85 -0.724105
4.86 -0.729807
4.87 -0.733553
4.88 -0.735414
4.89 -0.736013
4.9 -0.735841
4.91 -0.735529
4.92 -0.735632
4.93 -0.736847
4.94 -0.739466
4.95 -0.743916
4.96 -0.750325
4.97 -0.758575
4.98 -0.768663
4.99 -0.780017
5 -0.792321
5.01 -0.804944
5.02 -0.817372
5.03 -0.829018
5.04 -0.839571
5.05 -0.848491
5.06 -0.855849
5.07 -0.861513
5.08 -0.865688
5.09 -0.868706
5.1 -0.870852
5.11 -0.872612
5.12 -0.874299
5.13 -0.876149
5.14 -0.878194
5.15 -0.880187
5.16 -0.881657
5.17 -0.881532
5.18 -0.878832
5.19 -0.871856
5.2 -0.85878
5.21 -0.838167
5.22 -0.806858
5.23 -0.764475
5.24 -0.707788
5.25 -0.636571
5.26 -0.549809
5.27 -0.446497
5.28 -0.328795
5.29 -0.195689
5.3 -0.0513277
5.31 0.102561
5.32 0.262084
5.33 0.423318
5.34 0.581418
5.35 0.732399
5.36 0.870424
5.37 0.991871
5.38 1.09266
5.39 1.16791
5.4 1.21788
5.41 1.23631
5.42 1.22682
5.43 1.1873
5.44 1.11973
5.45 1.02764
5.46 0.911728
5.47 0.778857
5.48 0.631427
5.49 0.475528
5.5 0.315557
5.51 0.156541
5.52 0.00230543
5.53 -0.141997
5.54 -0.274594
5.55 -0.392146
5.56 -0.493199
5.57 -0.577904
5.58 -0.644298
5.59 -0.695499
5.6 -0.730851
5.61 -0.753402
5.62 -0.764825
5.63 -0.766898
5.64 -0.762452
5.65 -0.752498
5.66 -0.739336
5.67 -0.723827
5.68 -0.706818
5.69 -0.688683
5.7 -0.669207
5.71 -0.648189
5.72 -0.624758
5.73 -0.59831
5.74 -0.568074
5.75 -0.533118
5.76 -0.493532
5.77 -0.448373
5.78 -0.398631
5.79 -0.344525
5.8 -0.287229
5.81 -0.228165
5.82 -0.169042
5.83 -0.111671
5.84 -0.0583731
5.85 -0.0108952
5.86 0.0289505
5.87 0.0590036
5.88 0.0791815
5.89 0.0869239
5.9 0.0836257
5.91 0.0685361
5.92 0.0425737
5.93 0.00732012
5.94 -0.0366654
5.95 -0.0865509
5.96 -0.141113
5.97 -0.197959
5.98 -0.255375
5.99 -0.311529
6 -0.36531
6.01 -0.415165
6.02 -0.461018
6.03 -0.502335
6.04 -0.539387
6.05 -0.572873
6.06 -0.603255
6.07 -0.631865
6.08 -0.65955
6.09 -0.687418
6.1 -0.716275
6.11 -0.746876
6.12 -0.779344
6.13 -0.814
6.14 -0.850202
6.15 -0.88743
6.16 -0.924653
6.17 -0.960839
6.18 -0.994439
6.19 -1.02462
6.2 -1.04976
6.21 -1.06931
6.22 -1.08263
6.23 -1.08914
6.24 -1.08974
6.25 -1.08411
6.26 -1.0741
6.27 -1.06058
6.28 -1.04522
6.29 -1.02953
6.3 -1.01513
6.31 -1.00302
6.32 -0.994286
6.33 -0.988915
6.34 -0.986506
6.35 -0.985832
6.36 -0.984861
6.37 -0.980313
6.38 -0.96908
6.39 -0.946499
6.4 -0.907709
6.41 -0.849177
6.42 -0.762954
6.43 -0.6485
6.44 -0.498096
6.45 -0.311417
6.46 -0.0863181
6.47 0.17972
6.48 0.481368
6.49 0.821472
6.5 1.19044
6.51 1.58483
6.52 1.99623
6.53 2.41586
6.54 2.83371
6.55 3.24026
6.56 3.62307
6.57 3.97316
6.58 4.28097
6.59 4.53442
6.6 4.73253
6.61 4.85949
6.62 4.92101
6.63 4.90986
6.64 4.82731
6.65 4.6794
6.66 4.463
6.67 4.19329
6.68 3.87149
6.69 3.5111
6.7 3.12104
6.71 2.71146
6.72 2.29404
6.73 1.87911
6.74 1.47594
6.75 1.09385
6.76 0.740539
6.77 0.41976
6.78 0.140504
6.79 -0.100319
6.8 -0.29666
6.81 -0.452425
6.82 -0.568917
6.83 -0.647396
6.84 -0.69548
6.85 -0.713304
6.86 -0.709882
6.87 -0.688387
6.88 -0.654375
6.89 -0.612677
6.9 -0.56696
6.91 -0.520992
6.92 -0.477532
6.93 -0.438417
6.94 -0.404847
6.95 -0.377781
6.96 -0.35656
6.97 -0.341712
6.98 -0.331693
6.99 -0.326072
7 -0.323844
7.01 -0.324099
7.02 -0.326434
7.03 -0.330197
7.04 -0.335441
7.05 -0.3422
7.06 -0.350837
7.07 -0.362072
7.08 -0.376228
7.09 -0.394569
7.1 -0.417166
7.11 -0.444838
7.12 -0.47782
7.13 -0.515818
7.14 -0.55912
7.15 -0.60642
7.16 -0.657274
7.17 -0.710187
7.18 -0.763892
7.19 -0.816768
7.2 -0.867531
7.21 -0.914205
7.22 -0.956056
7.23 -0.991696
7.24 -1.02042
7.25 -1.04228
7.26 -1.05644
7.27 -1.0643
7.28 -1.06581
7.29 -1.06249
7.3 -1.05543
7.31 -1.04585
7.32 -1.03519
7.33 -1.02458
7.34 -1.01495
7.35 -1.00695
7.36 -1.00079
7.37 -0.996178
7.38 -0.99252
7.39 -0.988611
7.4 -0.982821
7.41 -0.973348
7.42 -0.958209
7.43 -0.934648
7.44 -0.901621
7.45 -0.855338
7.46 -0.79589
7.47 -0.721032
7.48 -0.630179
7.49 -0.524173
7.5 -0.401757
7.51 -0.266382
7.52 -0.118415
7.53 0.0385256
7.54 0.201619
7.55 0.367282
7.56 0.531801
7.57 0.690565
7.58 0.840438
7.59 0.977101
7.6 1.09702
7.61 1.19848
7.62 1.27639
7.63 1.33231
7.64 1.36232
7.65 1.36799
7.66 1.34947
7.67 1.30658
7.68 1.24345
7.69 1.15922
7.7 1.05931
7.71 0.945345
7.72 0.820912
7.73 0.689587
7.74 0.554251
7.75 0.418503
7.76 0.285446
7.77 0.157822
7.78 0.0380341
7.79 -0.0710108
7.8 -0.168801
7.81 -0.251833
7.82 -0.320967
7.83 -0.374436
7.84 -0.41205
7.85 -0.434784
7.86 -0.441206
7.87 -0.434286
7.88 -0.413486
7.89 -0.381334
7.9 -0.339373
7.91 -0.289287
7.92 -0.233976
7.93 -0.175282
7.94 -0.116161
7.95 -0.0590496
7.96 -0.00664825
7.97 0.0391607
7.98 0.0750353
7.99 0.100543
8 0.112806
8.01 0.111685
8.02 0.0965697
8.03 0.0666307
8.04 0.023954
8.05 -0.0323518
8.06 -0.0989354
8.07 -0.174669
8.08 -0.256952
8.09 -0.343098
8.1 -0.430582
8.11 -0.516734
8.12 -0.598851
8.13 -0.674973
8.14 -0.743421
8.15 -0.802332
8.16 -0.852083
8.17 -0.890999
8.18 -0.920903
8.19 -0.941976
8.2 -0.955723
8.21 -0.964031
8.22 -0.968213
8.23 -0.970507
8.24 -0.972315
8.25 -0.974983
8.26 -0.979246
8.27 -0.985409
8.28 -0.992825
8.29 -1.00034
8.3 -1.00602
8.31 -1.00719
8.32 -1.0005
8.33 -0.983214
8.34 -0.949666
8.35 -0.898505
8.36 -0.823862
8.37 -0.724254
8.38 -0.597366
8.39 -0.440022
8.4 -0.255245
8.41 -0.039551
8.42 0.200858
8.43 0.464536
8.44 0.746256
8.45 1.03977
8.46 1.33906
8.47 1.63638
8.48 1.92356
8.49 2.19322
8.5 2.43825
8.51 2.6494
8.52 2.82481
8.53 2.95301
8.54 3.03643
8.55 3.06948
8.56 3.05177
8.57 2.98712
8.58 2.87205
8.59 2.71706
8.6 2.52223
8.61 2.29664
8.62 2.0464
8.63 1.77806
8.64 1.50025
8.65 1.21951
8.66 0.94301
8.67 0.677033
8.68 0.427261
8.69 0.196628
8.7 -0.00862694
8.71 -0.189974
8.72 -0.343363
8.73 -0.470823
8.74 -0.57316
8.75 -0.650883
8.76 -0.708902
8.77 -0.747266
8.78 -0.771698
8.79 -0.784311
8.8 -0.788655
8.81 -0.787931
8.82 -0.784506
8.83 -0.780883
8.84 -0.77886
8.85 -0.779666
8.86 -0.784067
8.87 -0.792697
8.88 -0.805081
8.89 -0.821463
8.9 -0.840766
8.91 -0.862518
8.92 -0.885856
8.93 -0.90998
8.94 -0.934168
8.95 -0.95783
8.96 -0.980411
8.97 -1.00165
8.98 -1.02138
8.99 -1.03946
9 -1.05614
9.01 -1.07136
9.02 -1.08549
9.03 -1.09864
9.04 -1.11096
9.05 -1.12259
9.06 -1.13341
9.07 -1.14341
9.08 -1.15221
9.09 -1.15951
9.1 -1.16485
9.11 -1.16745
9.12 -1.16704
9.13 -1.16236
9.14 -1.15326
9.15 -1.13881
9.16 -1.11841
9.17 -1.09202
9.18 -1.05846
9.19 -1.01858
9.2 -0.971625
9.21 -0.918359
9.22 -0.859193
9.23 -0.794534
9.24 -0.7258
9.25 -0.653547
9.26 -0.579488
9.27 -0.504833
9.28 -0.431199
9.29 -0.359904
9.3 -0.293016
9.31 -0.231336
9.32 -0.176925
9.33 -0.130543
9.34 -0.0931365
9.35 -0.0660817
9.36 -0.048639
9.37 -0.0424975
9.38 -0.0460004
9.39 -0.0593284
9.4 -0.0814995
9.41 -0.11093
9.42 -0.147009
9.43 -0.187317
9.44 -0.230641
9.45 -0.274952
9.46 -0.318658
9.47 -0.359929
9.48 -0.397737
9.49 -0.43021
9.5 -0.457148
9.51 -0.477628
9.52 -0.491482
9.53 -0.499281
9.54 -0.500792
9.55 -0.497664
9.56 -0.490415
9.57 -0.480634
9.58 -0.469579
9.59 -0.458721
9.6 -0.449248
9.61 -0.442728
9.62 -0.439797
9.63 -0.441452
9.64 -0.448205
9.65 -0.459911
9.66 -0.477141
9.67 -0.498795
9.68 -0.524833
9.69 -0.554184
9.7 -0.586064
9.71 -0.619638
9.72 -0.653927
9.73 -0.688157
9.74 -0.721655
9.75 -0.753841
9.76 -0.784279
9.77 -0.812821
9.78 -0.838971
9.79 -0.862881
9.8 -0.884026
9.81 -0.902199
9.82 -0.916851
9.83 -0.926772
9.84 -0.931368
9.85 -0.927963
9.86 -0.915512
9.87 -0.891006
9.88 -0.851472
9.89 -0.795149
9.9 -0.716146
9.91 -0.614629
9.92 -0.484809
9.93 -0.325973
9.94 -0.136335
9.95 0.0872882
9.96 0.34123
9.97 0.629244
9.98 0.944805
9.99 1.28652
10 1.64918
10.01 2.02617
10.02 2.41152
10.03 2.79668
10.04 3.17305
10.05 3.53218
10.06 3.86603
10.07 4.16369
10.08 4.42228
10.09 4.62815
10.1 4.78257
10.11 4.87817
10.12 4.91274
10.13 4.88982
10.14 4.80305
10.15 4.66424
10.16 4.47169
10.17 4.23534
10.18 3.96186
10.19 3.65786
10.2 3.33452
10.21 2.99847
10.22 2.65986
10.23 2.32625
10.24 2.00548
10.25 1.70227
10.26 1.42474
10.27 1.17274
10.28 0.951696
10.29 0.760409
10.3 0.598435
10.31 0.465846
10.32 0.356984
10.33 0.271889
10.34 0.203677
10.35 0.149522
10.36 0.104848
10.37 0.0654424
10.38 0.0279091
10.39 -0.0109265
10.4 -0.0536772
10.41 -0.101847
10.42 -0.156314
10.43 -0.217774
10.44 -0.28509
10.45 -0.358163
10.46 -0.43491
10.47 -0.513997
10.48 -0.593464
10.49 -0.671642
10.5 -0.746368
10.51 -0.816652
10.52 -0.880638
10.53 -0.937726
10.54 -0.987334
10.55 -1.02862
10.56 -1.06251
10.57 -1.0881
10.58 -1.10685
10.59 -1.11885
10.6 -1.12479
10.61 -1.12566
10.62 -1.12144
10.63 -1.11332
10.64 -1.10124
10.65 -1.08577
10.66 -1.06709
10.67 -1.04512
10.68 -1.02028
10.69 -0.992189
10.7 -0.961343
10.71 -0.92772
10.72 -0.891633
10.73 -0.853623
10.74 -0.814083
10.75 -0.773928
10.76 -0.733976
10.77 -0.695257
10.78 -0.658761
10.79 -0.625875
10.8 -0.59718
10.81 -0.574463
10.82 -0.557865
10.83 -0.548476
10.84 -0.546808
10.85 -0.552552
10.86 -0.566695
10.87 -0.58776
10.88 -0.616009
10.89 -0.650123
10.9 -0.689147
10.91 -0.732098
10.92 -0.777369
10.93 -0.823858
10.94 -0.870093
10.95 -0.914857
10.96 -0.956921
10.97 -0.995594
10.98 -1.02951
10.99 -1.05882
11 -1.08262
11.01 -1.10119
11.02 -1.11469
11.03 -1.12317
11.04 -1.12772
11.05 -1.12847
11.06 -1.12674
11.07 -1.1232
11.08 -1.11886
11.09 -1.11457
11.1 -1.11128
11.11 -1.10952
11.12 -1.11004
11.13 -1.11304
11.14 -1.11861
11.15 -1.12675
11.16 -1.13675
11.17 -1.14808
11.18 -1.15951
11.19 -1.16974
11.2 -1.17702
11.21 -1.17988
11.22 -1.17534
11.23 -1.16235
11.24 -1.13759
11.25 -1.09949
11.26 -1.04615
11.27 -0.974453
11.28 -0.885047
11.29 -0.773886
11.3 -0.643022
11.31 -0.491119
11.32 -0.318844
11.33 -0.128769
11.34 0.0793035
11.35 0.300234
11.36 0.532139
11.37 0.770165
11.38 1.01017
11.39 1.24689
11.4 1.47613
11.41 1.6911
11.42 1.88857
11.43 2.06294
11.44 2.20965
11.45 2.32745
11.46 2.40909
11.47 2.45786
11.48 2.46885
11.49 2.4445
11.5 2.38595
11.51 2.29314
11.52 2.17259
11.53 2.02397
11.54 1.855
11.55 1.66889
11.56 1.471
11.57 1.26666
11.58 1.06058
11.59 0.857388
11.6 0.66164
11.61 0.476571
11.62 0.304756
11.63 0.149431
11.64 0.00989233
11.65 -0.110823
11.66 -0.215251
11.67 -0.303194
11.68 -0.376198
11.69 -0.436985
11.7 -0.486293
11.71 -0.527951
11.72 -0.563385
11.73 -0.59527
11.74 -0.625415
11.75 -0.655481
11.76 -0.68655
11.77 -0.719557
11.78 -0.754481
11.79 -0.791186
11.8 -0.828894
11.81 -0.866538
11.82 -0.902455
11.83 -0.93527
11.84 -0.96273
11.85 -0.983175
11.86 -0.994922
11.87 -0.995433
11.88 -0.984613
11.89 -0.959335
11.9 -0.920474
11.91 -0.866694
11.92 -0.797891
11.93 -0.715444
11.94 -0.618308
11.95 -0.509713
11.96 -0.389889
11.97 -0.261549
11.98 -0.126791
11.99 0.0120908
12 0.152239
12.01 0.290855
12.02 0.425367
12.03 0.55293
12.04 0.670735
12.05 0.777345
12.06 0.868738
12.07 0.945363
12.08 1.00401
12.09 1.04476
12.1 1.06722
12.11 1.07005
12.12 1.05587
12.13 1.023
12.14 0.975029
12.15 0.912636
12.16 0.837996
12.17 0.754032
12.18 0.662216
12.19 0.566091
12.2 0.467687
12.21 0.36966
12.22 0.274031
12.23 0.183104
12.24 0.0977556
12.25 0.0201155
12.26 -0.0500367
12.27 -0.111984
12.28 -0.165883
12.29 -0.212814
12.3 -0.252799
12.31 -0.287937
12.32 -0.319002
12.33 -0.347717
12.34 -0.375374
12.35 -0.403303
12.36 -0.432419
12.37 -0.463722
12.38 -0.497332
12.39 -0.533374
12.4 -0.571392
