# xPDFsuite Configuration #
[PDF]
wavelength = 0.1432
dataformat = twotheta
inputfile = 1_1Pd_CeO2_cycle-00342.chi
backgroundfile = background-00000.chi
mode = xray
bgscale = 1.007
composition = CeO2
outputtype = gr
qmaxinst = 28.8974762299
qmin = 0.5
qmax = 27.9
rmax = 50.0
rmin = 0.0
rstep = 0.01
rpoly = 1.8657

[Misc]
inputdir = G:/SankarDec16/1Pd/Chi
savedir = D:/DATA/APS_CeO2/1Pd
backgroundfilefull = G:/SankarDec16/Background/background-00000.chi

#### start data
#S 1
#L r($\AA$)  G($\AA^{-2}$)
0 0
0.01 -0.00723767
0.02 -0.0139328
0.03 -0.0195267
0.04 -0.0235979
0.05 -0.0259112
0.06 -0.0260882
0.07 -0.024378
0.08 -0.0206562
0.09 -0.0153992
0.1 -0.00893554
0.11 -0.00176942
0.12 0.00554576
0.13 0.0123924
0.14 0.0183268
0.15 0.0228096
0.16 0.0255203
0.17 0.026328
0.18 0.0249685
0.19 0.0218049
0.2 0.0168428
0.21 0.0106362
0.22 0.00359221
0.23 -0.00372377
0.24 -0.0107883
0.25 -0.0169357
0.26 -0.0218406
0.27 -0.0250069
0.28 -0.0262293
0.29 -0.0254866
0.3 -0.0226413
0.31 -0.0181545
0.32 -0.0121619
0.33 -0.00527081
0.34 0.0020508
0.35 0.00920085
0.36 0.015709
0.37 0.0208909
0.38 0.0245537
0.39 0.0262667
0.4 0.025949
0.41 0.0236907
0.42 0.019487
0.43 0.0138773
0.44 0.00712159
0.45 -0.00014573
0.46 -0.00741654
0.47 -0.0140781
0.48 -0.0197342
0.49 -0.0237122
0.5 -0.0259604
0.51 -0.0261327
0.52 -0.0242769
0.53 -0.0205907
0.54 -0.0152029
0.55 -0.00870787
0.56 -0.00147868
0.57 0.00585067
0.58 0.0127545
0.59 0.0186359
0.6 0.023191
0.61 0.0257883
0.62 0.0265202
0.63 0.0251414
0.64 0.0218264
0.65 0.0168722
0.66 0.010537
0.67 0.00344341
0.68 -0.00393794
0.69 -0.0110011
0.7 -0.0172261
0.71 -0.022058
0.72 -0.0252989
0.73 -0.0263863
0.74 -0.025553
0.75 -0.022665
0.76 -0.0180161
0.77 -0.0119897
0.78 -0.00496082
0.79 0.00244656
0.8 0.00968684
0.81 0.016209
0.82 0.0215229
0.83 0.025141
0.84 0.0269803
0.85 0.0265737
0.86 0.0242829
0.87 0.0200906
0.88 0.0143953
0.89 0.00764653
0.9 0.000315611
0.91 -0.00700482
0.92 -0.0137266
0.93 -0.0193847
0.94 -0.0235506
0.95 -0.0258378
0.96 -0.0262878
0.97 -0.0245712
0.98 -0.0211627
0.99 -0.0161801
1 -0.0101152
1.01 -0.00346588
1.02 0.0032067
1.03 0.00938278
1.04 0.01445
1.05 0.0180704
1.06 0.0199094
1.07 0.0197217
1.08 0.0177022
1.09 0.0137124
1.1 0.00835719
1.11 0.00193722
1.12 -0.00493103
1.13 -0.011679
1.14 -0.0175925
1.15 -0.0222316
1.16 -0.0248838
1.17 -0.0253384
1.18 -0.0233149
1.19 -0.0186636
1.2 -0.0117574
1.21 -0.00255494
1.22 0.0081363
1.23 0.0198726
1.24 0.0318746
1.25 0.0434503
1.26 0.0537064
1.27 0.0621592
1.28 0.0679207
1.29 0.0707607
1.3 0.070316
1.31 0.0663459
1.32 0.0592725
1.33 0.048862
1.34 0.0360449
1.35 0.0211467
1.36 0.00495684
1.37 -0.0118017
1.38 -0.0283361
1.39 -0.0440003
1.4 -0.057986
1.41 -0.0698884
1.42 -0.0792623
1.43 -0.0857243
1.44 -0.0894638
1.45 -0.0900444
1.46 -0.0881009
1.47 -0.0836494
1.48 -0.0771418
1.49 -0.0690242
1.5 -0.0595993
1.51 -0.0494149
1.52 -0.0387573
1.53 -0.0279933
1.54 -0.0173547
1.55 -0.00704685
1.56 0.00285725
1.57 0.0122112
1.58 0.0210674
1.59 0.029364
1.6 0.0371001
1.61 0.0442654
1.62 0.0507181
1.63 0.056442
1.64 0.0611653
1.65 0.06477
1.66 0.0670067
1.67 0.0675553
1.68 0.0663773
1.69 0.0629451
1.7 0.0574595
1.71 0.0496652
1.72 0.0396805
1.73 0.0277389
1.74 0.0139437
1.75 -0.00110409
1.76 -0.0170671
1.77 -0.0332932
1.78 -0.0492324
1.79 -0.0642165
1.8 -0.0778434
1.81 -0.0893218
1.82 -0.0986038
1.83 -0.105244
1.84 -0.109236
1.85 -0.110767
1.86 -0.109856
1.87 -0.107195
1.88 -0.103094
1.89 -0.0983087
1.9 -0.0934289
1.91 -0.0891577
1.92 -0.0859537
1.93 -0.0845512
1.94 -0.0850117
1.95 -0.087673
1.96 -0.0924385
1.97 -0.0990153
1.98 -0.107127
1.99 -0.116027
2 -0.125069
2.01 -0.133413
2.02 -0.140249
2.03 -0.144609
2.04 -0.14607
2.05 -0.143395
2.06 -0.136715
2.07 -0.125343
2.08 -0.109288
2.09 -0.088815
2.1 -0.0637377
2.11 -0.0350364
2.12 -0.00277091
2.13 0.0321217
2.14 0.0691206
2.15 0.107635
2.16 0.147022
2.17 0.186906
2.18 0.226872
2.19 0.266701
2.2 0.306265
2.21 0.345539
2.22 0.384508
2.23 0.423236
2.24 0.461684
2.25 0.499782
2.26 0.537319
2.27 0.573861
2.28 0.609019
2.29 0.641707
2.3 0.671391
2.31 0.696745
2.32 0.716659
2.33 0.730292
2.34 0.735675
2.35 0.732934
2.36 0.72012
2.37 0.697601
2.38 0.66498
2.39 0.622113
2.4 0.570606
2.41 0.510175
2.42 0.443552
2.43 0.371874
2.44 0.297445
2.45 0.222357
2.46 0.149051
2.47 0.0792981
2.48 0.0156246
2.49 -0.0408322
2.5 -0.0887447
2.51 -0.126941
2.52 -0.156187
2.53 -0.175257
2.54 -0.186414
2.55 -0.190096
2.56 -0.188193
2.57 -0.182603
2.58 -0.175133
2.59 -0.167847
2.6 -0.162669
2.61 -0.160997
2.62 -0.164018
2.63 -0.172736
2.64 -0.186805
2.65 -0.206875
2.66 -0.231376
2.67 -0.259647
2.68 -0.29007
2.69 -0.321085
2.7 -0.350849
2.71 -0.378004
2.72 -0.400693
2.73 -0.418161
2.74 -0.429613
2.75 -0.434524
2.76 -0.433765
2.77 -0.427165
2.78 -0.416701
2.79 -0.403454
2.8 -0.38933
2.81 -0.376016
2.82 -0.365616
2.83 -0.359244
2.84 -0.358801
2.85 -0.364655
2.86 -0.377295
2.87 -0.39681
2.88 -0.421869
2.89 -0.452047
2.9 -0.484988
2.91 -0.519062
2.92 -0.551988
2.93 -0.581899
2.94 -0.606232
2.95 -0.62416
2.96 -0.633531
2.97 -0.634396
2.98 -0.626497
2.99 -0.610093
3 -0.587086
3.01 -0.558275
3.02 -0.526595
3.03 -0.494111
3.04 -0.463517
3.05 -0.436928
3.06 -0.417241
3.07 -0.405185
3.08 -0.403033
3.09 -0.410454
3.1 -0.42749
3.11 -0.453554
3.12 -0.486357
3.13 -0.524683
3.14 -0.565291
3.15 -0.605774
3.16 -0.64325
3.17 -0.675589
3.18 -0.699833
3.19 -0.715611
3.2 -0.720915
3.21 -0.716624
3.22 -0.703256
3.23 -0.682151
3.24 -0.656087
3.25 -0.627353
3.26 -0.599378
3.27 -0.575335
3.28 -0.558381
3.29 -0.550604
3.3 -0.555354
3.31 -0.57216
3.32 -0.602989
3.33 -0.645941
3.34 -0.69974
3.35 -0.762035
3.36 -0.82903
3.37 -0.897193
3.38 -0.962334
3.39 -1.02023
3.4 -1.06707
3.41 -1.10054
3.42 -1.11662
3.43 -1.11651
3.44 -1.09811
3.45 -1.06436
3.46 -1.01729
3.47 -0.96027
3.48 -0.898235
3.49 -0.835883
3.5 -0.77821
3.51 -0.73027
3.52 -0.696186
3.53 -0.678048
3.54 -0.679456
3.55 -0.697738
3.56 -0.733087
3.57 -0.780019
3.58 -0.8334
3.59 -0.885351
3.6 -0.928266
3.61 -0.949709
3.62 -0.942939
3.63 -0.895861
3.64 -0.799842
3.65 -0.650308
3.66 -0.434862
3.67 -0.159241
3.68 0.184952
3.69 0.589019
3.7 1.04871
3.71 1.55659
3.72 2.09734
3.73 2.66066
3.74 3.22771
3.75 3.78234
3.76 4.30625
3.77 4.78549
3.78 5.19697
3.79 5.5365
3.8 5.78242
3.81 5.93403
3.82 5.98477
3.83 5.92878
3.84 5.77916
3.85 5.52668
3.86 5.19508
3.87 4.78874
3.88 4.3245
3.89 3.8192
3.9 3.28678
3.91 2.74628
3.92 2.21315
3.93 1.7017
3.94 1.22409
3.95 0.793128
3.96 0.410786
3.97 0.0907401
3.98 -0.173996
3.99 -0.379122
4 -0.529317
4.01 -0.631827
4.02 -0.688791
4.03 -0.713526
4.04 -0.71044
4.05 -0.690504
4.06 -0.660795
4.07 -0.62871
4.08 -0.599789
4.09 -0.579705
4.1 -0.570158
4.11 -0.573525
4.12 -0.589578
4.13 -0.616616
4.14 -0.653349
4.15 -0.695657
4.16 -0.740638
4.17 -0.784305
4.18 -0.823346
4.19 -0.854076
4.2 -0.875052
4.21 -0.882509
4.22 -0.877309
4.23 -0.858046
4.24 -0.825511
4.25 -0.781328
4.26 -0.725956
4.27 -0.662691
4.28 -0.592673
4.29 -0.518628
4.3 -0.442294
4.31 -0.365412
4.32 -0.289212
4.33 -0.214841
4.34 -0.142536
4.35 -0.0726156
4.36 -0.00487536
4.37 0.0610929
4.38 0.12555
4.39 0.189048
4.4 0.25169
4.41 0.313531
4.42 0.374253
4.43 0.43307
4.44 0.489288
4.45 0.540983
4.46 0.587267
4.47 0.626012
4.48 0.655533
4.49 0.674817
4.5 0.681085
4.51 0.67507
4.52 0.654497
4.53 0.620464
4.54 0.573139
4.55 0.513004
4.56 0.442729
4.57 0.3628
4.58 0.276842
4.59 0.18676
4.6 0.0954266
4.61 0.00521209
4.62 -0.0810692
4.63 -0.162007
4.64 -0.235175
4.65 -0.300012
4.66 -0.355768
4.67 -0.401884
4.68 -0.439692
4.69 -0.468694
4.7 -0.49127
4.71 -0.508203
4.72 -0.52124
4.73 -0.531961
4.74 -0.541728
4.75 -0.551834
4.76 -0.563343
4.77 -0.576812
4.78 -0.592565
4.79 -0.610678
4.8 -0.630608
4.81 -0.651995
4.82 -0.673867
4.83 -0.695417
4.84 -0.715692
4.85 -0.734005
4.86 -0.749344
4.87 -0.761639
4.88 -0.770221
4.89 -0.775391
4.9 -0.777323
4.91 -0.776383
4.92 -0.773454
4.93 -0.769075
4.94 -0.764277
4.95 -0.759826
4.96 -0.756528
4.97 -0.754897
4.98 -0.755657
4.99 -0.758743
5 -0.764529
5.01 -0.772659
5.02 -0.782887
5.03 -0.794831
5.04 -0.807843
5.05 -0.821466
5.06 -0.835067
5.07 -0.848158
5.08 -0.860296
5.09 -0.871234
5.1 -0.88057
5.11 -0.888381
5.12 -0.894361
5.13 -0.898567
5.14 -0.900842
5.15 -0.900834
5.16 -0.898446
5.17 -0.892634
5.18 -0.883103
5.19 -0.868556
5.2 -0.8478
5.21 -0.819933
5.22 -0.782476
5.23 -0.735356
5.24 -0.675918
5.25 -0.604022
5.26 -0.518768
5.27 -0.419186
5.28 -0.30701
5.29 -0.181132
5.3 -0.0450132
5.31 0.100043
5.32 0.250758
5.33 0.403708
5.34 0.554691
5.35 0.699966
5.36 0.834211
5.37 0.953834
5.38 1.05482
5.39 1.13228
5.4 1.18605
5.41 1.20974
5.42 1.20636
5.43 1.17339
5.44 1.11228
5.45 1.02617
5.46 0.915226
5.47 0.786164
5.48 0.641031
5.49 0.485971
5.5 0.325418
5.51 0.164536
5.52 0.00754554
5.53 -0.140133
5.54 -0.276227
5.55 -0.39699
5.56 -0.500538
5.57 -0.586743
5.58 -0.65323
5.59 -0.703164
5.6 -0.735693
5.61 -0.754104
5.62 -0.760272
5.63 -0.756302
5.64 -0.745494
5.65 -0.729349
5.66 -0.710638
5.67 -0.690738
5.68 -0.670922
5.69 -0.651775
5.7 -0.633527
5.71 -0.615735
5.72 -0.597697
5.73 -0.578391
5.74 -0.556727
5.75 -0.531308
5.76 -0.501619
5.77 -0.466096
5.78 -0.425166
5.79 -0.378432
5.8 -0.326575
5.81 -0.270783
5.82 -0.212249
5.83 -0.153082
5.84 -0.0954
5.85 -0.041427
5.86 0.00667217
5.87 0.0462416
5.88 0.0765185
5.89 0.0943047
5.9 0.100359
5.91 0.0932863
5.92 0.073471
5.93 0.0422345
5.94 -0.000406244
5.95 -0.0513385
5.96 -0.109559
5.97 -0.172208
5.98 -0.237225
5.99 -0.302295
6 -0.365624
6.01 -0.425034
6.02 -0.479806
6.03 -0.528768
6.04 -0.571646
6.05 -0.608868
6.06 -0.640344
6.07 -0.66766
6.08 -0.691417
6.09 -0.713157
6.1 -0.733995
6.11 -0.755123
6.12 -0.777326
6.13 -0.80148
6.14 -0.827592
6.15 -0.855745
6.16 -0.885448
6.17 -0.915965
6.18 -0.94631
6.19 -0.975474
6.2 -1.00213
6.21 -1.0254
6.22 -1.04441
6.23 -1.05831
6.24 -1.06739
6.25 -1.07096
6.26 -1.07026
6.27 -1.0657
6.28 -1.05845
6.29 -1.04973
6.3 -1.04071
6.31 -1.03238
6.32 -1.02559
6.33 -1.02047
6.34 -1.01673
6.35 -1.01328
6.36 -1.0085
6.37 -0.999263
6.38 -0.98292
6.39 -0.955082
6.4 -0.911212
6.41 -0.848005
6.42 -0.757799
6.43 -0.640104
6.44 -0.487392
6.45 -0.299299
6.46 -0.0736764
6.47 0.192012
6.48 0.492606
6.49 0.830953
6.5 1.19766
6.51 1.58936
6.52 1.99775
6.53 2.41413
6.54 2.82854
6.55 3.23155
6.56 3.61076
6.57 3.95722
6.58 4.26145
6.59 4.51143
6.6 4.70624
6.61 4.83023
6.62 4.88918
6.63 4.87604
6.64 4.79223
6.65 4.6439
6.66 4.42818
6.67 4.16021
6.68 3.84144
6.69 3.4853
6.7 3.10069
6.71 2.6977
6.72 2.28774
6.73 1.88099
6.74 1.48632
6.75 1.11275
6.76 0.767514
6.77 0.454056
6.78 0.180824
6.79 -0.0554195
6.8 -0.249106
6.81 -0.404194
6.82 -0.522092
6.83 -0.604142
6.84 -0.657605
6.85 -0.682625
6.86 -0.68761
6.87 -0.675398
6.88 -0.650987
6.89 -0.61871
6.9 -0.5816
6.91 -0.543068
6.92 -0.505278
6.93 -0.469859
6.94 -0.437795
6.95 -0.409845
6.96 -0.385667
6.97 -0.365677
6.98 -0.348961
6.99 -0.335391
7 -0.324542
7.01 -0.316051
7.02 -0.310156
7.03 -0.306652
7.04 -0.306217
7.05 -0.30916
7.06 -0.316104
7.07 -0.328018
7.08 -0.344941
7.09 -0.368281
7.1 -0.397493
7.11 -0.433108
7.12 -0.474782
7.13 -0.521667
7.14 -0.573408
7.15 -0.628229
7.16 -0.685054
7.17 -0.742088
7.18 -0.797788
7.19 -0.850264
7.2 -0.898502
7.21 -0.940356
7.22 -0.975704
7.23 -1.00343
7.24 -1.02339
7.25 -1.0362
7.26 -1.04165
7.27 -1.04162
7.28 -1.03671
7.29 -1.02876
7.3 -1.01914
7.31 -1.00938
7.32 -1.00069
7.33 -0.994414
7.34 -0.990894
7.35 -0.990578
7.36 -0.993157
7.37 -0.99779
7.38 -1.00333
7.39 -1.00805
7.4 -1.00975
7.41 -1.00625
7.42 -0.995248
7.43 -0.973651
7.44 -0.940565
7.45 -0.891908
7.46 -0.828241
7.47 -0.747429
7.48 -0.649294
7.49 -0.53513
7.5 -0.40409
7.51 -0.260132
7.52 -0.104091
7.53 0.060031
7.54 0.229085
7.55 0.399127
7.56 0.566452
7.57 0.726099
7.58 0.875191
7.59 1.00937
7.6 1.12528
7.61 1.22151
7.62 1.29311
7.63 1.34204
7.64 1.36463
7.65 1.36277
7.66 1.3369
7.67 1.28711
7.68 1.2177
7.69 1.12814
7.7 1.02388
7.71 0.906754
7.72 0.780448
7.73 0.648525
7.74 0.51408
7.75 0.380521
7.76 0.2511
7.77 0.128402
7.78 0.0147594
7.79 -0.0869896
7.8 -0.17661
7.81 -0.250696
7.82 -0.310473
7.83 -0.354435
7.84 -0.382771
7.85 -0.396778
7.86 -0.395546
7.87 -0.382268
7.88 -0.356956
7.89 -0.322344
7.9 -0.280237
7.91 -0.232646
7.92 -0.182248
7.93 -0.13122
7.94 -0.0819726
7.95 -0.0368074
7.96 0.00207468
7.97 0.033383
7.98 0.054383
7.99 0.0653612
8 0.0642346
8.01 0.0515213
8.02 0.0272277
8.03 -0.00872065
8.04 -0.0542067
8.05 -0.109322
8.06 -0.171187
8.07 -0.238542
8.08 -0.309199
8.09 -0.381144
8.1 -0.452315
8.11 -0.521118
8.12 -0.585656
8.13 -0.644967
8.14 -0.698229
8.15 -0.744603
8.16 -0.78481
8.17 -0.818253
8.18 -0.846525
8.19 -0.870171
8.2 -0.89047
8.21 -0.908709
8.22 -0.925928
8.23 -0.94318
8.24 -0.961152
8.25 -0.98006
8.26 -0.999701
8.27 -1.01927
8.28 -1.03757
8.29 -1.0523
8.3 -1.06155
8.31 -1.06221
8.32 -1.051
8.33 -1.02572
8.34 -0.980897
8.35 -0.916348
8.36 -0.826887
8.37 -0.712191
8.38 -0.570913
8.39 -0.401035
8.4 -0.206186
8.41 0.0159011
8.42 0.258999
8.43 0.521135
8.44 0.797132
8.45 1.08125
8.46 1.3676
8.47 1.64965
8.48 1.9199
8.49 2.17218
8.5 2.40038
8.51 2.59647
8.52 2.75927
8.53 2.87861
8.54 2.95702
8.55 2.98951
8.56 2.97576
8.57 2.9191
8.58 2.81606
8.59 2.6759
8.6 2.49815
8.61 2.29067
8.62 2.05858
8.63 1.80724
8.64 1.54453
8.65 1.27573
8.66 1.00778
8.67 0.746329
8.68 0.496917
8.69 0.262837
8.7 0.0502448
8.71 -0.141233
8.72 -0.307103
8.73 -0.448294
8.74 -0.564728
8.75 -0.655869
8.76 -0.725901
8.77 -0.773796
8.78 -0.805022
8.79 -0.821136
8.8 -0.825572
8.81 -0.821839
8.82 -0.812279
8.83 -0.800341
8.84 -0.78827
8.85 -0.778264
8.86 -0.771885
8.87 -0.770714
8.88 -0.774873
8.89 -0.78559
8.9 -0.801934
8.91 -0.823903
8.92 -0.85067
8.93 -0.881088
8.94 -0.914384
8.95 -0.949045
8.96 -0.984025
8.97 -1.01813
8.98 -1.05041
8.99 -1.07979
9 -1.10599
9.01 -1.12794
9.02 -1.14592
9.03 -1.15956
9.04 -1.16899
9.05 -1.17467
9.06 -1.17648
9.07 -1.17534
9.08 -1.17127
9.09 -1.16486
9.1 -1.1564
9.11 -1.14596
9.12 -1.13384
9.13 -1.11968
9.14 -1.10351
9.15 -1.08487
9.16 -1.06326
9.17 -1.0384
9.18 -1.00922
9.19 -0.975806
9.2 -0.937142
9.21 -0.893243
9.22 -0.843946
9.23 -0.788988
9.24 -0.729277
9.25 -0.664702
9.26 -0.596754
9.27 -0.526277
9.28 -0.454762
9.29 -0.383673
9.3 -0.314984
9.31 -0.250023
9.32 -0.191021
9.33 -0.139252
9.34 -0.0960605
9.35 -0.0632764
9.36 -0.0405083
9.37 -0.02988
9.38 -0.0298791
9.39 -0.0409123
9.4 -0.062062
9.41 -0.091641
9.42 -0.129073
9.43 -0.171604
9.44 -0.2179
9.45 -0.265623
9.46 -0.31295
9.47 -0.3578
9.48 -0.398971
9.49 -0.434386
9.5 -0.463802
9.51 -0.486229
9.52 -0.501514
9.53 -0.510314
9.54 -0.512446
9.55 -0.509715
9.56 -0.502728
9.57 -0.493185
9.58 -0.482412
9.59 -0.471922
9.6 -0.46289
9.61 -0.456842
9.62 -0.454323
9.63 -0.456214
9.64 -0.462883
9.65 -0.474085
9.66 -0.490197
9.67 -0.510117
9.68 -0.533684
9.69 -0.559886
9.7 -0.588004
9.71 -0.61731
9.72 -0.647054
9.73 -0.676678
9.74 -0.705783
9.75 -0.734075
9.76 -0.761406
9.77 -0.787793
9.78 -0.813082
9.79 -0.837358
9.8 -0.860281
9.81 -0.88149
9.82 -0.900299
9.83 -0.915312
9.84 -0.925556
9.85 -0.928048
9.86 -0.92133
9.87 -0.902013
9.88 -0.866744
9.89 -0.813555
9.9 -0.736154
9.91 -0.634813
9.92 -0.503565
9.93 -0.341927
9.94 -0.148326
9.95 0.0801288
9.96 0.339303
9.97 0.632504
9.98 0.952733
9.99 1.29812
10 1.66302
10.01 2.0406
10.02 2.42445
10.03 2.80623
10.04 3.17719
10.05 3.52924
10.06 3.85466
10.07 4.14301
10.08 4.392
10.09 4.58865
10.1 4.7348
10.11 4.82374
10.12 4.85384
10.13 4.82888
10.14 4.74314
10.15 4.60812
10.16 4.4224
10.17 4.19543
10.18 3.93351
10.19 3.64276
10.2 3.33355
10.21 3.0118
10.22 2.68687
10.23 2.36554
10.24 2.05491
10.25 1.75935
10.26 1.48614
10.27 1.23539
10.28 1.01211
10.29 0.815523
10.3 0.645515
10.31 0.50258
10.32 0.381923
10.33 0.284196
10.34 0.203422
10.35 0.137542
10.36 0.0827682
10.37 0.0353385
10.38 -0.00731705
10.39 -0.0485
10.4 -0.0903846
10.41 -0.134799
10.42 -0.182903
10.43 -0.235746
10.44 -0.292998
10.45 -0.355112
10.46 -0.420872
10.47 -0.489663
10.48 -0.560278
10.49 -0.631487
10.5 -0.70191
10.51 -0.770452
10.52 -0.835672
10.53 -0.896675
10.54 -0.952617
10.55 -1.00232
10.56 -1.04596
10.57 -1.0821
10.58 -1.11141
10.59 -1.13328
10.6 -1.14773
10.61 -1.15533
10.62 -1.15534
10.63 -1.14908
10.64 -1.1361
10.65 -1.11728
10.66 -1.09306
10.67 -1.06368
10.68 -1.0303
10.69 -0.99304
10.7 -0.953137
10.71 -0.911207
10.72 -0.868206
10.73 -0.825029
10.74 -0.782726
10.75 -0.742068
10.76 -0.704188
10.77 -0.6698
10.78 -0.639617
10.79 -0.614664
10.8 -0.594847
10.81 -0.58142
10.82 -0.573832
10.83 -0.572555
10.84 -0.577498
10.85 -0.588037
10.86 -0.604531
10.87 -0.62568
10.88 -0.651456
10.89 -0.680867
10.9 -0.713246
10.91 -0.74796
10.92 -0.784068
10.93 -0.820976
10.94 -0.857879
10.95 -0.894143
10.96 -0.929111
10.97 -0.962383
10.98 -0.993182
10.99 -1.02148
11 -1.04665
11.01 -1.06865
11.02 -1.08737
11.03 -1.10254
11.04 -1.11462
11.05 -1.1233
11.06 -1.12926
11.07 -1.13266
11.08 -1.134
11.09 -1.13387
11.1 -1.13273
11.11 -1.13127
11.12 -1.13003
11.13 -1.12953
11.14 -1.13011
11.15 -1.13212
11.16 -1.13539
11.17 -1.13987
11.18 -1.14486
11.19 -1.14956
11.2 -1.15264
11.21 -1.15286
11.22 -1.14769
11.23 -1.13587
11.24 -1.11427
11.25 -1.081
11.26 -1.03388
11.27 -0.969447
11.28 -0.887843
11.29 -0.784567
11.3 -0.661179
11.31 -0.515886
11.32 -0.348941
11.33 -0.162737
11.34 0.0433398
11.35 0.263951
11.36 0.49736
11.37 0.738421
11.38 0.982733
11.39 1.22474
11.4 1.45975
11.41 1.6806
11.42 1.88361
11.43 2.06279
11.44 2.21326
11.45 2.33361
11.46 2.41629
11.47 2.46478
11.48 2.4741
11.49 2.447
11.5 2.38489
11.51 2.28802
11.52 2.16334
11.53 2.01096
11.54 1.83893
11.55 1.65083
11.56 1.45231
11.57 1.24877
11.58 1.04518
11.59 0.845909
11.6 0.655514
11.61 0.476874
11.62 0.312241
11.63 0.164453
11.64 0.0323624
11.65 -0.0815041
11.66 -0.180039
11.67 -0.26347
11.68 -0.333671
11.69 -0.393433
11.7 -0.443856
11.71 -0.488449
11.72 -0.528718
11.73 -0.566963
11.74 -0.604674
11.75 -0.643137
11.76 -0.682923
11.77 -0.724492
11.78 -0.767375
11.79 -0.810985
11.8 -0.854152
11.81 -0.895658
11.82 -0.933413
11.83 -0.966266
11.84 -0.991796
11.85 -1.00863
11.86 -1.01533
11.87 -1.00964
11.88 -0.991949
11.89 -0.959498
11.9 -0.913642
11.91 -0.853454
11.92 -0.779241
11.93 -0.692592
11.94 -0.592897
11.95 -0.483288
11.96 -0.36422
11.97 -0.238237
11.98 -0.107293
11.99 0.0264703
12 0.160609
12.01 0.292555
12.02 0.420172
12.03 0.540948
12.04 0.652442
12.05 0.753453
12.06 0.840348
12.07 0.913593
12.08 0.970229
12.09 1.01029
12.1 1.03335
12.11 1.03804
12.12 1.02672
12.13 0.997644
12.14 0.954067
12.15 0.896492
12.16 0.826848
12.17 0.747859
12.18 0.660786
12.19 0.569063
12.2 0.474572
12.21 0.379928
12.22 0.287131
12.23 0.198452
12.24 0.114864
12.25 0.0384799
12.26 -0.0307968
12.27 -0.0922114
12.28 -0.145861
12.29 -0.192762
12.3 -0.23294
12.31 -0.268454
12.32 -0.300107
12.33 -0.329636
12.34 -0.358363
12.35 -0.387675
12.36 -0.418482
12.37 -0.451852
12.38 -0.487858
12.39 -0.526622
12.4 -0.567631
12.41 -0.60991
12.42 -0.652149
12.43 -0.692779
