# xPDFsuite Configuration #
[PDF]
wavelength = 0.1432
dataformat = twotheta
inputfile = 1_1Pd_CeO2_cycle-00131.chi
backgroundfile = background-00000.chi
mode = xray
bgscale = 1.007
composition = CeO2
outputtype = gr
qmaxinst = 28.8974762299
qmin = 0.5
qmax = 27.9
rmax = 50.0
rmin = 0.0
rstep = 0.01
rpoly = 1.8657

[Misc]
inputdir = G:/SankarDec16/1Pd/Chi
savedir = D:/DATA/APS_CeO2/1Pd
backgroundfilefull = G:/SankarDec16/Background/background-00000.chi

#### start data
#S 1
#L r($\AA$)  G($\AA^{-2}$)
0 0
0.01 -0.0083231
0.02 -0.0160192
0.03 -0.0224426
0.04 -0.027107
0.05 -0.029742
0.06 -0.0299123
0.07 -0.0279079
0.08 -0.0235887
0.09 -0.0175077
0.1 -0.0100476
0.11 -0.00179399
0.12 0.00661442
0.13 0.014461
0.14 0.0212381
0.15 0.026324
0.16 0.0293547
0.17 0.0301848
0.18 0.0285177
0.19 0.0247793
0.2 0.0189865
0.21 0.0117839
0.22 0.00364783
0.23 -0.00476413
0.24 -0.0128507
0.25 -0.0198398
0.26 -0.025367
0.27 -0.0288647
0.28 -0.0301082
0.29 -0.0290846
0.3 -0.0256501
0.31 -0.0203469
0.32 -0.0133477
0.33 -0.00535888
0.34 0.00307249
0.35 0.0112476
0.36 0.0186315
0.37 0.0244337
0.38 0.0284502
0.39 0.0301949
0.4 0.0295934
0.41 0.0267664
0.42 0.0217301
0.43 0.0151177
0.44 0.00724977
0.45 -0.00113902
0.46 -0.00945679
0.47 -0.0169964
0.48 -0.0233153
0.49 -0.0276422
0.5 -0.0299437
0.51 -0.0298388
0.52 -0.0274078
0.53 -0.0228994
0.54 -0.0164902
0.55 -0.00887404
0.56 -0.000504652
0.57 0.0078894
0.58 0.0157001
0.59 0.0222453
0.6 0.0271965
0.61 0.0298388
0.62 0.0303116
0.63 0.028358
0.64 0.0242094
0.65 0.0182314
0.66 0.0107535
0.67 0.00249731
0.68 -0.00597162
0.69 -0.0139654
0.7 -0.020889
0.71 -0.0261178
0.72 -0.0294537
0.73 -0.0302721
0.74 -0.0288791
0.75 -0.025154
0.76 -0.0194685
0.77 -0.0122874
0.78 -0.00407613
0.79 0.00445067
0.8 0.0126449
0.81 0.019893
0.82 0.0256439
0.83 0.0293619
0.84 0.0309897
0.85 0.0300266
0.86 0.0269295
0.87 0.0217206
0.88 0.0148929
0.89 0.00698495
0.9 -0.00142703
0.91 -0.00967635
0.92 -0.0170717
0.93 -0.0231119
0.94 -0.0273281
0.95 -0.0293146
0.96 -0.0291664
0.97 -0.0265575
0.98 -0.022077
0.99 -0.0159127
1 -0.00866741
1.01 -0.000933432
1.02 0.00660614
1.03 0.0133793
1.04 0.0186666
1.05 0.0221242
1.06 0.0233967
1.07 0.0222472
1.08 0.0189547
1.09 0.0134148
1.1 0.00637157
1.11 -0.00177673
1.12 -0.0102838
1.13 -0.0184768
1.14 -0.0254992
1.15 -0.0308707
1.16 -0.0337591
1.17 -0.0339644
1.18 -0.0311907
1.19 -0.0253051
1.2 -0.0167834
1.21 -0.0056188
1.22 0.0072222
1.23 0.0211955
1.24 0.0353838
1.25 0.0489856
1.26 0.0609647
1.27 0.0707903
1.28 0.0774549
1.29 0.0807315
1.3 0.0802356
1.31 0.0757327
1.32 0.0677358
1.33 0.0560261
1.34 0.041679
1.35 0.0250968
1.36 0.00718759
1.37 -0.011229
1.38 -0.0292442
1.39 -0.046157
1.4 -0.0610571
1.41 -0.0735232
1.42 -0.0830766
1.43 -0.0893149
1.44 -0.0924801
1.45 -0.0921096
1.46 -0.0889372
1.47 -0.0830036
1.48 -0.074832
1.49 -0.0649333
1.5 -0.0536712
1.51 -0.041661
1.52 -0.0292578
1.53 -0.0168851
1.54 -0.00483581
1.55 0.00661055
1.56 0.0173553
1.57 0.0271328
1.58 0.0360018
1.59 0.0438076
1.6 0.0505148
1.61 0.0561019
1.62 0.060345
1.63 0.0633083
1.64 0.0646692
1.65 0.0644191
1.66 0.0623744
1.67 0.0583298
1.68 0.0524107
1.69 0.0442692
1.7 0.0343001
1.71 0.0224821
1.72 0.00915546
1.73 -0.00528245
1.74 -0.0204252
1.75 -0.0356797
1.76 -0.0504465
1.77 -0.0641632
1.78 -0.076276
1.79 -0.0861885
1.8 -0.0937865
1.81 -0.0984046
1.82 -0.100429
1.83 -0.0997284
1.84 -0.0967139
1.85 -0.091916
1.86 -0.0858507
1.87 -0.0793634
1.88 -0.0732236
1.89 -0.0682011
1.9 -0.0649975
1.91 -0.0643359
1.92 -0.0663361
1.93 -0.0716924
1.94 -0.0798647
1.95 -0.0908358
1.96 -0.103944
1.97 -0.118406
1.98 -0.1333
1.99 -0.147573
2 -0.159956
2.01 -0.169489
2.02 -0.175156
2.03 -0.175884
2.04 -0.171619
2.05 -0.161096
2.06 -0.145186
2.07 -0.123599
2.08 -0.0970444
2.09 -0.0664094
2.1 -0.0323078
2.11 0.00383755
2.12 0.0411765
2.13 0.0785553
2.14 0.115143
2.15 0.150148
2.16 0.183337
2.17 0.214213
2.18 0.243243
2.19 0.270635
2.2 0.297092
2.21 0.323349
2.22 0.350335
2.23 0.378716
2.24 0.409411
2.25 0.442695
2.26 0.47879
2.27 0.51759
2.28 0.558292
2.29 0.600075
2.3 0.641405
2.31 0.680554
2.32 0.715485
2.33 0.744484
2.34 0.764552
2.35 0.77504
2.36 0.772913
2.37 0.758044
2.38 0.729471
2.39 0.686581
2.4 0.631337
2.41 0.563028
2.42 0.485416
2.43 0.399965
2.44 0.309921
2.45 0.218301
2.46 0.128574
2.47 0.0434244
2.48 -0.0335014
2.49 -0.10043
2.5 -0.155378
2.51 -0.196585
2.52 -0.22507
2.53 -0.239054
2.54 -0.24176
2.55 -0.233844
2.56 -0.21807
2.57 -0.197226
2.58 -0.174045
2.59 -0.151558
2.6 -0.132724
2.61 -0.119641
2.62 -0.11416
2.63 -0.1179
2.64 -0.130357
2.65 -0.152747
2.66 -0.182677
2.67 -0.219328
2.68 -0.26032
2.69 -0.303298
2.7 -0.345607
2.71 -0.385001
2.72 -0.41871
2.73 -0.445335
2.74 -0.463487
2.75 -0.4721
2.76 -0.472172
2.77 -0.463064
2.78 -0.447467
2.79 -0.426627
2.8 -0.403132
2.81 -0.379371
2.82 -0.35818
2.83 -0.341428
2.84 -0.331819
2.85 -0.330244
2.86 -0.337678
2.87 -0.354634
2.88 -0.379616
2.89 -0.412533
2.9 -0.450362
2.91 -0.491256
2.92 -0.532296
2.93 -0.570978
2.94 -0.60405
2.95 -0.630071
2.96 -0.646173
2.97 -0.65202
2.98 -0.646984
2.99 -0.631032
3 -0.606298
3.01 -0.573397
3.02 -0.535927
3.03 -0.496242
3.04 -0.457673
3.05 -0.422924
3.06 -0.395586
3.07 -0.376877
3.08 -0.369741
3.09 -0.374115
3.1 -0.390322
3.11 -0.41797
3.12 -0.454462
3.13 -0.498679
3.14 -0.546695
3.15 -0.595774
3.16 -0.642404
3.17 -0.683893
3.18 -0.716618
3.19 -0.739792
3.2 -0.750791
3.21 -0.7503
3.22 -0.738616
3.23 -0.716941
3.24 -0.688375
3.25 -0.65515
3.26 -0.621332
3.27 -0.590398
3.28 -0.566052
3.29 -0.550859
3.3 -0.548703
3.31 -0.559433
3.32 -0.585465
3.33 -0.625005
3.34 -0.676886
3.35 -0.738777
3.36 -0.806587
3.37 -0.876703
3.38 -0.944443
3.39 -1.00528
3.4 -1.05499
3.41 -1.09095
3.42 -1.10873
3.43 -1.10946
3.44 -1.09078
3.45 -1.05576
3.46 -1.00649
3.47 -0.946589
3.48 -0.881318
3.49 -0.815748
3.5 -0.755271
3.51 -0.705369
3.52 -0.670529
3.53 -0.653044
3.54 -0.65688
3.55 -0.679189
3.56 -0.720301
3.57 -0.774365
3.58 -0.835965
3.59 -0.89678
3.6 -0.948678
3.61 -0.978606
3.62 -0.979343
3.63 -0.938192
3.64 -0.846079
3.65 -0.69822
3.66 -0.481738
3.67 -0.202693
3.68 0.147504
3.69 0.55964
3.7 1.0291
3.71 1.54793
3.72 2.10012
3.73 2.67468
3.74 3.25214
3.75 3.81566
3.76 4.34641
3.77 4.83013
3.78 5.24319
3.79 5.58166
3.8 5.82362
3.81 5.96886
3.82 6.01115
3.83 5.94509
3.84 5.78449
3.85 5.5207
3.86 5.17816
3.87 4.76187
3.88 4.28921
3.89 3.77734
3.9 3.24072
3.91 2.69821
3.92 2.16551
3.93 1.65654
3.94 1.18322
3.95 0.757983
3.96 0.38221
3.97 0.0691338
3.98 -0.188798
3.99 -0.387759
4 -0.532842
4.01 -0.631515
4.02 -0.686267
4.03 -0.710247
4.04 -0.707975
4.05 -0.690091
4.06 -0.663421
4.07 -0.635007
4.08 -0.609963
4.09 -0.593533
4.1 -0.587071
4.11 -0.592586
4.12 -0.609606
4.13 -0.636355
4.14 -0.671353
4.15 -0.71074
4.16 -0.751637
4.17 -0.790428
4.18 -0.82409
4.19 -0.849315
4.2 -0.865009
4.21 -0.867839
4.22 -0.858872
4.23 -0.837001
4.24 -0.803142
4.25 -0.758897
4.26 -0.704808
4.27 -0.643851
4.28 -0.577063
4.29 -0.506795
4.3 -0.434492
4.31 -0.361543
4.32 -0.28891
4.33 -0.217379
4.34 -0.147093
4.35 -0.0781868
4.36 -0.010451
4.37 0.0564146
4.38 0.122605
4.39 0.18835
4.4 0.253538
4.41 0.317887
4.42 0.380794
4.43 0.441153
4.44 0.498133
4.45 0.5495
4.46 0.594449
4.47 0.630784
4.48 0.656966
4.49 0.672202
4.5 0.673939
4.51 0.663274
4.52 0.638272
4.53 0.600364
4.54 0.550021
4.55 0.488042
4.56 0.417137
4.57 0.338091
4.58 0.2543
4.59 0.167666
4.6 0.0808108
4.61 -0.00420831
4.62 -0.0848855
4.63 -0.16022
4.64 -0.228179
4.65 -0.288533
4.66 -0.340822
4.67 -0.384775
4.68 -0.421698
4.69 -0.451332
4.7 -0.475751
4.71 -0.495662
4.72 -0.512492
4.73 -0.527475
4.74 -0.541599
4.75 -0.555787
4.76 -0.570685
4.77 -0.586594
4.78 -0.603606
4.79 -0.621597
4.8 -0.640145
4.81 -0.658778
4.82 -0.676912
4.83 -0.693927
4.84 -0.709269
4.85 -0.72263
4.86 -0.733452
4.87 -0.741969
4.88 -0.747949
4.89 -0.751848
4.9 -0.753992
4.91 -0.75484
4.92 -0.75502
4.93 -0.755049
4.94 -0.755456
4.95 -0.756688
4.96 -0.75906
4.97 -0.762669
4.98 -0.767688
4.99 -0.773824
5 -0.780987
5.01 -0.78878
5.02 -0.796894
5.03 -0.804977
5.04 -0.812781
5.05 -0.820039
5.06 -0.826745
5.07 -0.832888
5.08 -0.838637
5.09 -0.844219
5.1 -0.849925
5.11 -0.855984
5.12 -0.862629
5.13 -0.869844
5.14 -0.877468
5.15 -0.885021
5.16 -0.89183
5.17 -0.89654
5.18 -0.898041
5.19 -0.894401
5.2 -0.883653
5.21 -0.86431
5.22 -0.83301
5.23 -0.789525
5.24 -0.730509
5.25 -0.655919
5.26 -0.564844
5.27 -0.456427
5.28 -0.333101
5.29 -0.194037
5.3 -0.0436922
5.31 0.115944
5.32 0.280693
5.33 0.446427
5.34 0.607959
5.35 0.761267
5.36 0.900224
5.37 1.02123
5.38 1.12018
5.39 1.19216
5.4 1.23768
5.41 1.25047
5.42 1.23455
5.43 1.18799
5.44 1.11311
5.45 1.01376
5.46 0.89098
5.47 0.751903
5.48 0.599314
5.49 0.439479
5.5 0.277002
5.51 0.117137
5.52 -0.0364002
5.53 -0.178197
5.54 -0.306803
5.55 -0.418891
5.56 -0.513252
5.57 -0.590337
5.58 -0.648416
5.59 -0.691014
5.6 -0.717803
5.61 -0.732189
5.62 -0.736166
5.63 -0.731889
5.64 -0.722309
5.65 -0.708882
5.66 -0.693828
5.67 -0.678221
5.68 -0.66289
5.69 -0.648063
5.7 -0.633578
5.71 -0.618826
5.72 -0.602847
5.73 -0.584636
5.74 -0.56313
5.75 -0.537034
5.76 -0.506106
5.77 -0.468974
5.78 -0.426393
5.79 -0.378224
5.8 -0.325397
5.81 -0.269239
5.82 -0.211129
5.83 -0.15308
5.84 -0.0972158
5.85 -0.0455315
5.86 2.65644e-05
5.87 0.0371146
5.88 0.0652495
5.89 0.0816453
5.9 0.0872354
5.91 0.0809156
5.92 0.0631919
5.93 0.0353417
5.94 -0.00255718
5.95 -0.0477631
5.96 -0.0994639
5.97 -0.155269
5.98 -0.213543
5.99 -0.272515
6 -0.330755
6.01 -0.386747
6.02 -0.439902
6.03 -0.489443
6.04 -0.535189
6.05 -0.577427
6.06 -0.616124
6.07 -0.652265
6.08 -0.686189
6.09 -0.718755
6.1 -0.750507
6.11 -0.781915
6.12 -0.813263
6.13 -0.844585
6.14 -0.875686
6.15 -0.906131
6.16 -0.93527
6.17 -0.962504
6.18 -0.986694
6.19 -1.00753
6.2 -1.02389
6.21 -1.03566
6.22 -1.04261
6.23 -1.04461
6.24 -1.04257
6.25 -1.03669
6.26 -1.0285
6.27 -1.01898
6.28 -1.00957
6.29 -1.0014
6.3 -0.995893
6.31 -0.993417
6.32 -0.994701
6.33 -0.999177
6.34 -1.00601
6.35 -1.01345
6.36 -1.01925
6.37 -1.01957
6.38 -1.01139
6.39 -0.989777
6.4 -0.94993
6.41 -0.888529
6.42 -0.797639
6.43 -0.677238
6.44 -0.519806
6.45 -0.325508
6.46 -0.0925745
6.47 0.181078
6.48 0.489807
6.49 0.836001
6.5 1.20994
6.51 1.60792
6.52 2.02143
6.53 2.44175
6.54 2.85876
6.55 3.26327
6.56 3.64288
6.57 3.98894
6.58 4.29212
6.59 4.54062
6.6 4.73373
6.61 4.85591
6.62 4.91303
6.63 4.89806
6.64 4.81237
6.65 4.66203
6.66 4.444
6.67 4.1733
6.68 3.85117
6.69 3.49092
6.7 3.10135
6.71 2.6925
6.72 2.27587
6.73 1.86168
6.74 1.4591
6.75 1.07737
6.76 0.724131
6.77 0.40315
6.78 0.1234
6.79 -0.118127
6.8 -0.31534
6.81 -0.472045
6.82 -0.589456
6.83 -0.668727
6.84 -0.717406
6.85 -0.735502
6.86 -0.732001
6.87 -0.709997
6.88 -0.675011
6.89 -0.631886
6.9 -0.584231
6.91 -0.535901
6.92 -0.489631
6.93 -0.44734
6.94 -0.410276
6.95 -0.379451
6.96 -0.354301
6.97 -0.335414
6.98 -0.321348
6.99 -0.311761
7 -0.305753
7.01 -0.302497
7.02 -0.301746
7.03 -0.302894
7.04 -0.306166
7.05 -0.311652
7.06 -0.319806
7.07 -0.331469
7.08 -0.346911
7.09 -0.367554
7.1 -0.393315
7.11 -0.425022
7.12 -0.462787
7.13 -0.506141
7.14 -0.555228
7.15 -0.608469
7.16 -0.66518
7.17 -0.723589
7.18 -0.782172
7.19 -0.838988
7.2 -0.892645
7.21 -0.940784
7.22 -0.982742
7.23 -1.01697
7.24 -1.0428
7.25 -1.06049
7.26 -1.06923
7.27 -1.07087
7.28 -1.0656
7.29 -1.05539
7.3 -1.04169
7.31 -1.02621
7.32 -1.01067
7.33 -0.996745
7.34 -0.985411
7.35 -0.97763
7.36 -0.973661
7.37 -0.973036
7.38 -0.975191
7.39 -0.978391
7.4 -0.980758
7.41 -0.979908
7.42 -0.97336
7.43 -0.957729
7.44 -0.931548
7.45 -0.890283
7.46 -0.833852
7.47 -0.759555
7.48 -0.666657
7.49 -0.556132
7.5 -0.42658
7.51 -0.2821
7.52 -0.123278
7.53 0.0455333
7.54 0.220897
7.55 0.398445
7.56 0.573843
7.57 0.741531
7.58 0.898016
7.59 1.03832
7.6 1.15858
7.61 1.25712
7.62 1.3285
7.63 1.37498
7.64 1.39273
7.65 1.38417
7.66 1.35014
7.67 1.29129
7.68 1.21263
7.69 1.11434
7.7 1.00248
7.71 0.879539
7.72 0.749661
7.73 0.616558
7.74 0.483756
7.75 0.354195
7.76 0.231129
7.77 0.116483
7.78 0.0120308
7.79 -0.0801233
7.8 -0.160482
7.81 -0.226547
7.82 -0.280073
7.83 -0.320248
7.84 -0.347674
7.85 -0.36367
7.86 -0.367678
7.87 -0.362217
7.88 -0.347146
7.89 -0.324346
7.9 -0.294893
7.91 -0.259861
7.92 -0.221116
7.93 -0.179708
7.94 -0.137551
7.95 -0.0961646
7.96 -0.057354
7.97 -0.0224861
7.98 0.00605435
7.99 0.0276646
8 0.0400334
8.01 0.0426351
8.02 0.0346059
8.03 0.0147773
8.04 -0.0156604
8.05 -0.0580735
8.06 -0.110121
8.07 -0.1714
8.08 -0.240138
8.09 -0.314209
8.1 -0.39192
8.11 -0.470674
8.12 -0.548321
8.13 -0.622758
8.14 -0.692229
8.15 -0.754738
8.16 -0.810031
8.17 -0.856206
8.18 -0.894311
8.19 -0.924047
8.2 -0.946312
8.21 -0.962549
8.22 -0.973508
8.23 -0.981285
8.24 -0.986912
8.25 -0.991782
8.26 -0.996664
8.27 -1.00194
8.28 -1.00737
8.29 -1.01194
8.3 -1.0142
8.31 -1.0118
8.32 -1.00173
8.33 -0.981522
8.34 -0.945808
8.35 -0.893273
8.36 -0.818203
8.37 -0.719011
8.38 -0.593279
8.39 -0.437675
8.4 -0.254951
8.41 -0.0413922
8.42 0.197064
8.43 0.459208
8.44 0.740016
8.45 1.03332
8.46 1.33325
8.47 1.63193
8.48 1.92118
8.49 2.1934
8.5 2.44126
8.51 2.65525
8.52 2.83327
8.53 2.96349
8.54 3.04819
8.55 3.08154
8.56 3.06304
8.57 2.99654
8.58 2.87846
8.59 2.7196
8.6 2.52013
8.61 2.2895
8.62 2.0341
8.63 1.76085
8.64 1.47869
8.65 1.19457
8.66 0.915813
8.67 0.648968
8.68 0.399819
8.69 0.171214
8.7 -0.0305286
8.71 -0.207267
8.72 -0.3551
8.73 -0.476484
8.74 -0.57259
8.75 -0.644374
8.76 -0.697083
8.77 -0.731278
8.78 -0.752839
8.79 -0.764189
8.8 -0.769
8.81 -0.770375
8.82 -0.770783
8.83 -0.772286
8.84 -0.776529
8.85 -0.784261
8.86 -0.795845
8.87 -0.811414
8.88 -0.830107
8.89 -0.851594
8.9 -0.874593
8.91 -0.898265
8.92 -0.921575
8.93 -0.943793
8.94 -0.964025
8.95 -0.982135
8.96 -0.997666
8.97 -1.01085
8.98 -1.02194
8.99 -1.03128
9 -1.03957
9.01 -1.04733
9.02 -1.05522
9.03 -1.06376
9.04 -1.07335
9.05 -1.08412
9.06 -1.09622
9.07 -1.10923
9.08 -1.12278
9.09 -1.13611
9.1 -1.14839
9.11 -1.15843
9.12 -1.16546
9.13 -1.16772
9.14 -1.16471
9.15 -1.15505
9.16 -1.13786
9.17 -1.113
9.18 -1.07898
9.19 -1.03695
9.2 -0.986088
9.21 -0.927501
9.22 -0.861895
9.23 -0.790027
9.24 -0.713779
9.25 -0.634141
9.26 -0.553231
9.27 -0.472676
9.28 -0.394447
9.29 -0.320015
9.3 -0.251841
9.31 -0.190544
9.32 -0.138371
9.33 -0.0958351
9.34 -0.0636984
9.35 -0.0431206
9.36 -0.032929
9.37 -0.0345283
9.38 -0.045816
9.39 -0.0666121
9.4 -0.0955549
9.41 -0.130826
9.42 -0.171405
9.43 -0.214886
9.44 -0.259786
9.45 -0.30416
9.46 -0.346468
9.47 -0.384926
9.48 -0.418838
9.49 -0.446422
9.5 -0.467882
9.51 -0.482536
9.52 -0.490538
9.53 -0.492714
9.54 -0.489158
9.55 -0.481646
9.56 -0.470949
9.57 -0.45871
9.58 -0.446232
9.59 -0.435042
9.6 -0.426151
9.61 -0.421145
9.62 -0.420389
9.63 -0.424753
9.64 -0.43453
9.65 -0.449374
9.66 -0.46965
9.67 -0.494104
9.68 -0.522522
9.69 -0.55375
9.7 -0.586947
9.71 -0.621224
9.72 -0.655699
9.73 -0.689597
9.74 -0.722416
9.75 -0.753688
9.76 -0.783144
9.77 -0.810788
9.78 -0.836312
9.79 -0.859965
9.8 -0.881382
9.81 -0.900402
9.82 -0.916505
9.83 -0.928506
9.84 -0.935682
9.85 -0.935319
9.86 -0.926161
9.87 -0.905041
9.88 -0.868763
9.89 -0.815381
9.9 -0.73872
9.91 -0.638845
9.92 -0.509716
9.93 -0.350561
9.94 -0.159536
9.95 0.0666145
9.96 0.324039
9.97 0.616505
9.98 0.937176
9.99 1.28448
10 1.6529
10.01 2.03552
10.02 2.42603
10.03 2.81565
10.04 3.1954
10.05 3.55667
10.06 3.89125
10.07 4.18806
10.08 4.44434
10.09 4.6463
10.1 4.79555
10.11 4.88485
10.12 4.9123
10.13 4.88178
10.14 4.78728
10.15 4.64098
10.16 4.44159
10.17 4.19933
10.18 3.92113
10.19 3.61392
10.2 3.28883
10.21 2.95276
10.22 2.6156
10.23 2.28489
10.24 1.96825
10.25 1.67007
10.26 1.39824
10.27 1.15221
10.28 0.937069
10.29 0.751305
10.3 0.594209
10.31 0.465564
10.32 0.359673
10.33 0.276339
10.34 0.208835
10.35 0.154344
10.36 0.108461
10.37 0.0672183
10.38 0.0274243
10.39 -0.013776
10.4 -0.0587286
10.41 -0.108684
10.42 -0.164326
10.43 -0.226132
10.44 -0.292981
10.45 -0.364627
10.46 -0.439173
10.47 -0.515361
10.48 -0.591442
10.49 -0.666
10.5 -0.737145
10.51 -0.804146
10.52 -0.865451
10.53 -0.920655
10.54 -0.969334
10.55 -1.01082
10.56 -1.04594
10.57 -1.07387
10.58 -1.09581
10.59 -1.11169
10.6 -1.1219
10.61 -1.12713
10.62 -1.127
10.63 -1.12243
10.64 -1.11299
10.65 -1.09908
10.66 -1.08072
10.67 -1.05767
10.68 -1.03053
10.69 -0.998845
10.7 -0.963498
10.71 -0.92468
10.72 -0.883086
10.73 -0.83963
10.74 -0.795166
10.75 -0.750901
10.76 -0.708095
10.77 -0.66797
10.78 -0.631673
10.79 -0.600766
10.8 -0.575582
10.81 -0.557964
10.82 -0.547578
10.83 -0.545236
10.84 -0.550975
10.85 -0.564032
10.86 -0.584825
10.87 -0.611531
10.88 -0.64387
10.89 -0.680292
10.9 -0.719648
10.91 -0.760725
10.92 -0.802209
10.93 -0.842896
10.94 -0.881873
10.95 -0.918221
10.96 -0.95125
10.97 -0.980796
10.98 -1.00612
10.99 -1.02781
11 -1.04557
11.01 -1.05997
11.02 -1.07142
11.03 -1.08027
11.04 -1.08732
11.05 -1.09287
11.06 -1.09764
11.07 -1.10205
11.08 -1.10654
11.09 -1.1114
11.1 -1.11698
11.11 -1.1233
11.12 -1.13048
11.13 -1.13841
11.14 -1.14689
11.15 -1.15558
11.16 -1.16406
11.17 -1.17158
11.18 -1.17749
11.19 -1.18074
11.2 -1.18009
11.21 -1.17462
11.22 -1.16196
11.23 -1.14153
11.24 -1.1106
11.25 -1.06794
11.26 -1.0119
11.27 -0.939644
11.28 -0.851605
11.29 -0.743879
11.3 -0.61799
11.31 -0.472338
11.32 -0.307084
11.33 -0.124284
11.34 0.0768265
11.35 0.291543
11.36 0.518521
11.37 0.753184
11.38 0.991588
11.39 1.2287
11.4 1.46004
11.41 1.67886
11.42 1.88142
11.43 2.06176
11.44 2.21481
11.45 2.33879
11.46 2.42584
11.47 2.47889
11.48 2.49246
11.49 2.4688
11.5 2.40891
11.51 2.31253
11.52 2.18656
11.53 2.0307
11.54 1.8533
11.55 1.65796
11.56 1.45067
11.57 1.23732
11.58 1.02334
11.59 0.813731
11.6 0.61367
11.61 0.426606
11.62 0.255268
11.63 0.103084
11.64 -0.0310816
11.65 -0.144174
11.66 -0.239446
11.67 -0.317125
11.68 -0.379431
11.69 -0.429702
11.7 -0.46944
11.71 -0.502906
11.72 -0.532201
11.73 -0.560263
11.74 -0.589096
11.75 -0.620605
11.76 -0.655455
11.77 -0.694653
11.78 -0.737463
11.79 -0.783346
11.8 -0.830862
11.81 -0.878311
11.82 -0.923283
11.83 -0.963926
11.84 -0.997305
11.85 -1.02145
11.86 -1.03445
11.87 -1.03347
11.88 -1.01878
11.89 -0.98713
11.9 -0.940054
11.91 -0.87656
11.92 -0.797159
11.93 -0.703844
11.94 -0.596249
11.95 -0.478118
11.96 -0.35033
11.97 -0.215953
11.98 -0.0773626
11.99 0.0628027
12 0.201952
12.01 0.337059
12.02 0.466101
12.03 0.586455
12.04 0.695781
12.05 0.793174
12.06 0.875087
12.07 0.942479
12.08 0.992629
12.09 1.02596
12.1 1.04235
12.11 1.04074
12.12 1.02366
12.13 0.989618
12.14 0.941869
12.15 0.880989
12.16 0.808875
12.17 0.728118
12.18 0.639946
12.19 0.547568
12.2 0.452781
12.21 0.358047
12.22 0.265273
12.23 0.176666
12.24 0.0931701
12.25 0.0169201
12.26 -0.0521335
12.27 -0.113152
12.28 -0.166125
12.29 -0.211998
12.3 -0.250637
12.31 -0.284109
12.32 -0.313124
12.33 -0.339466
12.34 -0.364518
12.35 -0.389758
12.36 -0.416289
12.37 -0.445366
12.38 -0.477293
12.39 -0.512433
12.4 -0.550528
12.41 -0.59074
12.42 -0.632072
