# xPDFsuite Configuration #
[PDF]
wavelength = 0.1432
dataformat = twotheta
inputfile = 1_1Pd_CeO2_cycle-00121.chi
backgroundfile = background-00000.chi
mode = xray
bgscale = 1.007
composition = CeO2
outputtype = gr
qmaxinst = 28.8974762299
qmin = 0.5
qmax = 27.9
rmax = 50.0
rmin = 0.0
rstep = 0.01
rpoly = 1.8657

[Misc]
inputdir = G:/SankarDec16/1Pd/Chi
savedir = D:/DATA/APS_CeO2/1Pd
backgroundfilefull = G:/SankarDec16/Background/background-00000.chi

#### start data
#S 1
#L r($\AA$)  G($\AA^{-2}$)
0 0
0.01 -0.00762008
0.02 -0.0146667
0.03 -0.0205495
0.04 -0.0248236
0.05 -0.0272412
0.06 -0.0274041
0.07 -0.0255767
0.08 -0.0216302
0.09 -0.01607
0.1 -0.00924516
0.11 -0.00169072
0.12 0.006009
0.13 0.0131993
0.14 0.0194146
0.15 0.024086
0.16 0.0268793
0.17 0.0276601
0.18 0.0261553
0.19 0.022753
0.2 0.0174664
0.21 0.0108841
0.22 0.00344061
0.23 -0.00426357
0.24 -0.0116776
0.25 -0.0180958
0.26 -0.0231824
0.27 -0.0264166
0.28 -0.0275903
0.29 -0.026689
0.3 -0.0235779
0.31 -0.018751
0.32 -0.0123626
0.33 -0.00505815
0.34 0.00266323
0.35 0.0101628
0.36 0.0169492
0.37 0.022299
0.38 0.0260214
0.39 0.0276687
0.4 0.0271689
0.41 0.0246285
0.42 0.0200577
0.43 0.0140336
0.44 0.00684523
0.45 -0.000835367
0.46 -0.00846747
0.47 -0.0154036
0.48 -0.0212352
0.49 -0.0252549
0.5 -0.0274262
0.51 -0.0273961
0.52 -0.0252325
0.53 -0.0211584
0.54 -0.0153295
0.55 -0.00837935
0.56 -0.000718476
0.57 0.0069851
0.58 0.0141747
0.59 0.0202238
0.6 0.0248267
0.61 0.027325
0.62 0.0278393
0.63 0.0261281
0.64 0.0223968
0.65 0.0169754
0.66 0.0101586
0.67 0.0026072
0.68 -0.00516552
0.69 -0.0125265
0.7 -0.0189291
0.71 -0.0237971
0.72 -0.0269422
0.73 -0.0277861
0.74 -0.0266011
0.75 -0.0232689
0.76 -0.0181231
0.77 -0.0115849
0.78 -0.00407412
0.79 0.00375244
0.8 0.0113041
0.81 0.0180127
0.82 0.023369
0.83 0.0268749
0.84 0.0284692
0.85 0.0276826
0.86 0.0249255
0.87 0.0202083
0.88 0.0139758
0.89 0.00671788
0.9 -0.00104397
0.91 -0.008693
0.92 -0.0155969
0.93 -0.0212863
0.94 -0.0253232
0.95 -0.0273242
0.96 -0.027364
0.97 -0.0251273
0.98 -0.0211442
0.99 -0.0155718
1 -0.00895297
1.01 -0.0018259
1.02 0.00519454
1.03 0.0115755
1.04 0.0166632
1.05 0.0201293
1.06 0.0216402
1.07 0.0209666
1.08 0.0183475
1.09 0.0136724
1.1 0.00760663
1.11 0.000498307
1.12 -0.00698333
1.13 -0.0142316
1.14 -0.0204791
1.15 -0.0252837
1.16 -0.0278977
1.17 -0.0281318
1.18 -0.0257168
1.19 -0.0205298
1.2 -0.0129942
1.21 -0.00310721
1.22 0.00826484
1.23 0.0206279
1.24 0.0331547
1.25 0.0451223
1.26 0.055593
1.27 0.0640936
1.28 0.0697149
1.29 0.0722606
1.3 0.0713915
1.31 0.0669079
1.32 0.0592843
1.33 0.0483423
1.34 0.0350623
1.35 0.0198253
1.36 0.00346132
1.37 -0.0132854
1.38 -0.0295837
1.39 -0.0448152
1.4 -0.0581594
1.41 -0.0692605
1.42 -0.077708
1.43 -0.0831705
1.44 -0.0858957
1.45 -0.0855129
1.46 -0.0827057
1.47 -0.0775506
1.48 -0.0705401
1.49 -0.0621406
1.5 -0.052698
1.51 -0.0427297
1.52 -0.0325439
1.53 -0.0224618
1.54 -0.0126915
1.55 -0.00340338
1.56 0.0053819
1.57 0.0135487
1.58 0.0211985
1.59 0.028301
1.6 0.0348853
1.61 0.0409582
1.62 0.0463999
1.63 0.0511908
1.64 0.0550733
1.65 0.0579219
1.66 0.0594902
1.67 0.0594655
1.68 0.0578065
1.69 0.0540175
1.7 0.0483003
1.71 0.0404372
1.72 0.0305736
1.73 0.0189633
1.74 0.00576521
1.75 -0.00843244
1.76 -0.0232438
1.77 -0.0380454
1.78 -0.0522976
1.79 -0.0653653
1.8 -0.0769216
1.81 -0.0862395
1.82 -0.0933796
1.83 -0.0980064
1.84 -0.100235
1.85 -0.100349
1.86 -0.0985317
1.87 -0.0954935
1.88 -0.0916917
1.89 -0.0878575
1.9 -0.0845984
1.91 -0.0825961
1.92 -0.0821701
1.93 -0.0840016
1.94 -0.0879282
1.95 -0.0941278
1.96 -0.102284
1.97 -0.111919
1.98 -0.122493
1.99 -0.133168
2 -0.143048
2.01 -0.151273
2.02 -0.156969
2.03 -0.159144
2.04 -0.157549
2.05 -0.150952
2.06 -0.139806
2.07 -0.123599
2.08 -0.10264
2.09 -0.0774529
2.1 -0.0481901
2.11 -0.0160061
2.12 0.0187102
2.13 0.0549437
2.14 0.092052
2.15 0.129371
2.16 0.166437
2.17 0.202834
2.18 0.238517
2.19 0.273451
2.2 0.307849
2.21 0.342
2.22 0.376269
2.23 0.41096
2.24 0.446405
2.25 0.48266
2.26 0.519668
2.27 0.557094
2.28 0.594364
2.29 0.630447
2.3 0.664397
2.31 0.694682
2.32 0.719799
2.33 0.738551
2.34 0.748521
2.35 0.749564
2.36 0.739281
2.37 0.717897
2.38 0.684827
2.39 0.6398
2.4 0.584638
2.41 0.518979
2.42 0.446043
2.43 0.367204
2.44 0.285233
2.45 0.202653
2.46 0.122445
2.47 0.046728
2.48 -0.0214124
2.49 -0.0806284
2.5 -0.129329
2.51 -0.166128
2.52 -0.192014
2.53 -0.20557
2.54 -0.209624
2.55 -0.204814
2.56 -0.193544
2.57 -0.178214
2.58 -0.161202
2.59 -0.14505
2.6 -0.132305
2.61 -0.124701
2.62 -0.123786
2.63 -0.130894
2.64 -0.145531
2.65 -0.16868
2.66 -0.198227
2.67 -0.233405
2.68 -0.272112
2.69 -0.312282
2.7 -0.351552
2.71 -0.387992
2.72 -0.419135
2.73 -0.443784
2.74 -0.460715
2.75 -0.468984
2.76 -0.469498
2.77 -0.461657
2.78 -0.447877
2.79 -0.429245
2.8 -0.408068
2.81 -0.386487
2.82 -0.367031
2.83 -0.351421
2.84 -0.342104
2.85 -0.339951
2.86 -0.345911
2.87 -0.360547
2.88 -0.382594
2.89 -0.412129
2.9 -0.446479
2.91 -0.484112
2.92 -0.522454
2.93 -0.559261
2.94 -0.591668
2.95 -0.618248
2.96 -0.636397
2.97 -0.64563
2.98 -0.645229
2.99 -0.634946
3 -0.616511
3.01 -0.590174
3.02 -0.559037
3.03 -0.524964
3.04 -0.490803
3.05 -0.458938
3.06 -0.432417
3.07 -0.412526
3.08 -0.401855
3.09 -0.400615
3.1 -0.409282
3.11 -0.42778
3.12 -0.454098
3.13 -0.487594
3.14 -0.525038
3.15 -0.564339
3.16 -0.602628
3.17 -0.637649
3.18 -0.666495
3.19 -0.688324
3.2 -0.701002
3.21 -0.70491
3.22 -0.700203
3.23 -0.687764
3.24 -0.669988
3.25 -0.64864
3.26 -0.626924
3.27 -0.607614
3.28 -0.593659
3.29 -0.587093
3.3 -0.591001
3.31 -0.605215
3.32 -0.631596
3.33 -0.668618
3.34 -0.715231
3.35 -0.769404
3.36 -0.827774
3.37 -0.887179
3.38 -0.943848
3.39 -0.993963
3.4 -1.03408
3.41 -1.06213
3.42 -1.0745
3.43 -1.07232
3.44 -1.05382
3.45 -1.02174
3.46 -0.978084
3.47 -0.926099
3.48 -0.870328
3.49 -0.815329
3.5 -0.765588
3.51 -0.725839
3.52 -0.699781
3.53 -0.689165
3.54 -0.697142
3.55 -0.720885
3.56 -0.7602
3.57 -0.809573
3.58 -0.863784
3.59 -0.914911
3.6 -0.955623
3.61 -0.973473
3.62 -0.962184
3.63 -0.909889
3.64 -0.808352
3.65 -0.653345
3.66 -0.432882
3.67 -0.152944
3.68 0.194487
3.69 0.600602
3.7 1.06101
3.71 1.56822
3.72 2.1071
3.73 2.66732
3.74 3.23047
3.75 3.78063
3.76 4.29988
3.77 4.7746
3.78 5.18216
3.79 5.51858
3.8 5.76261
3.81 5.91364
3.82 5.96525
3.83 5.91162
3.84 5.7656
3.85 5.51794
3.86 5.1919
3.87 4.79155
3.88 4.33326
3.89 3.83345
3.9 3.30552
3.91 2.76824
3.92 2.23655
3.93 1.72465
3.94 1.24458
3.95 0.809041
3.96 0.42036
3.97 0.0922286
3.98 -0.1817
3.99 -0.396742
4 -0.556956
4.01 -0.669041
4.02 -0.734407
4.03 -0.766003
4.04 -0.767533
4.05 -0.749781
4.06 -0.719566
4.07 -0.684091
4.08 -0.649283
4.09 -0.620689
4.1 -0.600798
4.11 -0.592355
4.12 -0.59586
4.13 -0.610286
4.14 -0.63516
4.15 -0.666918
4.16 -0.703483
4.17 -0.741218
4.18 -0.777196
4.19 -0.80807
4.2 -0.832071
4.21 -0.845707
4.22 -0.849031
4.23 -0.840331
4.24 -0.819653
4.25 -0.787889
4.26 -0.744673
4.27 -0.692607
4.28 -0.631955
4.29 -0.564961
4.3 -0.492882
4.31 -0.417004
4.32 -0.338805
4.33 -0.259034
4.34 -0.178706
4.35 -0.0983669
4.36 -0.0185336
4.37 0.0604583
4.38 0.138074
4.39 0.214086
4.4 0.28771
4.41 0.358423
4.42 0.425354
4.43 0.487173
4.44 0.543343
4.45 0.591438
4.46 0.631281
4.47 0.66088
4.48 0.67921
4.49 0.685975
4.5 0.679114
4.51 0.660191
4.52 0.627774
4.53 0.583607
4.54 0.528449
4.55 0.463384
4.56 0.391025
4.57 0.31243
4.58 0.230625
4.59 0.147472
4.6 0.065291
4.61 -0.0141963
4.62 -0.0887707
4.63 -0.157842
4.64 -0.219729
4.65 -0.274528
4.66 -0.322069
4.67 -0.362393
4.68 -0.396862
4.69 -0.425553
4.7 -0.450381
4.71 -0.472156
4.72 -0.492183
4.73 -0.511495
4.74 -0.530983
4.75 -0.551192
4.76 -0.57256
4.77 -0.595029
4.78 -0.618394
4.79 -0.642175
4.8 -0.665747
4.81 -0.688211
4.82 -0.708939
4.83 -0.727052
4.84 -0.741925
4.85 -0.753311
4.86 -0.760538
4.87 -0.764181
4.88 -0.764052
4.89 -0.760991
4.9 -0.755609
4.91 -0.748744
4.92 -0.741386
4.93 -0.73452
4.94 -0.72895
4.95 -0.725521
4.96 -0.724813
4.97 -0.727019
4.98 -0.732627
4.99 -0.741081
5 -0.752415
5.01 -0.765867
5.02 -0.780875
5.03 -0.796726
5.04 -0.812687
5.05 -0.828019
5.06 -0.84225
5.07 -0.854868
5.08 -0.865617
5.09 -0.874493
5.1 -0.88131
5.11 -0.886474
5.12 -0.889963
5.13 -0.892093
5.14 -0.892924
5.15 -0.892321
5.16 -0.890186
5.17 -0.885646
5.18 -0.878214
5.19 -0.866545
5.2 -0.849241
5.21 -0.825162
5.22 -0.791579
5.23 -0.748155
5.24 -0.691938
5.25 -0.622583
5.26 -0.539
5.27 -0.440018
5.28 -0.327415
5.29 -0.199897
5.3 -0.0611511
5.31 0.0874916
5.32 0.24255
5.33 0.400369
5.34 0.556533
5.35 0.707017
5.36 0.846237
5.37 0.970374
5.38 1.07521
5.39 1.15563
5.4 1.21145
5.41 1.23606
5.42 1.2326
5.43 1.1985
5.44 1.13532
5.45 1.04635
5.46 0.931828
5.47 0.798741
5.48 0.649266
5.49 0.489769
5.5 0.324851
5.51 0.159865
5.52 -0.000864502
5.53 -0.151721
5.54 -0.290419
5.55 -0.413105
5.56 -0.517876
5.57 -0.604638
5.58 -0.670967
5.59 -0.720171
5.6 -0.751396
5.61 -0.768063
5.62 -0.772134
5.63 -0.765814
5.64 -0.752525
5.65 -0.73387
5.66 -0.712727
5.67 -0.690566
5.68 -0.668749
5.69 -0.647905
5.7 -0.628356
5.71 -0.609631
5.72 -0.591081
5.73 -0.571632
5.74 -0.550159
5.75 -0.525217
5.76 -0.496187
5.77 -0.46143
5.78 -0.421257
5.79 -0.375166
5.8 -0.323732
5.81 -0.268073
5.82 -0.209266
5.83 -0.14943
5.84 -0.0906149
5.85 -0.0351016
5.86 0.0148994
5.87 0.0566496
5.88 0.089246
5.89 0.109344
5.9 0.117536
5.91 0.11224
5.92 0.0936573
5.93 0.0629933
5.94 0.0200345
5.95 -0.0320748
5.96 -0.0924903
5.97 -0.158258
5.98 -0.227265
5.99 -0.297095
6 -0.365704
6.01 -0.430738
6.02 -0.491162
6.03 -0.545521
6.04 -0.593227
6.05 -0.634483
6.06 -0.668815
6.07 -0.697777
6.08 -0.721667
6.09 -0.742082
6.1 -0.760135
6.11 -0.777057
6.12 -0.793946
6.13 -0.81178
6.14 -0.831011
6.15 -0.852015
6.16 -0.874702
6.17 -0.898661
6.18 -0.923348
6.19 -0.947908
6.2 -0.971393
6.21 -0.992955
6.22 -1.01182
6.23 -1.02715
6.24 -1.03898
6.25 -1.04661
6.26 -1.05084
6.27 -1.05184
6.28 -1.05043
6.29 -1.0475
6.3 -1.04384
6.31 -1.04026
6.32 -1.03731
6.33 -1.03505
6.34 -1.03311
6.35 -1.0304
6.36 -1.02549
6.37 -1.01531
6.38 -0.997529
6.39 -0.967969
6.4 -0.922363
6.41 -0.85762
6.42 -0.766321
6.43 -0.648044
6.44 -0.49539
6.45 -0.307925
6.46 -0.0834103
6.47 0.180863
6.48 0.479986
6.49 0.817118
6.5 1.18314
6.51 1.575
6.52 1.98469
6.53 2.40362
6.54 2.82212
6.55 3.23056
6.56 3.61659
6.57 3.97095
6.58 4.28383
6.59 4.54276
6.6 4.74635
6.61 4.87827
6.62 4.94385
6.63 4.93541
6.64 4.85388
6.65 4.7052
6.66 4.48591
6.67 4.21149
6.68 3.88312
6.69 3.51473
6.7 3.11559
6.71 2.69634
6.72 2.26917
6.73 1.84502
6.74 1.43359
6.75 1.04474
6.76 0.686529
6.77 0.362846
6.78 0.0830849
6.79 -0.156171
6.8 -0.348744
6.81 -0.498975
6.82 -0.608476
6.83 -0.678908
6.84 -0.71843
6.85 -0.727634
6.86 -0.716
6.87 -0.687125
6.88 -0.646905
6.89 -0.600315
6.9 -0.551316
6.91 -0.503461
6.92 -0.459578
6.93 -0.421184
6.94 -0.389234
6.95 -0.364376
6.96 -0.34558
6.97 -0.333032
6.98 -0.324915
6.99 -0.320539
7 -0.318744
7.01 -0.318608
7.02 -0.319664
7.03 -0.321498
7.04 -0.324295
7.05 -0.3284
7.06 -0.334454
7.07 -0.343524
7.08 -0.356146
7.09 -0.373959
7.1 -0.397068
7.11 -0.426453
7.12 -0.462313
7.13 -0.504181
7.14 -0.552225
7.15 -0.604732
7.16 -0.660948
7.17 -0.718948
7.18 -0.777089
7.19 -0.833296
7.2 -0.886116
7.21 -0.933102
7.22 -0.97363
7.23 -1.00618
7.24 -1.0302
7.25 -1.04606
7.26 -1.05317
7.27 -1.05349
7.28 -1.04745
7.29 -1.03712
7.3 -1.02408
7.31 -1.01015
7.32 -0.996934
7.33 -0.986176
7.34 -0.978609
7.35 -0.975058
7.36 -0.975524
7.37 -0.979289
7.38 -0.985477
7.39 -0.992151
7.4 -0.997128
7.41 -0.997907
7.42 -0.991899
7.43 -0.975627
7.44 -0.947801
7.45 -0.903875
7.46 -0.844114
7.47 -0.766026
7.48 -0.669214
7.49 -0.554954
7.5 -0.422225
7.51 -0.275317
7.52 -0.115139
7.53 0.0538887
7.54 0.228273
7.55 0.403636
7.56 0.575906
7.57 0.73964
7.58 0.891769
7.59 1.02764
7.6 1.14382
7.61 1.23897
7.62 1.30814
7.63 1.3537
7.64 1.37221
7.65 1.36606
7.66 1.33607
7.67 1.28282
7.68 1.2109
7.69 1.12028
7.7 1.01642
7.71 0.901332
7.72 0.778616
7.73 0.651552
7.74 0.523008
7.75 0.395817
7.76 0.272736
7.77 0.155749
7.78 0.0466488
7.79 -0.0523816
7.8 -0.141305
7.81 -0.21739
7.82 -0.281647
7.83 -0.332728
7.84 -0.370548
7.85 -0.395899
7.86 -0.407454
7.87 -0.40754
7.88 -0.395421
7.89 -0.372976
7.9 -0.341243
7.91 -0.301305
7.92 -0.255578
7.93 -0.205259
7.94 -0.153052
7.95 -0.100978
7.96 -0.0515392
7.97 -0.00666587
7.98 0.0305201
7.99 0.0591398
8 0.0762952
8.01 0.0813879
8.02 0.0734708
8.03 0.0513306
8.04 0.0166259
8.05 -0.0319325
8.06 -0.0913023
8.07 -0.16067
8.08 -0.237663
8.09 -0.319659
8.1 -0.40436
8.11 -0.488906
8.12 -0.570676
8.13 -0.647494
8.14 -0.717543
8.15 -0.778805
8.16 -0.831398
8.17 -0.87351
8.18 -0.906735
8.19 -0.931107
8.2 -0.947984
8.21 -0.959169
8.22 -0.965856
8.23 -0.970289
8.24 -0.973802
8.25 -0.977773
8.26 -0.98295
8.27 -0.989642
8.28 -0.997276
8.29 -1.00469
8.3 -1.01001
8.31 -1.0106
8.32 -1.00313
8.33 -0.984929
8.34 -0.950331
8.35 -0.898048
8.36 -0.822248
8.37 -0.721504
8.38 -0.593553
8.39 -0.435291
8.4 -0.249783
8.41 -0.0336445
8.42 0.206903
8.43 0.470345
8.44 0.751424
8.45 1.04391
8.46 1.34172
8.47 1.63723
8.48 1.92227
8.49 2.18957
8.5 2.43211
8.51 2.64077
8.52 2.8138
8.53 2.93988
8.54 3.02153
8.55 3.05327
8.56 3.0348
8.57 2.96995
8.58 2.85531
8.59 2.70128
8.6 2.50794
8.61 2.28425
8.62 2.03622
8.63 1.77025
8.64 1.49485
8.65 1.21639
8.66 0.941955
8.67 0.677696
8.68 0.429224
8.69 0.19946
8.7 -0.0054172
8.71 -0.186779
8.72 -0.340557
8.73 -0.468659
8.74 -0.571789
8.75 -0.650331
8.76 -0.70909
8.77 -0.747983
8.78 -0.772684
8.79 -0.785235
8.8 -0.789177
8.81 -0.787751
8.82 -0.783356
8.83 -0.778618
8.84 -0.77544
8.85 -0.775192
8.86 -0.778768
8.87 -0.786953
8.88 -0.799326
8.89 -0.81628
8.9 -0.836689
8.91 -0.860105
8.92 -0.885588
8.93 -0.912203
8.94 -0.939103
8.95 -0.96549
8.96 -0.990603
8.97 -1.01398
8.98 -1.03528
8.99 -1.05416
9 -1.07084
9.01 -1.08508
9.02 -1.09737
9.03 -1.10783
9.04 -1.11679
9.05 -1.12457
9.06 -1.13129
9.07 -1.13722
9.08 -1.14227
9.09 -1.1464
9.1 -1.14935
9.11 -1.15063
9.12 -1.14991
9.13 -1.14616
9.14 -1.13903
9.15 -1.1275
9.16 -1.11073
9.17 -1.08839
9.18 -1.05896
9.19 -1.02295
9.2 -0.979191
9.21 -0.928153
9.22 -0.86999
9.23 -0.804812
9.24 -0.734113
9.25 -0.658228
9.26 -0.579206
9.27 -0.498388
9.28 -0.417761
9.29 -0.339068
9.3 -0.264862
9.31 -0.196404
9.32 -0.136326
9.33 -0.0857737
9.34 -0.0460427
9.35 -0.0189217
9.36 -0.00354945
9.37 -0.00196064
9.38 -0.0120346
9.39 -0.0338219
9.4 -0.0658832
9.41 -0.106081
9.42 -0.15325
9.43 -0.204332
9.44 -0.257436
9.45 -0.309999
9.46 -0.359968
9.47 -0.404963
9.48 -0.444025
9.49 -0.474795
9.5 -0.497541
9.51 -0.511406
9.52 -0.516662
9.53 -0.514475
9.54 -0.505119
9.55 -0.490992
9.56 -0.473279
9.57 -0.454185
9.58 -0.435482
9.59 -0.419228
9.6 -0.406629
9.61 -0.399762
9.62 -0.398871
9.63 -0.404928
9.64 -0.418049
9.65 -0.43754
9.66 -0.463516
9.67 -0.494156
9.68 -0.528815
9.69 -0.565835
9.7 -0.603961
9.71 -0.641829
9.72 -0.678448
9.73 -0.712621
9.74 -0.744046
9.75 -0.772217
9.76 -0.797098
9.77 -0.819068
9.78 -0.838119
9.79 -0.855036
9.8 -0.869898
9.81 -0.883002
9.82 -0.894204
9.83 -0.902748
9.84 -0.907962
9.85 -0.9075
9.86 -0.899865
9.87 -0.881888
9.88 -0.850116
9.89 -0.802229
9.9 -0.731748
9.91 -0.638242
9.92 -0.515256
9.93 -0.361616
9.94 -0.175153
9.95 0.0477524
9.96 0.303263
9.97 0.59544
9.98 0.917207
9.99 1.26695
10 1.63893
10.01 2.02587
10.02 2.4212
10.03 2.81571
10.04 3.2001
10.05 3.56543
10.06 3.90327
10.07 4.20227
10.08 4.45971
10.09 4.66164
10.1 4.80988
10.11 4.89729
10.12 4.92219
10.13 4.88875
10.14 4.79122
10.15 4.64203
10.16 4.44017
10.17 4.19604
10.18 3.91667
10.19 3.60908
10.2 3.28431
10.21 2.94925
10.22 2.61354
10.23 2.28454
10.24 1.9696
10.25 1.67291
10.26 1.40204
10.27 1.15634
10.28 0.940677
10.29 0.753533
10.3 0.594214
10.31 0.462557
10.32 0.353119
10.33 0.265885
10.34 0.194469
10.35 0.136363
10.36 0.0875133
10.37 0.0441824
10.38 0.00358822
10.39 -0.0371298
10.4 -0.080063
10.41 -0.126569
10.42 -0.177435
10.43 -0.233288
10.44 -0.293411
10.45 -0.357852
10.46 -0.4252
10.47 -0.494627
10.48 -0.564862
10.49 -0.634788
10.5 -0.703072
10.51 -0.768965
10.52 -0.831275
10.53 -0.889473
10.54 -0.943034
10.55 -0.991161
10.56 -1.03417
10.57 -1.07097
10.58 -1.10215
10.59 -1.12716
10.6 -1.14585
10.61 -1.15848
10.62 -1.16404
10.63 -1.16338
10.64 -1.15561
10.65 -1.14114
10.66 -1.12005
10.67 -1.09208
10.68 -1.05833
10.69 -1.01849
10.7 -0.974051
10.71 -0.925619
10.72 -0.874437
10.73 -0.821863
10.74 -0.769338
10.75 -0.718294
10.76 -0.670464
10.77 -0.627171
10.78 -0.589653
10.79 -0.559592
10.8 -0.536989
10.81 -0.523736
10.82 -0.518998
10.83 -0.523351
10.84 -0.536432
10.85 -0.557093
10.86 -0.585367
10.87 -0.619124
10.88 -0.657735
10.89 -0.699454
10.9 -0.742978
10.91 -0.786909
10.92 -0.83005
10.93 -0.871039
10.94 -0.909214
10.95 -0.943702
10.96 -0.973979
10.97 -1.0001
10.98 -1.02144
10.99 -1.03882
11 -1.05208
11.01 -1.06198
11.02 -1.06904
11.03 -1.07375
11.04 -1.07695
11.05 -1.0791
11.06 -1.08093
11.07 -1.08293
11.08 -1.08562
11.09 -1.08928
11.1 -1.09437
11.11 -1.10086
11.12 -1.10897
11.13 -1.11854
11.14 -1.12935
11.15 -1.14109
11.16 -1.15318
11.17 -1.16488
11.18 -1.17531
11.19 -1.18334
11.2 -1.18751
11.21 -1.18673
11.22 -1.17836
11.23 -1.16171
11.24 -1.13377
11.25 -1.09318
11.26 -1.0382
11.27 -0.965832
11.28 -0.876613
11.29 -0.766522
11.3 -0.637335
11.31 -0.487543
11.32 -0.317542
11.33 -0.129657
11.34 0.0766027
11.35 0.29625
11.36 0.527627
11.37 0.76593
11.38 1.00703
11.39 1.24565
11.4 1.47739
11.41 1.69533
11.42 1.89594
11.43 2.07337
11.44 2.22276
11.45 2.34263
11.46 2.42539
11.47 2.47429
11.48 2.48417
11.49 2.45754
11.5 2.39559
11.51 2.2983
11.52 2.17252
11.53 2.01809
11.54 1.84312
11.55 1.65113
11.56 1.44785
11.57 1.23887
11.58 1.02932
11.59 0.823875
11.6 0.627391
11.61 0.443074
11.62 0.273465
11.63 0.121776
11.64 -0.0130344
11.65 -0.128049
11.66 -0.226241
11.67 -0.30771
11.68 -0.374396
11.69 -0.429322
11.7 -0.473659
11.71 -0.511368
11.72 -0.544204
11.73 -0.574893
11.74 -0.605277
11.75 -0.637071
11.76 -0.671075
11.77 -0.7082
11.78 -0.748024
11.79 -0.790171
11.8 -0.833511
11.81 -0.876662
11.82 -0.917576
11.83 -0.954668
11.84 -0.985346
11.85 -1.00781
11.86 -1.02028
11.87 -1.02007
11.88 -1.00725
11.89 -0.978608
11.9 -0.935336
11.91 -0.876229
11.92 -0.80145
11.93 -0.712671
11.94 -0.609125
11.95 -0.494328
11.96 -0.368812
11.97 -0.235514
11.98 -0.0967207
11.99 0.0450274
12 0.186904
12.01 0.325867
12.02 0.459503
12.03 0.584934
12.04 0.699445
12.05 0.801796
12.06 0.888016
12.07 0.958861
12.08 1.01126
12.09 1.04554
12.1 1.06152
12.11 1.05808
12.12 1.03801
12.13 0.999881
12.14 0.947363
12.15 0.881312
12.16 0.804018
12.17 0.718401
12.18 0.62613
12.19 0.530589
12.2 0.433918
12.21 0.338648
12.22 0.246723
12.23 0.160395
12.24 0.0803147
12.25 0.00854727
12.26 -0.0553776
12.27 -0.110903
12.28 -0.158403
12.29 -0.19914
12.3 -0.233398
12.31 -0.263398
12.32 -0.290166
12.33 -0.315539
12.34 -0.340923
12.35 -0.367827
12.36 -0.397074
12.37 -0.429856
12.38 -0.466091
12.39 -0.505899
12.4 -0.548686
