# xPDFsuite Configuration #
[PDF]
wavelength = 0.1432
dataformat = twotheta
inputfile = 1_1Pd_CeO2_cycle-00067.chi
backgroundfile = background-00000.chi
mode = xray
bgscale = 1.007
composition = CeO2
outputtype = gr
qmaxinst = 28.8974762299
qmin = 0.5
qmax = 27.9
rmax = 50.0
rmin = 0.0
rstep = 0.01
rpoly = 1.8657

[Misc]
inputdir = G:/SankarDec16/1Pd/Chi
savedir = D:/DATA/APS_CeO2/1Pd
backgroundfilefull = G:/SankarDec16/Background/background-00000.chi

#### start data
#S 1
#L r($\AA$)  G($\AA^{-2}$)
0 0
0.01 -0.00529977
0.02 -0.0101987
0.03 -0.0142841
0.04 -0.0172456
0.05 -0.0189108
0.06 -0.0190027
0.07 -0.0177074
0.08 -0.0149376
0.09 -0.0110477
0.1 -0.00628375
0.11 -0.00102161
0.12 0.00433085
0.13 0.00931424
0.14 0.0136065
0.15 0.0168112
0.16 0.0186986
0.17 0.0191791
0.18 0.0180671
0.19 0.0156382
0.2 0.0119082
0.21 0.0072914
0.22 0.00209507
0.23 -0.00325843
0.24 -0.00838662
0.25 -0.0127948
0.26 -0.0162557
0.27 -0.0184095
0.28 -0.019119
0.29 -0.0183816
0.3 -0.0161132
0.31 -0.0126648
0.32 -0.00815474
0.33 -0.00303668
0.34 0.00233655
0.35 0.00751694
0.36 0.012167
0.37 0.0157817
0.38 0.0182402
0.39 0.0192377
0.4 0.0187364
0.41 0.0168216
0.42 0.0135148
0.43 0.00922541
0.44 0.00416831
0.45 -0.00118614
0.46 -0.00645743
0.47 -0.0111943
0.48 -0.0151216
0.49 -0.0177496
0.5 -0.0190703
0.51 -0.0188498
0.52 -0.0171519
0.53 -0.0141459
0.54 -0.00995848
0.55 -0.00503665
0.56 0.000318494
0.57 0.00564351
0.58 0.0105496
0.59 0.0146049
0.6 0.0176111
0.61 0.0191186
0.62 0.0192333
0.63 0.0178041
0.64 0.0149943
0.65 0.0110484
0.66 0.00619262
0.67 0.000889201
0.68 -0.00448972
0.69 -0.00951083
0.7 -0.0137971
0.71 -0.0169575
0.72 -0.0188812
0.73 -0.0191815
0.74 -0.0180728
0.75 -0.0154947
0.76 -0.0117009
0.77 -0.00699878
0.78 -0.00170155
0.79 0.00373761
0.8 0.00889634
0.81 0.0133943
0.82 0.0168873
0.83 0.0190473
0.84 0.0198564
0.85 0.0190141
0.86 0.0168307
0.87 0.0133405
0.88 0.00887321
0.89 0.00378031
0.9 -0.00155737
0.91 -0.0067248
0.92 -0.0112792
0.93 -0.014921
0.94 -0.0173676
0.95 -0.0183849
0.96 -0.0180577
0.97 -0.0162124
0.98 -0.0132426
0.99 -0.00929792
1 -0.00477861
1.01 -6.82906e-05
1.02 0.00438157
1.03 0.00822947
1.04 0.0110176
1.05 0.0125624
1.06 0.0126662
1.07 0.0112201
1.08 0.0084419
1.09 0.0043253
1.1 -0.00062321
1.11 -0.006093
1.12 -0.0115713
1.13 -0.0166079
1.14 -0.0206043
1.15 -0.0232801
1.16 -0.0240661
1.17 -0.0228745
1.18 -0.0195308
1.19 -0.0139799
1.2 -0.00658766
1.21 0.00261517
1.22 0.0129321
1.23 0.0239535
1.24 0.0350176
1.25 0.0455492
1.26 0.0547869
1.27 0.0623581
1.28 0.0675078
1.29 0.0700651
1.3 0.0697221
1.31 0.0662637
1.32 0.060045
1.33 0.0508134
1.34 0.0393496
1.35 0.0258705
1.36 0.0110098
1.37 -0.00463926
1.38 -0.0204615
1.39 -0.0358656
1.4 -0.0501882
1.41 -0.0630051
1.42 -0.0738728
1.43 -0.0823553
1.44 -0.0884869
1.45 -0.0917142
1.46 -0.0924454
1.47 -0.0904936
1.48 -0.086087
1.49 -0.0795053
1.5 -0.0707981
1.51 -0.0605024
1.52 -0.0487206
1.53 -0.0359142
1.54 -0.0223591
1.55 -0.00838812
1.56 0.00566602
1.57 0.0194415
1.58 0.0326566
1.59 0.0449329
1.6 0.0559472
1.61 0.0654569
1.62 0.0729518
1.63 0.0784251
1.64 0.0813365
1.65 0.0817192
1.66 0.0793854
1.67 0.0741884
1.68 0.0664627
1.69 0.0559524
1.7 0.0433386
1.71 0.0287847
1.72 0.0128571
1.73 -0.00388192
1.74 -0.0208234
1.75 -0.0373423
1.76 -0.0527124
1.77 -0.0664361
1.78 -0.0779978
1.79 -0.0868937
1.8 -0.0931789
1.81 -0.0963204
1.82 -0.0968938
1.83 -0.0949291
1.84 -0.0909822
1.85 -0.0856694
1.86 -0.0796291
1.87 -0.0736579
1.88 -0.0685663
1.89 -0.0650056
1.9 -0.0635893
1.91 -0.0649068
1.92 -0.0689276
1.93 -0.0761836
1.94 -0.0860183
1.95 -0.098281
1.96 -0.112235
1.97 -0.12708
1.98 -0.141846
1.99 -0.155587
2 -0.167065
2.01 -0.175466
2.02 -0.179888
2.03 -0.179396
2.04 -0.174045
2.05 -0.162708
2.06 -0.146285
2.07 -0.12454
2.08 -0.0981596
2.09 -0.0679641
2.1 -0.0344856
2.11 0.000997055
2.12 0.0377843
2.13 0.0748694
2.14 0.111561
2.15 0.147212
2.16 0.1816
2.17 0.214352
2.18 0.245802
2.19 0.276116
2.2 0.305817
2.21 0.335443
2.22 0.36566
2.23 0.396911
2.24 0.429786
2.25 0.464377
2.26 0.5007
2.27 0.538455
2.28 0.576917
2.29 0.615091
2.3 0.651765
2.31 0.685316
2.32 0.714042
2.33 0.736573
2.34 0.750327
2.35 0.755015
2.36 0.748087
2.37 0.729685
2.38 0.699143
2.39 0.656112
2.4 0.602436
2.41 0.537648
2.42 0.465056
2.43 0.385987
2.44 0.30324
2.45 0.219378
2.46 0.137345
2.47 0.059353
2.48 -0.0115437
2.49 -0.0739138
2.5 -0.126125
2.51 -0.166728
2.52 -0.196598
2.53 -0.214218
2.54 -0.222266
2.55 -0.221217
2.56 -0.213296
2.57 -0.200751
2.58 -0.185694
2.59 -0.170618
2.6 -0.157798
2.61 -0.148965
2.62 -0.145591
2.63 -0.148972
2.64 -0.158811
2.65 -0.176078
2.66 -0.199034
2.67 -0.227122
2.68 -0.258614
2.69 -0.291791
2.7 -0.324756
2.71 -0.355852
2.72 -0.383122
2.73 -0.405552
2.74 -0.422175
2.75 -0.432272
2.76 -0.436558
2.77 -0.434666
2.78 -0.428487
2.79 -0.418948
2.8 -0.407866
2.81 -0.396882
2.82 -0.387951
2.83 -0.382258
2.84 -0.381565
2.85 -0.386317
2.86 -0.396998
2.87 -0.413701
2.88 -0.43524
2.89 -0.461168
2.9 -0.489351
2.91 -0.518248
2.92 -0.545766
2.93 -0.570211
2.94 -0.589237
2.95 -0.602182
2.96 -0.607141
2.97 -0.604303
2.98 -0.593567
2.99 -0.575363
3 -0.551554
3.01 -0.523145
3.02 -0.49287
3.03 -0.462815
3.04 -0.435511
3.05 -0.412878
3.06 -0.397658
3.07 -0.390299
3.08 -0.392855
3.09 -0.40476
3.1 -0.425853
3.11 -0.455338
3.12 -0.490874
3.13 -0.531048
3.14 -0.572731
3.15 -0.613492
3.16 -0.650579
3.17 -0.682024
3.18 -0.705025
3.19 -0.719447
3.2 -0.723488
3.21 -0.718216
3.22 -0.70431
3.23 -0.683256
3.24 -0.657825
3.25 -0.630399
3.26 -0.604236
3.27 -0.58242
3.28 -0.56789
3.29 -0.56251
3.3 -0.56933
3.31 -0.587671
3.32 -0.619168
3.33 -0.661778
3.34 -0.714061
3.35 -0.773535
3.36 -0.836547
3.37 -0.899485
3.38 -0.958536
3.39 -1.00967
3.4 -1.04947
3.41 -1.07601
3.42 -1.08575
3.43 -1.08023
3.44 -1.05787
3.45 -1.02183
3.46 -0.97441
3.47 -0.919224
3.48 -0.860993
3.49 -0.804629
3.5 -0.75458
3.51 -0.715707
3.52 -0.691618
3.53 -0.683887
3.54 -0.695523
3.55 -0.723343
3.56 -0.766881
3.57 -0.82028
3.58 -0.878017
3.59 -0.931838
3.6 -0.974291
3.61 -0.992579
3.62 -0.980536
3.63 -0.926186
3.64 -0.821421
3.65 -0.662222
3.66 -0.436762
3.67 -0.151402
3.68 0.201593
3.69 0.613055
3.7 1.07829
3.71 1.58944
3.72 2.13125
3.73 2.69302
3.74 3.25645
3.75 3.80546
3.76 4.32223
3.77 4.79335
3.78 5.19627
3.79 5.5274
3.8 5.76573
3.81 5.911
3.82 5.95709
3.83 5.89852
3.84 5.74833
3.85 5.4976
3.86 5.16959
3.87 4.76855
3.88 4.31081
3.89 3.81267
3.9 3.28751
3.91 2.75379
3.92 2.22629
3.93 1.71892
3.94 1.24346
3.95 0.812333
3.96 0.427672
3.97 0.102867
3.98 -0.168489
3.99 -0.381887
4 -0.541423
4.01 -0.653747
4.02 -0.720311
4.03 -0.753836
4.04 -0.757968
4.05 -0.743249
4.06 -0.716318
4.07 -0.684159
4.08 -0.652511
4.09 -0.626681
4.1 -0.609048
4.11 -0.602183
4.12 -0.6065
4.13 -0.620963
4.14 -0.645002
4.15 -0.675204
4.16 -0.70948
4.17 -0.744378
4.18 -0.777097
4.19 -0.804465
4.2 -0.824905
4.21 -0.835138
4.22 -0.835379
4.23 -0.82412
4.24 -0.801563
4.25 -0.768681
4.26 -0.725303
4.27 -0.673952
4.28 -0.615012
4.29 -0.550605
4.3 -0.481922
4.31 -0.410143
4.32 -0.336521
4.33 -0.26166
4.34 -0.186304
4.35 -0.110774
4.36 -0.0353324
4.37 0.0398761
4.38 0.114626
4.39 0.188735
4.4 0.261685
4.41 0.332932
4.42 0.401648
4.43 0.466507
4.44 0.526746
4.45 0.579917
4.46 0.625474
4.47 0.661215
4.48 0.685775
4.49 0.698555
4.5 0.697097
4.51 0.682752
4.52 0.653689
4.53 0.611521
4.54 0.556838
4.55 0.490564
4.56 0.415498
4.57 0.332555
4.58 0.24518
4.59 0.155388
4.6 0.0658827
4.61 -0.0212274
4.62 -0.103281
4.63 -0.179303
4.64 -0.247111
4.65 -0.306505
4.66 -0.357003
4.67 -0.398328
4.68 -0.431933
4.69 -0.457571
4.7 -0.477568
4.71 -0.492786
4.72 -0.504909
4.73 -0.5154
4.74 -0.525576
4.75 -0.536527
4.76 -0.549239
4.77 -0.56412
4.78 -0.581405
4.79 -0.601097
4.8 -0.622606
4.81 -0.64555
4.82 -0.668965
4.83 -0.692059
4.84 -0.713906
4.85 -0.733841
4.86 -0.750864
4.87 -0.764892
4.88 -0.775224
4.89 -0.782096
4.9 -0.785598
4.91 -0.785969
4.92 -0.784004
4.93 -0.78004
4.94 -0.775062
4.95 -0.769683
4.96 -0.76465
4.97 -0.760493
4.98 -0.75787
4.99 -0.756908
5 -0.758039
5.01 -0.761159
5.02 -0.766242
5.03 -0.773206
5.04 -0.781648
5.05 -0.791514
5.06 -0.802329
5.07 -0.813922
5.08 -0.826017
5.09 -0.838397
5.1 -0.850866
5.11 -0.863218
5.12 -0.875178
5.13 -0.886442
5.14 -0.896585
5.15 -0.904889
5.16 -0.910848
5.17 -0.912955
5.18 -0.910567
5.19 -0.901956
5.2 -0.885608
5.21 -0.860475
5.22 -0.823698
5.23 -0.775424
5.24 -0.712803
5.25 -0.636008
5.26 -0.544336
5.27 -0.437088
5.28 -0.316467
5.29 -0.181697
5.3 -0.0367269
5.31 0.116735
5.32 0.275003
5.33 0.434398
5.34 0.590283
5.35 0.73895
5.36 0.874781
5.37 0.994327
5.38 1.09362
5.39 1.16788
5.4 1.21728
5.41 1.23557
5.42 1.22618
5.43 1.18688
5.44 1.11945
5.45 1.02728
5.46 0.910877
5.47 0.777074
5.48 0.628176
5.49 0.47035
5.5 0.308082
5.51 0.146573
5.52 -0.0101295
5.53 -0.156573
5.54 -0.290752
5.55 -0.409021
5.56 -0.509691
5.57 -0.592817
5.58 -0.656194
5.59 -0.703143
5.6 -0.732977
5.61 -0.749083
5.62 -0.753435
5.63 -0.74824
5.64 -0.736775
5.65 -0.72066
5.66 -0.702566
5.67 -0.683889
5.68 -0.665836
5.69 -0.648893
5.7 -0.633238
5.71 -0.618263
5.72 -0.603159
5.73 -0.58674
5.74 -0.567768
5.75 -0.544658
5.76 -0.516788
5.77 -0.482341
5.78 -0.441712
5.79 -0.394335
5.8 -0.340824
5.81 -0.282396
5.82 -0.220146
5.83 -0.156399
5.84 -0.0932995
5.85 -0.0333345
5.86 0.021114
5.87 0.0670928
5.88 0.10355
5.89 0.126878
5.9 0.137597
5.91 0.133944
5.92 0.116037
5.93 0.0850947
5.94 0.0407915
5.95 -0.013532
5.96 -0.0770351
5.97 -0.146539
5.98 -0.219764
5.99 -0.29408
6 -0.367207
6.01 -0.436533
6.02 -0.500834
6.03 -0.558433
6.04 -0.60858
6.05 -0.65142
6.06 -0.686312
6.07 -0.714949
6.08 -0.737579
6.09 -0.755994
6.1 -0.771451
6.11 -0.785373
6.12 -0.799103
6.13 -0.813852
6.14 -0.830285
6.15 -0.848992
6.16 -0.87005
6.17 -0.893109
6.18 -0.917775
6.19 -0.943062
6.2 -0.968042
6.21 -0.991666
6.22 -1.013
6.23 -1.03097
6.24 -1.04538
6.25 -1.05526
6.26 -1.06119
6.27 -1.06314
6.28 -1.06175
6.29 -1.05789
6.3 -1.05222
6.31 -1.04574
6.32 -1.039
6.33 -1.03235
6.34 -1.02565
6.35 -1.0181
6.36 -1.00856
6.37 -0.994359
6.38 -0.973383
6.39 -0.941754
6.4 -0.895407
6.41 -0.831285
6.42 -0.742183
6.43 -0.627418
6.44 -0.479612
6.45 -0.297999
6.46 -0.0800771
6.47 0.177205
6.48 0.469319
6.49 0.799854
6.5 1.16
6.51 1.54709
6.52 1.95337
6.53 2.37036
6.54 2.7887
6.55 3.1985
6.56 3.58754
6.57 3.94621
6.58 4.26449
6.59 4.52961
6.6 4.73975
6.61 4.87823
6.62 4.94999
6.63 4.94701
6.64 4.8699
6.65 4.72448
6.66 4.50699
6.67 4.23307
6.68 3.9038
6.69 3.53336
6.7 3.13124
6.71 2.70832
6.72 2.27716
6.73 1.84903
6.74 1.43396
6.75 1.0421
6.76 0.681769
6.77 0.356965
6.78 0.0772947
6.79 -0.160829
6.8 -0.351197
6.81 -0.498418
6.82 -0.604332
6.83 -0.670904
6.84 -0.706623
6.85 -0.712471
6.86 -0.698184
6.87 -0.667683
6.88 -0.627077
6.89 -0.581388
6.9 -0.534777
6.91 -0.490539
6.92 -0.451491
6.93 -0.418802
6.94 -0.393135
6.95 -0.374756
6.96 -0.362251
6.97 -0.355325
6.98 -0.351875
6.99 -0.35082
7 -0.350748
7.01 -0.350686
7.02 -0.349902
7.03 -0.348299
7.04 -0.346035
7.05 -0.34386
7.06 -0.342738
7.07 -0.344156
7.08 -0.349117
7.09 -0.359783
7.1 -0.376634
7.11 -0.401109
7.12 -0.433736
7.13 -0.474159
7.14 -0.522901
7.15 -0.577954
7.16 -0.638666
7.17 -0.702715
7.18 -0.768152
7.19 -0.832501
7.2 -0.893791
7.21 -0.949064
7.22 -0.99723
7.23 -1.03627
7.24 -1.06523
7.25 -1.08429
7.26 -1.0924
7.27 -1.09177
7.28 -1.0826
7.29 -1.06731
7.3 -1.04772
7.31 -1.02597
7.32 -1.00421
7.33 -0.984592
7.34 -0.968389
7.35 -0.956908
7.36 -0.950606
7.37 -0.949027
7.38 -0.951778
7.39 -0.956816
7.4 -0.962232
7.41 -0.96529
7.42 -0.963246
7.43 -0.9524
7.44 -0.930975
7.45 -0.894116
7.46 -0.841554
7.47 -0.770375
7.48 -0.679731
7.49 -0.570611
7.5 -0.441531
7.51 -0.296796
7.52 -0.137034
7.53 0.0331893
7.54 0.210278
7.55 0.389691
7.56 0.566939
7.57 0.736316
7.58 0.894263
7.59 1.03573
7.6 1.15685
7.61 1.25599
7.62 1.32773
7.63 1.37443
7.64 1.39232
7.65 1.38391
7.66 1.35007
7.67 1.29151
7.68 1.21324
7.69 1.11542
7.7 1.00406
7.71 0.881559
7.72 0.752003
7.73 0.619025
7.74 0.486048
7.75 0.356003
7.76 0.232087
7.77 0.116272
7.78 0.0103879
7.79 -0.0833627
7.8 -0.16534
7.81 -0.232866
7.82 -0.287538
7.83 -0.32835
7.84 -0.355741
7.85 -0.370959
7.86 -0.373271
7.87 -0.365315
7.88 -0.346915
7.89 -0.320155
7.9 -0.286299
7.91 -0.246693
7.92 -0.203496
7.93 -0.158156
7.94 -0.112846
7.95 -0.0694452
7.96 -0.0300225
7.97 0.00397298
7.98 0.0298639
7.99 0.0473079
8 0.0539367
8.01 0.0495921
8.02 0.0337212
8.03 0.00557783
8.04 -0.0331604
8.05 -0.0832871
8.06 -0.142037
8.07 -0.208487
8.08 -0.280464
8.09 -0.355705
8.1 -0.432079
8.11 -0.50733
8.12 -0.579186
8.13 -0.646017
8.14 -0.70645
8.15 -0.759001
8.16 -0.804064
8.17 -0.840408
8.18 -0.869662
8.19 -0.892163
8.2 -0.909327
8.21 -0.922798
8.22 -0.93387
8.23 -0.944278
8.24 -0.955231
8.25 -0.967597
8.26 -0.981724
8.27 -0.997439
8.28 -1.01374
8.29 -1.02891
8.3 -1.0408
8.31 -1.04634
8.32 -1.04195
8.33 -1.0249
8.34 -0.989223
8.35 -0.933966
8.36 -0.853205
8.37 -0.745905
8.38 -0.610092
8.39 -0.443014
8.4 -0.248231
8.41 -0.0227913
8.42 0.226628
8.43 0.498067
8.44 0.785862
8.45 1.08357
8.46 1.38467
8.47 1.68165
8.48 1.96608
8.49 2.23091
8.5 2.46926
8.51 2.67218
8.52 2.83838
8.53 2.95678
8.54 3.03041
8.55 3.05418
8.56 3.02821
8.57 2.95663
8.58 2.83649
8.59 2.67823
8.6 2.48227
8.61 2.2575
8.62 2.0099
8.63 1.74585
8.64 1.47349
8.65 1.1991
8.66 0.929293
8.67 0.669947
8.68 0.426293
8.69 0.200959
8.7 -0.000259999
8.71 -0.178857
8.72 -0.331046
8.73 -0.458743
8.74 -0.562661
8.75 -0.643167
8.76 -0.704789
8.77 -0.747345
8.78 -0.776124
8.79 -0.792905
8.8 -0.800875
8.81 -0.80301
8.82 -0.801321
8.83 -0.798334
8.84 -0.795657
8.85 -0.794653
8.86 -0.796203
8.87 -0.8011
8.88 -0.809204
8.89 -0.820999
8.9 -0.835762
8.91 -0.853317
8.92 -0.873096
8.93 -0.894459
8.94 -0.916975
8.95 -0.939982
8.96 -0.963056
8.97 -0.98578
8.98 -1.00786
8.99 -1.02898
9 -1.0491
9.01 -1.06792
9.02 -1.08555
9.03 -1.10183
9.04 -1.11671
9.05 -1.13021
9.06 -1.14202
9.07 -1.15221
9.08 -1.16037
9.09 -1.16633
9.1 -1.16978
9.11 -1.17012
9.12 -1.16729
9.13 -1.16023
9.14 -1.14899
9.15 -1.13277
9.16 -1.11109
9.17 -1.08393
9.18 -1.05017
9.19 -1.01051
9.2 -0.964133
9.21 -0.911605
9.22 -0.85317
9.23 -0.789016
9.24 -0.72042
9.25 -0.647705
9.26 -0.572547
9.27 -0.496057
9.28 -0.419865
9.29 -0.345404
9.3 -0.274823
9.31 -0.209188
9.32 -0.150786
9.33 -0.10067
9.34 -0.0600566
9.35 -0.0306686
9.36 -0.011895
9.37 -0.00580745
9.38 -0.0107028
9.39 -0.0269091
9.4 -0.0534001
9.41 -0.088394
9.42 -0.131219
9.43 -0.179033
9.44 -0.230383
9.45 -0.282826
9.46 -0.334424
9.47 -0.382923
9.48 -0.427071
9.49 -0.464537
9.5 -0.495086
9.51 -0.517572
9.52 -0.531787
9.53 -0.538448
9.54 -0.537264
9.55 -0.530288
9.56 -0.518154
9.57 -0.502825
9.58 -0.485841
9.59 -0.468984
9.6 -0.453701
9.61 -0.441852
9.62 -0.434192
9.63 -0.431872
9.64 -0.435457
9.65 -0.44474
9.66 -0.460313
9.67 -0.480863
9.68 -0.506272
9.69 -0.53527
9.7 -0.566935
9.71 -0.600291
9.72 -0.634273
9.73 -0.668033
9.74 -0.700917
9.75 -0.732387
9.76 -0.762115
9.77 -0.79008
9.78 -0.815994
9.79 -0.840131
9.8 -0.862202
9.81 -0.882109
9.82 -0.899401
9.83 -0.912986
9.84 -0.922144
9.85 -0.924249
9.86 -0.917979
9.87 -0.900159
9.88 -0.867512
9.89 -0.817981
9.9 -0.745275
9.91 -0.649309
9.92 -0.52388
9.93 -0.368077
9.94 -0.179922
9.95 0.0440013
9.96 0.299857
9.97 0.591585
9.98 0.912272
9.99 1.26039
10 1.63038
10.01 2.01523
10.02 2.40858
10.03 2.80147
10.04 3.18487
10.05 3.54999
10.06 3.88852
10.07 4.18925
10.08 4.44933
10.09 4.65486
10.1 4.80739
10.11 4.89959
10.12 4.92952
10.13 4.90104
10.14 4.80805
10.15 4.66276
10.16 4.46382
10.17 4.22145
10.18 3.94259
10.19 3.63411
10.2 3.30724
10.21 2.9688
10.22 2.62882
10.23 2.29485
10.24 1.9746
10.25 1.6726
10.26 1.39685
10.27 1.14693
10.28 0.928139
10.29 0.739101
10.3 0.579257
10.31 0.448588
10.32 0.341427
10.33 0.257789
10.34 0.190868
10.35 0.137899
10.36 0.0944033
10.37 0.0562534
10.38 0.0201608
10.39 -0.0170166
10.4 -0.057834
10.41 -0.103823
10.42 -0.155909
10.43 -0.214872
10.44 -0.279704
10.45 -0.35047
10.46 -0.425225
10.47 -0.50281
10.48 -0.581414
10.49 -0.659424
10.5 -0.734845
10.51 -0.806573
10.52 -0.87279
10.53 -0.932724
10.54 -0.985635
10.55 -1.03047
10.56 -1.06789
10.57 -1.09669
10.58 -1.11812
10.59 -1.13199
10.6 -1.13877
10.61 -1.13939
10.62 -1.1336
10.63 -1.12281
10.64 -1.10691
10.65 -1.08674
10.66 -1.06272
10.67 -1.03508
10.68 -1.00459
10.69 -0.971271
10.7 -0.935929
10.71 -0.898887
10.72 -0.860734
10.73 -0.822078
10.74 -0.7836
10.75 -0.745953
10.76 -0.710006
10.77 -0.676453
10.78 -0.646003
10.79 -0.619684
10.8 -0.597649
10.81 -0.581234
10.82 -0.570223
10.83 -0.565317
10.84 -0.566728
10.85 -0.574069
10.86 -0.588029
10.87 -0.607415
10.88 -0.632457
10.89 -0.662197
10.9 -0.695997
10.91 -0.733259
10.92 -0.772825
10.93 -0.81407
10.94 -0.855873
10.95 -0.897399
10.96 -0.937698
10.97 -0.976115
10.98 -1.01154
10.99 -1.04376
11 -1.07186
11.01 -1.09568
11.02 -1.11499
11.03 -1.1294
11.04 -1.13951
11.05 -1.14492
11.06 -1.14659
11.07 -1.14482
11.08 -1.14034
11.09 -1.13403
11.1 -1.12662
11.11 -1.11908
11.12 -1.11227
11.13 -1.10693
11.14 -1.1036
11.15 -1.10287
11.16 -1.10454
11.17 -1.1088
11.18 -1.11473
11.19 -1.12155
11.2 -1.12777
11.21 -1.1319
11.22 -1.13126
11.23 -1.12425
11.24 -1.10749
11.25 -1.07879
11.26 -1.03576
11.27 -0.974637
11.28 -0.895485
11.29 -0.793528
11.3 -0.670396
11.31 -0.524224
11.32 -0.355327
11.33 -0.16628
11.34 0.0434626
11.35 0.268241
11.36 0.506135
11.37 0.751707
11.38 1.00032
11.39 1.24612
11.4 1.48429
11.41 1.70737
11.42 1.91167
11.43 2.09107
11.44 2.24068
11.45 2.35921
11.46 2.43908
11.47 2.48407
11.48 2.48927
11.49 2.45768
11.5 2.39092
11.51 2.28944
11.52 2.16035
11.53 2.00396
11.54 1.8284
11.55 1.63733
11.56 1.43644
11.57 1.23106
11.58 1.02619
11.59 0.826014
11.6 0.635037
11.61 0.455991
11.62 0.29102
11.63 0.142853
11.64 0.0102782
11.65 -0.10424
11.66 -0.203577
11.67 -0.287933
11.68 -0.359102
11.69 -0.419772
11.7 -0.470884
11.71 -0.515838
11.72 -0.555954
11.73 -0.593426
11.74 -0.629651
11.75 -0.665799
11.76 -0.70252
11.77 -0.740208
11.78 -0.778593
11.79 -0.817202
11.8 -0.855085
11.81 -0.891265
11.82 -0.92395
11.83 -0.952213
11.84 -0.973955
11.85 -0.987991
11.86 -0.993041
11.87 -0.987045
11.88 -0.970276
11.89 -0.940112
11.9 -0.8976
11.91 -0.841677
11.92 -0.772336
11.93 -0.690822
11.94 -0.596136
11.95 -0.491058
11.96 -0.375616
11.97 -0.252067
11.98 -0.122133
11.99 0.0123404
12 0.148779
12.01 0.284819
12.02 0.417955
12.03 0.545514
12.04 0.664666
12.05 0.773762
12.06 0.868668
12.07 0.949372
12.08 1.01234
12.09 1.05718
12.1 1.08312
12.11 1.08834
12.12 1.07528
12.13 1.04183
12.14 0.991648
12.15 0.925339
12.16 0.845228
12.17 0.754595
12.18 0.655178
12.19 0.551104
12.2 0.4449
12.21 0.339787
12.22 0.238274
12.23 0.143282
12.24 0.0558282
12.25 -0.0213599
12.26 -0.0886937
12.27 -0.145345
12.28 -0.19168
12.29 -0.229252
12.3 -0.258379
12.31 -0.281938
12.32 -0.301284
12.33 -0.318873
12.34 -0.336614
12.35 -0.356614
12.36 -0.380034
12.37 -0.408646
12.38 -0.442433
12.39 -0.481745
12.4 -0.525992
