# xPDFsuite Configuration #
[PDF]
wavelength = 0.1432
dataformat = twotheta
inputfile = 1_1Pd_CeO2_cycle-00244.chi
backgroundfile = background-00000.chi
mode = xray
bgscale = 1.007
composition = CeO2
outputtype = gr
qmaxinst = 28.8974762299
qmin = 0.5
qmax = 27.9
rmax = 50.0
rmin = 0.0
rstep = 0.01
rpoly = 1.8657

[Misc]
inputdir = G:/SankarDec16/1Pd/Chi
savedir = D:/DATA/APS_CeO2/1Pd
backgroundfilefull = G:/SankarDec16/Background/background-00000.chi

#### start data
#S 1
#L r($\AA$)  G($\AA^{-2}$)
0 0
0.01 -0.00584807
0.02 -0.011255
0.03 -0.0157667
0.04 -0.0190412
0.05 -0.0208883
0.06 -0.0210023
0.07 -0.0195873
0.08 -0.0165455
0.09 -0.0122663
0.1 -0.00701923
0.11 -0.00121673
0.12 0.00469198
0.13 0.0102024
0.14 0.014958
0.15 0.0185218
0.16 0.0206387
0.17 0.0212073
0.18 0.0200202
0.19 0.0173781
0.2 0.0132942
0.21 0.00822293
0.22 0.00250011
0.23 -0.00341099
0.24 -0.00908788
0.25 -0.0139871
0.26 -0.0178539
0.27 -0.0202898
0.28 -0.0211387
0.29 -0.0203931
0.3 -0.0179543
0.31 -0.0142052
0.32 -0.00926943
0.33 -0.0036447
0.34 0.00228308
0.35 0.0080219
0.36 0.0131967
0.37 0.0172513
0.38 0.0200451
0.39 0.0212377
0.4 0.0207799
0.41 0.0187588
0.42 0.0151892
0.43 0.0105179
0.44 0.00497357
0.45 -0.000926715
0.46 -0.00676582
0.47 -0.0120464
0.48 -0.0164594
0.49 -0.0194629
0.5 -0.0210375
0.51 -0.0209179
0.52 -0.0191643
0.53 -0.0159547
0.54 -0.0114173
0.55 -0.0060417
0.56 -0.00015019
0.57 0.00574514
0.58 0.0112164
0.59 0.0157847
0.6 0.0192225
0.61 0.0210286
0.62 0.0213062
0.63 0.0198782
0.64 0.0169121
0.65 0.0126684
0.66 0.00738338
0.67 0.00156532
0.68 -0.00438466
0.69 -0.00998426
0.7 -0.0148156
0.71 -0.0184415
0.72 -0.0207269
0.73 -0.0212358
0.74 -0.0201891
0.75 -0.0175065
0.76 -0.0134542
0.77 -0.00836236
0.78 -0.00256292
0.79 0.00344199
0.8 0.00919392
0.81 0.0142642
0.82 0.0182669
0.83 0.0208289
0.84 0.0219149
0.85 0.0211769
0.86 0.0189416
0.87 0.015229
0.88 0.0103896
0.89 0.0048035
0.9 -0.00112182
0.91 -0.00692051
0.92 -0.0121077
0.93 -0.0163369
0.94 -0.0192835
0.95 -0.0206701
0.96 -0.0205693
0.97 -0.0187623
0.98 -0.0156659
0.99 -0.0114197
1 -0.00644891
1.01 -0.00116875
1.02 0.00394064
1.03 0.00848753
1.04 0.0119733
1.05 0.0141712
1.06 0.0148459
1.07 0.0138511
1.08 0.0113961
1.09 0.00743784
1.1 0.00250583
1.11 -0.00309548
1.12 -0.0088305
1.13 -0.0142222
1.14 -0.0186503
1.15 -0.0217964
1.16 -0.0230658
1.17 -0.0223438
1.18 -0.0194376
1.19 -0.0142782
1.2 -0.00723342
1.21 0.00166763
1.22 0.011709
1.23 0.022466
1.24 0.0332537
1.25 0.0434783
1.26 0.0523548
1.27 0.0595067
1.28 0.0641686
1.29 0.0661852
1.3 0.0652674
1.31 0.0612363
1.32 0.0544869
1.33 0.0448369
1.34 0.0331093
1.35 0.0195969
1.36 0.00498884
1.37 -0.0100883
1.38 -0.024946
1.39 -0.0390283
1.4 -0.0516302
1.41 -0.062398
1.42 -0.0709346
1.43 -0.076888
1.44 -0.0804085
1.45 -0.081074
1.46 -0.0794232
1.47 -0.075429
1.48 -0.0694613
1.49 -0.0618987
1.5 -0.0529761
1.51 -0.0432063
1.52 -0.0328396
1.53 -0.0222582
1.54 -0.0117196
1.55 -0.00148876
1.56 0.00829003
1.57 0.0173553
1.58 0.0256864
1.59 0.0331045
1.6 0.0395327
1.61 0.0449264
1.62 0.0490688
1.63 0.0520307
1.64 0.0535457
1.65 0.0536502
1.66 0.0522309
1.67 0.0491721
1.68 0.0446222
1.69 0.0383576
1.7 0.0307218
1.71 0.0217305
1.72 0.0116588
1.73 0.00080628
1.74 -0.0105318
1.75 -0.0219459
1.76 -0.0330366
1.77 -0.0434431
1.78 -0.0528221
1.79 -0.0608196
1.8 -0.0673926
1.81 -0.0721776
1.82 -0.0754539
1.83 -0.0772033
1.84 -0.0777327
1.85 -0.0774053
1.86 -0.0766075
1.87 -0.0758392
1.88 -0.0756127
1.89 -0.0763443
1.9 -0.0784212
1.91 -0.0822045
1.92 -0.0876549
1.93 -0.0950503
1.94 -0.103925
1.95 -0.114081
1.96 -0.124944
1.97 -0.135909
1.98 -0.146162
1.99 -0.155065
2 -0.16161
2.01 -0.165257
2.02 -0.16534
2.03 -0.161186
2.04 -0.152946
2.05 -0.139787
2.06 -0.122533
2.07 -0.101079
2.08 -0.0760492
2.09 -0.0481507
2.1 -0.0178752
2.11 0.0137711
2.12 0.0462084
2.13 0.0786969
2.14 0.110746
2.15 0.141947
2.16 0.172235
2.17 0.201497
2.18 0.230114
2.19 0.258411
2.2 0.286948
2.21 0.316237
2.22 0.346997
2.23 0.379489
2.24 0.414286
2.25 0.451282
2.26 0.490363
2.27 0.531065
2.28 0.572503
2.29 0.613512
2.3 0.652771
2.31 0.688523
2.32 0.71899
2.33 0.742777
2.34 0.757224
2.35 0.76213
2.36 0.754922
2.37 0.735858
2.38 0.70434
2.39 0.660116
2.4 0.605146
2.41 0.539062
2.42 0.465264
2.43 0.385167
2.44 0.301629
2.45 0.217237
2.46 0.134981
2.47 0.0570214
2.48 -0.0135885
2.49 -0.0754974
2.5 -0.127137
2.51 -0.167143
2.52 -0.196472
2.53 -0.213716
2.54 -0.221602
2.55 -0.220689
2.56 -0.213238
2.57 -0.201499
2.58 -0.187611
2.59 -0.173985
2.6 -0.162869
2.61 -0.155876
2.62 -0.154381
2.63 -0.159542
2.64 -0.170955
2.65 -0.189402
2.66 -0.213081
2.67 -0.241287
2.68 -0.272216
2.69 -0.304134
2.7 -0.335046
2.71 -0.363424
2.72 -0.387287
2.73 -0.40579
2.74 -0.418086
2.75 -0.423631
2.76 -0.423337
2.77 -0.417071
2.78 -0.406901
2.79 -0.393991
2.8 -0.380338
2.81 -0.36769
2.82 -0.358231
2.83 -0.353061
2.84 -0.354103
2.85 -0.361653
2.86 -0.37613
2.87 -0.397508
2.88 -0.424343
2.89 -0.456039
2.9 -0.490147
2.91 -0.524887
2.92 -0.557894
2.93 -0.587272
2.94 -0.610372
2.95 -0.626486
2.96 -0.633465
2.97 -0.631533
2.98 -0.620566
2.99 -0.601015
3 -0.574963
3.01 -0.543451
3.02 -0.509543
3.03 -0.475504
3.04 -0.444139
3.05 -0.417593
3.06 -0.398882
3.07 -0.388583
3.08 -0.388985
3.09 -0.399555
3.1 -0.420189
3.11 -0.450106
3.12 -0.486807
3.13 -0.528853
3.14 -0.572841
3.15 -0.616178
3.16 -0.655866
3.17 -0.689732
3.18 -0.714712
3.19 -0.730558
3.2 -0.735243
3.21 -0.729815
3.22 -0.714904
3.23 -0.691997
3.24 -0.664034
3.25 -0.633445
3.26 -0.603769
3.27 -0.578276
3.28 -0.560165
3.29 -0.551512
3.3 -0.555656
3.31 -0.572018
3.32 -0.602473
3.33 -0.644986
3.34 -0.698153
3.35 -0.759475
3.36 -0.8251
3.37 -0.891345
3.38 -0.954073
3.39 -1.00904
3.4 -1.05253
3.41 -1.08238
3.42 -1.09472
3.43 -1.09098
3.44 -1.06933
3.45 -1.03291
3.46 -0.984011
3.47 -0.926265
3.48 -0.864636
3.49 -0.804137
3.5 -0.749585
3.51 -0.706105
3.52 -0.677653
3.53 -0.66608
3.54 -0.674783
3.55 -0.700685
3.56 -0.743642
3.57 -0.797776
3.58 -0.857598
3.59 -0.914811
3.6 -0.961672
3.61 -0.985265
3.62 -0.978974
3.63 -0.930511
3.64 -0.83135
3.65 -0.67714
3.66 -0.455589
3.67 -0.172929
3.68 0.178963
3.69 0.5909
3.7 1.05822
3.71 1.57305
3.72 2.11976
3.73 2.68753
3.74 3.2575
3.75 3.81323
3.76 4.33641
3.77 4.8132
3.78 5.22049
3.79 5.55452
3.8 5.79378
3.81 5.93804
3.82 5.98108
3.83 5.91746
3.84 5.76061
3.85 5.50176
3.86 5.16481
3.87 4.75447
3.88 4.28766
3.89 3.78123
3.9 3.24926
3.91 2.71047
3.92 2.1803
3.93 1.67272
3.94 1.19968
3.95 0.773693
3.96 0.396428
3.97 0.081278
3.98 -0.178957
3.99 -0.380201
4 -0.527277
4.01 -0.627476
4.02 -0.683066
4.03 -0.707218
4.04 -0.704368
4.05 -0.685302
4.06 -0.656975
4.07 -0.62663
4.08 -0.599623
4.09 -0.581473
4.1 -0.573736
4.11 -0.578663
4.12 -0.595937
4.13 -0.623821
4.14 -0.660959
4.15 -0.703298
4.16 -0.747924
4.17 -0.790947
4.18 -0.829119
4.19 -0.858836
4.2 -0.878748
4.21 -0.885167
4.22 -0.879022
4.23 -0.858961
4.24 -0.825812
4.25 -0.781204
4.26 -0.725617
4.27 -0.662301
4.28 -0.592385
4.29 -0.51854
4.3 -0.442464
4.31 -0.365846
4.32 -0.289877
4.33 -0.215651
4.34 -0.143385
4.35 -0.0733641
4.36 -0.00537208
4.37 0.0609969
4.38 0.126017
4.39 0.190207
4.4 0.253672
4.41 0.316428
4.42 0.378137
4.43 0.437982
4.44 0.495233
4.45 0.54793
4.46 0.595151
4.47 0.634721
4.48 0.664916
4.49 0.684687
4.5 0.691183
4.51 0.68513
4.52 0.664173
4.53 0.629399
4.54 0.580945
4.55 0.519254
4.56 0.447041
4.57 0.364745
4.58 0.276088
4.59 0.183004
4.6 0.0884624
4.61 -0.00506393
4.62 -0.0946325
4.63 -0.178708
4.64 -0.254691
4.65 -0.321896
4.66 -0.379439
4.67 -0.426596
4.68 -0.464693
4.69 -0.493033
4.7 -0.514106
4.71 -0.52864
4.72 -0.53847
4.73 -0.545314
4.74 -0.550626
4.75 -0.555951
4.76 -0.562524
4.77 -0.571147
4.78 -0.582353
4.79 -0.596467
4.8 -0.613052
4.81 -0.632027
4.82 -0.652386
4.83 -0.673445
4.84 -0.694217
4.85 -0.713904
4.86 -0.731453
4.87 -0.746526
4.88 -0.758314
4.89 -0.766848
4.9 -0.772087
4.91 -0.774148
4.92 -0.77377
4.93 -0.77124
4.94 -0.767579
4.95 -0.763448
4.96 -0.759682
4.97 -0.756906
4.98 -0.755912
4.99 -0.756883
5 -0.760366
5.01 -0.766256
5.02 -0.774524
5.03 -0.785033
5.04 -0.797235
5.05 -0.810921
5.06 -0.825401
5.07 -0.840252
5.08 -0.854936
5.09 -0.869043
5.1 -0.882023
5.11 -0.893661
5.12 -0.9034
5.13 -0.911013
5.14 -0.916093
5.15 -0.918004
5.16 -0.916578
5.17 -0.910484
5.18 -0.89956
5.19 -0.88246
5.2 -0.858146
5.21 -0.825948
5.22 -0.783591
5.23 -0.731367
5.24 -0.666939
5.25 -0.590499
5.26 -0.501444
5.27 -0.399124
5.28 -0.285339
5.29 -0.159293
5.3 -0.0242691
5.31 0.118399
5.32 0.265639
5.33 0.414309
5.34 0.56047
5.35 0.700795
5.36 0.830338
5.37 0.945872
5.38 1.0437
5.39 1.11928
5.4 1.17247
5.41 1.19721
5.42 1.19625
5.43 1.16706
5.44 1.11079
5.45 1.03023
5.46 0.925181
5.47 0.801884
5.48 0.661894
5.49 0.510955
5.5 0.353126
5.51 0.193168
5.52 0.0353147
5.53 -0.115392
5.54 -0.256316
5.55 -0.383673
5.56 -0.4952
5.57 -0.590312
5.58 -0.666161
5.59 -0.725325
5.6 -0.766333
5.61 -0.791961
5.62 -0.803609
5.63 -0.802856
5.64 -0.792994
5.65 -0.774999
5.66 -0.752054
5.67 -0.725509
5.68 -0.697032
5.69 -0.667723
5.7 -0.638263
5.71 -0.608936
5.72 -0.579673
5.73 -0.550085
5.74 -0.519634
5.75 -0.487543
5.76 -0.4534
5.77 -0.416256
5.78 -0.376204
5.79 -0.332953
5.8 -0.286855
5.81 -0.238619
5.82 -0.189072
5.83 -0.139572
5.84 -0.0916711
5.85 -0.0469371
5.86 -0.0069845
5.87 0.0261393
5.88 0.0518368
5.89 0.0674967
5.9 0.0736268
5.91 0.0689489
5.92 0.0535676
5.93 0.0283716
5.94 -0.00696304
5.95 -0.0500137
5.96 -0.100319
5.97 -0.155633
5.98 -0.214424
5.99 -0.27496
6 -0.335599
6.01 -0.394738
6.02 -0.451409
6.03 -0.504556
6.04 -0.553635
6.05 -0.598652
6.06 -0.639185
6.07 -0.676139
6.08 -0.709576
6.09 -0.74042
6.1 -0.76925
6.11 -0.796647
6.12 -0.823218
6.13 -0.849208
6.14 -0.87483
6.15 -0.899975
6.16 -0.924351
6.17 -0.947595
6.18 -0.968926
6.19 -0.988018
6.2 -1.00397
6.21 -1.01651
6.22 -1.0253
6.23 -1.03006
6.24 -1.03137
6.25 -1.02915
6.26 -1.0246
6.27 -1.0184
6.28 -1.0117
6.29 -1.00548
6.3 -1.0009
6.31 -0.99843
6.32 -0.998701
6.33 -1.00134
6.34 -1.00569
6.35 -1.01021
6.36 -1.01295
6.37 -1.01037
6.38 -0.999663
6.39 -0.976175
6.4 -0.93526
6.41 -0.873646
6.42 -0.783528
6.43 -0.664693
6.44 -0.509585
6.45 -0.318107
6.46 -0.0882713
6.47 0.182282
6.48 0.488146
6.49 0.832014
6.5 1.20428
6.51 1.60142
6.52 2.01496
6.53 2.4361
6.54 2.85469
6.55 3.26126
6.56 3.64323
6.57 3.99161
6.58 4.29683
6.59 4.54672
6.6 4.74044
6.61 4.86212
6.62 4.91768
6.63 4.9
6.64 4.81058
6.65 4.65571
6.66 4.43259
6.67 4.15662
6.68 3.82945
6.69 3.4648
6.7 3.07185
6.71 2.66106
6.72 2.24403
6.73 1.83143
6.74 1.4322
6.75 1.05566
6.76 0.709192
6.77 0.39619
6.78 0.125295
6.79 -0.107091
6.8 -0.295399
6.81 -0.443985
6.82 -0.554548
6.83 -0.628802
6.84 -0.674413
6.85 -0.691955
6.86 -0.690151
6.87 -0.672203
6.88 -0.643362
6.89 -0.608037
6.9 -0.569514
6.91 -0.530954
6.92 -0.494562
6.93 -0.461634
6.94 -0.432895
6.95 -0.408765
6.96 -0.388514
6.97 -0.372155
6.98 -0.358465
6.99 -0.346977
7 -0.337031
7.01 -0.328202
7.02 -0.320525
7.03 -0.314046
7.04 -0.309457
7.05 -0.307411
7.06 -0.308824
7.07 -0.315038
7.08 -0.326463
7.09 -0.344966
7.1 -0.370263
7.11 -0.403234
7.12 -0.443746
7.13 -0.490966
7.14 -0.544737
7.15 -0.602957
7.16 -0.664518
7.17 -0.727224
7.18 -0.78921
7.19 -0.848179
7.2 -0.902725
7.21 -0.950227
7.22 -0.990302
7.23 -1.02148
7.24 -1.04343
7.25 -1.05677
7.26 -1.06109
7.27 -1.05865
7.28 -1.05006
7.29 -1.03758
7.3 -1.0229
7.31 -1.00795
7.32 -0.994311
7.33 -0.983756
7.34 -0.976854
7.35 -0.974344
7.36 -0.976057
7.37 -0.981112
7.38 -0.988451
7.39 -0.996013
7.4 -1.00146
7.41 -1.00222
7.42 -0.995681
7.43 -0.978335
7.44 -0.948999
7.45 -0.903161
7.46 -0.841267
7.47 -0.76095
7.48 -0.661986
7.49 -0.545787
7.5 -0.411521
7.51 -0.26353
7.52 -0.102865
7.53 0.0660598
7.54 0.23975
7.55 0.413845
7.56 0.584413
7.57 0.746064
7.58 0.895913
7.59 1.02943
7.6 1.14333
7.61 1.23638
7.62 1.30375
7.63 1.34787
7.64 1.36534
7.65 1.35851
7.66 1.32817
7.67 1.27484
7.68 1.20299
7.69 1.11248
7.7 1.00867
7.71 0.893484
7.72 0.770429
7.73 0.642773
7.74 0.51335
7.75 0.385078
7.76 0.260777
7.77 0.142571
7.78 0.0323974
7.79 -0.0673638
7.8 -0.156555
7.81 -0.232188
7.82 -0.295237
7.83 -0.344206
7.84 -0.378981
7.85 -0.400432
7.86 -0.407234
7.87 -0.401984
7.88 -0.384104
7.89 -0.355793
7.9 -0.31838
7.91 -0.273324
7.92 -0.223275
7.93 -0.169895
7.94 -0.115973
7.95 -0.0638096
7.96 -0.0160004
7.97 0.02562
7.98 0.0578266
7.99 0.0801595
8 0.0898467
8.01 0.0867511
8.02 0.0703085
8.03 0.0397863
8.04 -0.00276193
8.05 -0.0580539
8.06 -0.122814
8.07 -0.195832
8.08 -0.274525
8.09 -0.3563
8.1 -0.438634
8.11 -0.519097
8.12 -0.595114
8.13 -0.665001
8.14 -0.727333
8.15 -0.780584
8.16 -0.82536
8.17 -0.860427
8.18 -0.887721
8.19 -0.907724
8.2 -0.922076
8.21 -0.932617
8.22 -0.940822
8.23 -0.948548
8.24 -0.957126
8.25 -0.967458
8.26 -0.979907
8.27 -0.994298
8.28 -1.00954
8.29 -1.02389
8.3 -1.03509
8.31 -1.04001
8.32 -1.03501
8.33 -1.01734
8.34 -0.981
8.35 -0.925079
8.36 -0.843702
8.37 -0.735905
8.38 -0.599801
8.39 -0.43276
8.4 -0.238389
8.41 -0.0138871
8.42 0.234084
8.43 0.503505
8.44 0.788739
8.45 1.08343
8.46 1.38112
8.47 1.67448
8.48 1.95523
8.49 2.21653
8.5 2.45169
8.51 2.65199
8.52 2.81623
8.53 2.93361
8.54 3.0071
8.55 3.03173
8.56 3.0076
8.57 2.9387
8.58 2.82204
8.59 2.66779
8.6 2.4762
8.61 2.25589
8.62 2.0126
8.63 1.75245
8.64 1.48343
8.65 1.21152
8.66 0.943354
8.67 0.684674
8.68 0.440725
8.69 0.214257
8.7 0.0110955
8.71 -0.169973
8.72 -0.325015
8.73 -0.455679
8.74 -0.562462
8.75 -0.645481
8.76 -0.709136
8.77 -0.753002
8.78 -0.782379
8.79 -0.798964
8.8 -0.805994
8.81 -0.806577
8.82 -0.802817
8.83 -0.797494
8.84 -0.79241
8.85 -0.789172
8.86 -0.788869
8.87 -0.792537
8.88 -0.800106
8.89 -0.812289
8.9 -0.828278
8.91 -0.847935
8.92 -0.870578
8.93 -0.895381
8.94 -0.92175
8.95 -0.948732
8.96 -0.975642
8.97 -1.00179
8.98 -1.02665
8.99 -1.04962
9 -1.07061
9.01 -1.08906
9.02 -1.10518
9.03 -1.11879
9.04 -1.12997
9.05 -1.13896
9.06 -1.14562
9.07 -1.15037
9.08 -1.15305
9.09 -1.15384
9.1 -1.15267
9.11 -1.14926
9.12 -1.14362
9.13 -1.13501
9.14 -1.12338
9.15 -1.10802
9.16 -1.08835
9.17 -1.06415
9.18 -1.0342
9.19 -0.998872
9.2 -0.957151
9.21 -0.909305
9.22 -0.85535
9.23 -0.795218
9.24 -0.730076
9.25 -0.660012
9.26 -0.586736
9.27 -0.511292
9.28 -0.43536
9.29 -0.360503
9.3 -0.288929
9.31 -0.221934
9.32 -0.161923
9.33 -0.110136
9.34 -0.0679212
9.35 -0.037135
9.36 -0.0172155
9.37 -0.0103166
9.38 -0.014686
9.39 -0.0306273
9.4 -0.0570258
9.41 -0.0919938
9.42 -0.134732
9.43 -0.182292
9.44 -0.233085
9.45 -0.284601
9.46 -0.334849
9.47 -0.381533
9.48 -0.423476
9.49 -0.458368
9.5 -0.486129
9.51 -0.505736
9.52 -0.517161
9.53 -0.52127
9.54 -0.517999
9.55 -0.509481
9.56 -0.496544
9.57 -0.481184
9.58 -0.464974
9.59 -0.449728
9.6 -0.436739
9.61 -0.427846
9.62 -0.423564
9.63 -0.4249
9.64 -0.4322
9.65 -0.445076
9.66 -0.463894
9.67 -0.48724
9.68 -0.514822
9.69 -0.545343
9.7 -0.577863
9.71 -0.611409
9.72 -0.645065
9.73 -0.678045
9.74 -0.709907
9.75 -0.740262
9.76 -0.768966
9.77 -0.796129
9.78 -0.821634
9.79 -0.845776
9.8 -0.868341
9.81 -0.889165
9.82 -0.907718
9.83 -0.922774
9.84 -0.933424
9.85 -0.936819
9.86 -0.931444
9.87 -0.913896
9.88 -0.880708
9.89 -0.829757
9.9 -0.754555
9.91 -0.655172
9.92 -0.525381
9.93 -0.364507
9.94 -0.1708
9.95 0.058852
9.96 0.320275
9.97 0.616973
9.98 0.94174
9.99 1.29266
10 1.66388
10.01 2.04829
10.02 2.43921
10.03 2.82795
10.04 3.20541
10.05 3.56318
10.06 3.89326
10.07 4.18487
10.08 4.4357
10.09 4.63242
10.1 4.77705
10.11 4.86285
10.12 4.8883
10.13 4.85747
10.14 4.76478
10.15 4.62214
10.16 4.42839
10.17 4.19336
10.18 3.92361
10.19 3.62558
10.2 3.30981
10.21 2.98251
10.22 2.65302
10.23 2.32825
10.24 2.01528
10.25 1.71833
10.26 1.44471
10.27 1.19426
10.28 0.971911
10.29 0.776686
10.3 0.608343
10.31 0.467258
10.32 0.348534
10.33 0.252773
10.34 0.173974
10.35 0.11009
10.36 0.0573746
10.37 0.0121099
10.38 -0.0281893
10.39 -0.0667978
10.4 -0.105822
10.41 -0.147093
10.42 -0.191786
10.43 -0.240992
10.44 -0.294487
10.45 -0.35284
10.46 -0.414982
10.47 -0.480466
10.48 -0.548265
10.49 -0.617257
10.5 -0.686296
10.51 -0.754264
10.52 -0.81987
10.53 -0.88215
10.54 -0.940201
10.55 -0.992772
10.56 -1.03979
10.57 -1.07967
10.58 -1.1128
10.59 -1.13833
10.6 -1.156
10.61 -1.16621
10.62 -1.16792
10.63 -1.16244
10.64 -1.14915
10.65 -1.129
10.66 -1.10248
10.67 -1.06996
10.68 -1.03284
10.69 -0.991438
10.7 -0.947313
10.71 -0.901348
10.72 -0.854792
10.73 -0.808726
10.74 -0.764511
10.75 -0.722903
10.76 -0.685208
10.77 -0.652043
10.78 -0.624023
10.79 -0.602049
10.8 -0.585727
10.81 -0.576097
10.82 -0.572282
10.83 -0.574476
10.84 -0.582302
10.85 -0.594978
10.86 -0.612577
10.87 -0.633861
10.88 -0.658683
10.89 -0.686201
10.9 -0.715895
10.91 -0.747327
10.92 -0.779868
10.93 -0.813213
10.94 -0.846862
10.95 -0.88048
10.96 -0.913677
10.97 -0.946162
10.98 -0.977424
10.99 -1.00728
11 -1.03515
11.01 -1.06079
11.02 -1.08383
11.03 -1.10374
11.04 -1.12062
11.05 -1.13376
11.06 -1.14355
11.07 -1.14982
11.08 -1.15278
11.09 -1.15297
11.1 -1.15056
11.11 -1.14651
11.12 -1.14132
11.13 -1.13584
11.14 -1.13071
11.15 -1.12662
11.16 -1.12384
11.17 -1.12277
11.18 -1.12302
11.19 -1.12418
11.2 -1.12521
11.21 -1.12488
11.22 -1.12097
11.23 -1.11188
11.24 -1.09446
11.25 -1.06643
11.26 -1.02526
11.27 -0.967062
11.28 -0.891501
11.29 -0.793541
11.3 -0.674397
11.31 -0.531858
11.32 -0.365881
11.33 -0.178839
11.34 0.0301701
11.35 0.255414
11.36 0.495128
11.37 0.743694
11.38 0.996298
11.39 1.24687
11.4 1.4902
11.41 1.71846
11.42 1.9276
11.43 2.11112
11.44 2.26375
11.45 2.38406
11.46 2.46407
11.47 2.5077
11.48 2.50989
11.49 2.47388
11.5 2.40148
11.51 2.29341
11.52 2.15722
11.53 1.9936
11.54 1.81112
11.55 1.61386
11.56 1.40793
11.57 1.19887
11.58 0.992127
11.59 0.791777
11.6 0.602558
11.61 0.427004
11.62 0.267089
11.63 0.125348
11.64 9.96184e-05
11.65 -0.106493
11.66 -0.197812
11.67 -0.274471
11.68 -0.338718
11.69 -0.393521
11.7 -0.440325
11.71 -0.482524
11.72 -0.521757
11.73 -0.560136
11.74 -0.598983
11.75 -0.639401
11.76 -0.681628
11.77 -0.725901
11.78 -0.771448
11.79 -0.817454
11.8 -0.862535
11.81 -0.90538
11.82 -0.943723
11.83 -0.9765
11.84 -1.00125
11.85 -1.01672
11.86 -1.02159
11.87 -1.01374
11.88 -0.993713
11.89 -0.958893
11.9 -0.910752
11.91 -0.848457
11.92 -0.772372
11.93 -0.684084
11.94 -0.582995
11.95 -0.472155
11.96 -0.351968
11.97 -0.224892
11.98 -0.0928102
11.99 0.0422021
12 0.177717
12.01 0.311181
12.02 0.440399
12.03 0.562784
12.04 0.675765
12.05 0.778019
12.06 0.865692
12.07 0.939156
12.08 0.995232
12.09 1.03386
12.1 1.05457
12.11 1.05589
12.12 1.04032
12.13 1.0061
12.14 0.956771
12.15 0.893023
12.16 0.817083
12.17 0.731961
12.18 0.639307
12.19 0.542771
12.2 0.444607
12.21 0.34759
12.22 0.253848
12.23 0.165826
12.24 0.0842857
12.25 0.0114225
12.26 -0.0532518
12.27 -0.109191
12.28 -0.156867
12.29 -0.197675
12.3 -0.232071
12.31 -0.262431
12.32 -0.28997
12.33 -0.316641
12.34 -0.343919
12.35 -0.373382
12.36 -0.405727
12.37 -0.442091
12.38 -0.482136
12.39 -0.525743
12.4 -0.571993
