# xPDFsuite Configuration #
[PDF]
wavelength = 0.1432
dataformat = twotheta
inputfile = 1_1Pd_CeO2_cycle-00018.chi
backgroundfile = background-00000.chi
mode = xray
bgscale = 1.007
composition = CeO2
outputtype = gr
qmaxinst = 28.8974762299
qmin = 0.5
qmax = 27.9
rmax = 50.0
rmin = 0.0
rstep = 0.01
rpoly = 1.8657

[Misc]
inputdir = G:/SankarDec16/1Pd/Chi
savedir = D:/DATA/APS_CeO2/1Pd
backgroundfilefull = G:/SankarDec16/Background/background-00000.chi

#### start data
#S 1
#L r($\AA$)  G($\AA^{-2}$)
0 0
0.01 -0.00752739
0.02 -0.0144868
0.03 -0.0202935
0.04 -0.0245072
0.05 -0.0268831
0.06 -0.0270278
0.07 -0.0252042
0.08 -0.0212868
0.09 -0.015777
0.1 -0.00902211
0.11 -0.00155344
0.12 0.00605065
0.13 0.0131404
0.14 0.0192571
0.15 0.0238385
0.16 0.0265562
0.17 0.0272804
0.18 0.0257447
0.19 0.0223367
0.2 0.0170743
0.21 0.0105427
0.22 0.00317493
0.23 -0.00443239
0.24 -0.0117356
0.25 -0.0180348
0.26 -0.0230028
0.27 -0.0261273
0.28 -0.0272082
0.29 -0.0262368
0.3 -0.0230871
0.31 -0.0182526
0.32 -0.011894
0.33 -0.00465215
0.34 0.0029757
0.35 0.010356
0.36 0.0170065
0.37 0.0222116
0.38 0.0257916
0.39 0.0273093
0.4 0.0267029
0.41 0.0240857
0.42 0.0194785
0.43 0.0134572
0.44 0.00631738
0.45 -0.00127519
0.46 -0.00878341
0.47 -0.0155674
0.48 -0.0212304
0.49 -0.0250759
0.5 -0.0270809
0.51 -0.0269053
0.52 -0.0246287
0.53 -0.0204816
0.54 -0.0146313
0.55 -0.00770793
0.56 -0.000128041
0.57 0.00744993
0.58 0.0144755
0.59 0.0203333
0.6 0.0247322
0.61 0.027029
0.62 0.0273588
0.63 0.025496
0.64 0.0216582
0.65 0.0161822
0.66 0.00937415
0.67 0.00188787
0.68 -0.00575936
0.69 -0.0129484
0.7 -0.0191428
0.71 -0.0237817
0.72 -0.0266943
0.73 -0.0273225
0.74 -0.0259531
0.75 -0.0224859
0.76 -0.0172659
0.77 -0.010719
0.78 -0.00327459
0.79 0.00442311
0.8 0.0117839
0.81 0.0182596
0.82 0.0233568
0.83 0.0265998
0.84 0.0279476
0.85 0.02696
0.86 0.0240607
0.87 0.0192831
0.88 0.0130826
0.89 0.00595134
0.9 -0.00157942
0.91 -0.00891319
0.92 -0.015421
0.93 -0.0206618
0.94 -0.0242202
0.95 -0.0257437
0.96 -0.0253345
0.97 -0.022718
0.98 -0.018443
0.99 -0.0127007
1 -0.00605296
1.01 0.000953452
1.02 0.00767844
1.03 0.0136103
1.04 0.0180798
1.05 0.0207871
1.06 0.0214114
1.07 0.0197442
1.08 0.0160587
1.09 0.0102649
1.1 0.00306586
1.11 -0.00516151
1.12 -0.0137157
1.13 -0.0219643
1.14 -0.0290994
1.15 -0.0346669
1.16 -0.0378721
1.17 -0.0385139
1.18 -0.0362923
1.19 -0.0310481
1.2 -0.0232068
1.21 -0.0126948
1.22 -0.000405389
1.23 0.0132138
1.24 0.027337
1.25 0.0412311
1.26 0.0539849
1.27 0.0650609
1.28 0.0735541
1.29 0.0791893
1.3 0.0815707
1.31 0.080413
1.32 0.0760968
1.33 0.0683145
1.34 0.0579518
1.35 0.0452456
1.36 0.0309082
1.37 0.0156004
1.38 -2.11083e-05
1.39 -0.0153135
1.4 -0.0296133
1.41 -0.0425036
1.42 -0.0535833
1.43 -0.0624945
1.44 -0.069325
1.45 -0.073677
1.46 -0.0759887
1.47 -0.0762001
1.48 -0.0745879
1.49 -0.0714335
1.5 -0.0668409
1.51 -0.0612044
1.52 -0.0545885
1.53 -0.0472507
1.54 -0.0392914
1.55 -0.0307976
1.56 -0.0218942
1.57 -0.0125968
1.58 -0.00305053
1.59 0.00665627
1.6 0.0163513
1.61 0.0258481
1.62 0.0348326
1.63 0.0430835
1.64 0.0501359
1.65 0.0557259
1.66 0.0594777
1.67 0.0609657
1.68 0.0601825
1.69 0.0565344
1.7 0.0503891
1.71 0.04157
1.72 0.030379
1.73 0.0172263
1.74 0.00243735
1.75 -0.0132383
1.76 -0.0292377
1.77 -0.0448331
1.78 -0.0593873
1.79 -0.0721912
1.8 -0.0829705
1.81 -0.090958
1.82 -0.096382
1.83 -0.0989915
1.84 -0.099074
1.85 -0.0970733
1.86 -0.0933718
1.87 -0.088804
1.88 -0.0840233
1.89 -0.0798186
1.9 -0.0768687
1.91 -0.0758893
1.92 -0.0770868
1.93 -0.0811322
1.94 -0.0876295
1.95 -0.0966085
1.96 -0.107519
1.97 -0.119679
1.98 -0.132274
1.99 -0.144347
2 -0.154744
2.01 -0.162572
2.02 -0.166888
2.03 -0.166684
2.04 -0.161892
2.05 -0.151322
2.06 -0.135755
2.07 -0.114901
2.08 -0.0893944
2.09 -0.0600421
2.1 -0.0273862
2.11 0.00725649
2.12 0.0431233
2.13 0.0791439
2.14 0.114557
2.15 0.148638
2.16 0.181159
2.17 0.211677
2.18 0.240602
2.19 0.26813
2.2 0.294896
2.21 0.321565
2.22 0.348982
2.23 0.377733
2.24 0.408643
2.25 0.441928
2.26 0.477758
2.27 0.515981
2.28 0.555824
2.29 0.596445
2.3 0.636408
2.31 0.674043
2.32 0.707425
2.33 0.734946
2.34 0.75375
2.35 0.763272
2.36 0.760632
2.37 0.745749
2.38 0.717731
2.39 0.676009
2.4 0.622472
2.41 0.556438
2.42 0.481493
2.43 0.399014
2.44 0.312072
2.45 0.223524
2.46 0.136633
2.47 0.0539547
2.48 -0.0210771
2.49 -0.0867639
2.5 -0.141216
2.51 -0.18274
2.52 -0.212259
2.53 -0.228038
2.54 -0.233068
2.55 -0.227897
2.56 -0.215062
2.57 -0.197145
2.58 -0.17662
2.59 -0.156347
2.6 -0.139024
2.61 -0.126649
2.62 -0.120962
2.63 -0.123495
2.64 -0.133872
2.65 -0.153263
2.66 -0.179563
2.67 -0.212105
2.68 -0.248794
2.69 -0.287543
2.7 -0.326037
2.71 -0.362244
2.72 -0.393748
2.73 -0.419274
2.74 -0.437598
2.75 -0.447781
2.76 -0.450669
2.77 -0.445728
2.78 -0.435281
2.79 -0.420427
2.8 -0.403412
2.81 -0.386295
2.82 -0.371528
2.83 -0.360684
2.84 -0.356057
2.85 -0.358342
2.86 -0.368298
2.87 -0.386249
2.88 -0.410827
2.89 -0.44177
2.9 -0.47643
2.91 -0.513075
2.92 -0.549124
2.93 -0.582413
2.94 -0.61005
2.95 -0.630932
2.96 -0.642574
2.97 -0.644865
2.98 -0.637391
2.99 -0.620297
3 -0.595613
3.01 -0.56408
3.02 -0.528949
3.03 -0.492435
3.04 -0.457522
3.05 -0.426587
3.06 -0.402832
3.07 -0.38718
3.08 -0.382177
3.09 -0.387584
3.1 -0.403538
3.11 -0.42951
3.12 -0.463071
3.13 -0.503033
3.14 -0.545884
3.15 -0.589104
3.16 -0.629595
3.17 -0.665046
3.18 -0.69232
3.19 -0.710927
3.2 -0.718731
3.21 -0.716582
3.22 -0.704983
3.23 -0.685288
3.24 -0.660364
3.25 -0.632546
3.26 -0.605376
3.27 -0.582095
3.28 -0.56592
3.29 -0.558963
3.3 -0.564566
3.31 -0.582207
3.32 -0.613759
3.33 -0.657208
3.34 -0.711141
3.35 -0.773031
3.36 -0.839019
3.37 -0.905343
3.38 -0.967872
3.39 -1.0223
3.4 -1.06491
3.41 -1.09353
3.42 -1.1043
3.43 -1.09874
3.44 -1.07503
3.45 -1.03646
3.46 -0.985395
3.47 -0.925617
3.48 -0.862181
3.49 -0.800265
3.5 -0.744725
3.51 -0.700792
3.52 -0.672444
3.53 -0.661503
3.54 -0.671373
3.55 -0.69883
3.56 -0.743654
3.57 -0.799793
3.58 -0.861611
3.59 -0.92063
3.6 -0.968991
3.61 -0.993575
3.62 -0.987748
3.63 -0.939121
3.64 -0.839179
3.65 -0.683642
3.66 -0.460262
3.67 -0.175465
3.68 0.178737
3.69 0.592953
3.7 1.06235
3.71 1.57884
3.72 2.12673
3.73 2.69499
3.74 3.26484
3.75 3.81978
3.76 4.3416
3.77 4.81663
3.78 5.22193
3.79 5.55399
3.8 5.79155
3.81 5.93459
3.82 5.97714
3.83 5.91395
3.84 5.75847
3.85 5.50212
3.86 5.16858
3.87 4.76249
3.88 4.3005
3.89 3.79917
3.9 3.27218
3.91 2.73789
3.92 2.21129
3.93 1.70601
3.94 1.2337
3.95 0.806539
3.96 0.426293
3.97 0.106046
3.98 -0.160964
3.99 -0.370552
4 -0.527086
4.01 -0.637358
4.02 -0.703063
4.03 -0.736796
4.04 -0.742288
4.05 -0.729845
4.06 -0.705936
4.07 -0.6773
4.08 -0.649377
4.09 -0.627187
4.1 -0.612859
4.11 -0.608716
4.12 -0.615001
4.13 -0.630622
4.14 -0.654882
4.15 -0.684536
4.16 -0.717515
4.17 -0.750606
4.18 -0.7812
4.19 -0.806368
4.2 -0.824752
4.21 -0.833337
4.22 -0.832453
4.23 -0.82075
4.24 -0.798471
4.25 -0.766537
4.26 -0.724753
4.27 -0.675413
4.28 -0.618748
4.29 -0.556615
4.3 -0.489975
4.31 -0.419737
4.32 -0.347025
4.33 -0.27216
4.34 -0.195931
4.35 -0.118572
4.36 -0.040438
4.37 0.0381507
4.38 0.116805
4.39 0.195022
4.4 0.271995
4.41 0.346864
4.42 0.418517
4.43 0.485311
4.44 0.54641
4.45 0.59905
4.46 0.642857
4.47 0.675589
4.48 0.696084
4.49 0.70402
4.5 0.697209
4.51 0.677414
4.52 0.643194
4.53 0.596529
4.54 0.53834
4.55 0.469906
4.56 0.394058
4.57 0.312049
4.58 0.22706
4.59 0.141101
4.6 0.0565912
4.61 -0.0247198
4.62 -0.100529
4.63 -0.170337
4.64 -0.232435
4.65 -0.287026
4.66 -0.333993
4.67 -0.373442
4.68 -0.406823
4.69 -0.434243
4.7 -0.457685
4.71 -0.477978
4.72 -0.496448
4.73 -0.514141
4.74 -0.531947
4.75 -0.550429
4.76 -0.570032
4.77 -0.590732
4.78 -0.612365
4.79 -0.634519
4.8 -0.656622
4.81 -0.677904
4.82 -0.697785
4.83 -0.715503
4.84 -0.730508
4.85 -0.742577
4.86 -0.751136
4.87 -0.756661
4.88 -0.758984
4.89 -0.758796
4.9 -0.756586
4.91 -0.75301
4.92 -0.748865
4.93 -0.744877
4.94 -0.741682
4.95 -0.739888
4.96 -0.73991
4.97 -0.741881
4.98 -0.746114
4.99 -0.752219
5 -0.760202
5.01 -0.769557
5.02 -0.779933
5.03 -0.790916
5.04 -0.802096
5.05 -0.813143
5.06 -0.823854
5.07 -0.834087
5.08 -0.843836
5.09 -0.853185
5.1 -0.862219
5.11 -0.871085
5.12 -0.879816
5.13 -0.888348
5.14 -0.896442
5.15 -0.903541
5.16 -0.909079
5.17 -0.911625
5.18 -0.910294
5.19 -0.903234
5.2 -0.888682
5.21 -0.86536
5.22 -0.830145
5.23 -0.783022
5.24 -0.720922
5.25 -0.643971
5.26 -0.551432
5.27 -0.442631
5.28 -0.319948
5.29 -0.182728
5.3 -0.0351922
5.31 0.120722
5.32 0.281072
5.33 0.442
5.34 0.598614
5.35 0.747215
5.36 0.882056
5.37 0.999825
5.38 1.09668
5.39 1.16803
5.4 1.21437
5.41 1.22975
5.42 1.21791
5.43 1.17693
5.44 1.10886
5.45 1.01718
5.46 0.902625
5.47 0.771831
5.48 0.627099
5.49 0.474246
5.5 0.317445
5.51 0.161456
5.52 0.00990582
5.53 -0.132346
5.54 -0.263599
5.55 -0.380677
5.56 -0.482153
5.57 -0.568108
5.58 -0.636569
5.59 -0.690396
5.6 -0.728795
5.61 -0.754528
5.62 -0.769032
5.63 -0.773798
5.64 -0.771488
5.65 -0.762805
5.66 -0.750033
5.67 -0.733891
5.68 -0.715248
5.69 -0.694601
5.7 -0.6718
5.71 -0.646953
5.72 -0.619392
5.73 -0.588837
5.74 -0.554794
5.75 -0.516663
5.76 -0.474693
5.77 -0.428296
5.78 -0.378432
5.79 -0.325463
5.8 -0.270503
5.81 -0.214804
5.82 -0.159977
5.83 -0.107457
5.84 -0.059316
5.85 -0.0169249
5.86 0.0182251
5.87 0.0443515
5.88 0.0615417
5.89 0.0676363
5.9 0.06398
5.91 0.0499746
5.92 0.0264612
5.93 -0.00517869
5.94 -0.0445024
5.95 -0.0890995
5.96 -0.138027
5.97 -0.189306
5.98 -0.241574
5.99 -0.293412
6 -0.343888
6.01 -0.391877
6.02 -0.437247
6.03 -0.479617
6.04 -0.519169
6.05 -0.556378
6.06 -0.591573
6.07 -0.625633
6.08 -0.659095
6.09 -0.692622
6.1 -0.726644
6.11 -0.761472
6.12 -0.797041
6.13 -0.833207
6.14 -0.869398
6.15 -0.904924
6.16 -0.938848
6.17 -0.970379
6.18 -0.998102
6.19 -1.02168
6.2 -1.03981
6.21 -1.05242
6.22 -1.05929
6.23 -1.06033
6.24 -1.05665
6.25 -1.04848
6.26 -1.03761
6.27 -1.02515
6.28 -1.01274
6.29 -1.00165
6.3 -0.993493
6.31 -0.98872
6.32 -0.98821
6.33 -0.991435
6.34 -0.997603
6.35 -1.00502
6.36 -1.01135
6.37 -1.0128
6.38 -1.0062
6.39 -0.986594
6.4 -0.949048
6.41 -0.89013
6.42 -0.801795
6.43 -0.683894
6.44 -0.528776
6.45 -0.336499
6.46 -0.105189
6.47 0.167362
6.48 0.475524
6.49 0.821839
6.5 1.19652
6.51 1.59592
6.52 2.0115
6.53 2.43443
6.54 2.85459
6.55 3.26259
6.56 3.64594
6.57 3.9958
6.58 4.3027
6.59 4.55462
6.6 4.75072
6.61 4.87521
6.62 4.93392
6.63 4.91965
6.64 4.83371
6.65 4.68218
6.66 4.46194
6.67 4.18822
6.68 3.86228
6.69 3.49766
6.7 3.10338
6.71 2.68968
6.72 2.26833
6.73 1.84987
6.74 1.44363
6.75 1.05914
6.76 0.704218
6.77 0.382689
6.78 0.103748
6.79 -0.135795
6.8 -0.329768
6.81 -0.482217
6.82 -0.594536
6.83 -0.668115
6.84 -0.710835
6.85 -0.723022
6.86 -0.713982
6.87 -0.687146
6.88 -0.648334
6.89 -0.602552
6.9 -0.553757
6.91 -0.505698
6.92 -0.461316
6.93 -0.422348
6.94 -0.389925
6.95 -0.364898
6.96 -0.34633
6.97 -0.33458
6.98 -0.327785
6.99 -0.325268
7 -0.325763
7.01 -0.328188
7.02 -0.331894
7.03 -0.336251
7.04 -0.341194
7.05 -0.346882
7.06 -0.353788
7.07 -0.362804
7.08 -0.374514
7.09 -0.390433
7.1 -0.41089
7.11 -0.436964
7.12 -0.469102
7.13 -0.5071
7.14 -0.551433
7.15 -0.600641
7.16 -0.654291
7.17 -0.710627
7.18 -0.768151
7.19 -0.824916
7.2 -0.879323
7.21 -0.928961
7.22 -0.972862
7.23 -1.0093
7.24 -1.03735
7.25 -1.05708
7.26 -1.06745
7.27 -1.07021
7.28 -1.0654
7.29 -1.05499
7.3 -1.04045
7.31 -1.02357
7.32 -1.00622
7.33 -0.990219
7.34 -0.976792
7.35 -0.967107
7.36 -0.961655
7.37 -0.960122
7.38 -0.962208
7.39 -0.966171
7.4 -0.970302
7.41 -0.972137
7.42 -0.969139
7.43 -0.957821
7.44 -0.936462
7.45 -0.900345
7.46 -0.849076
7.47 -0.779678
7.48 -0.691108
7.49 -0.58413
7.5 -0.456975
7.51 -0.313723
7.52 -0.154681
7.53 0.0157469
7.54 0.194117
7.55 0.376032
7.56 0.556861
7.57 0.730962
7.58 0.894432
7.59 1.04203
7.6 1.16952
7.61 1.27494
7.62 1.35242
7.63 1.40405
7.64 1.42564
7.65 1.4195
7.66 1.38636
7.67 1.32675
7.68 1.24588
7.69 1.14383
7.7 1.02703
7.71 0.898107
7.72 0.76153
7.73 0.621327
7.74 0.481347
7.75 0.344848
7.76 0.215432
7.77 0.0952676
7.78 -0.0136478
7.79 -0.108954
7.8 -0.191192
7.81 -0.257598
7.82 -0.310147
7.83 -0.348003
7.84 -0.371932
7.85 -0.383492
7.86 -0.382264
7.87 -0.371118
7.88 -0.350137
7.89 -0.321502
7.9 -0.286533
7.91 -0.246589
7.92 -0.203652
7.93 -0.159077
7.94 -0.114752
7.95 -0.0723364
7.96 -0.0336312
7.97 0.0001021
7.98 0.0264512
7.99 0.0450853
8 0.053768
8.01 0.052228
8.02 0.0397929
8.03 0.0155172
8.04 -0.0192172
8.05 -0.0655382
8.06 -0.120991
8.07 -0.185006
8.08 -0.255716
8.09 -0.330993
8.1 -0.409033
8.11 -0.487391
8.12 -0.563899
8.13 -0.636619
8.14 -0.703915
8.15 -0.763935
8.16 -0.816606
8.17 -0.860184
8.18 -0.895867
8.19 -0.923502
8.2 -0.944103
8.21 -0.95916
8.22 -0.969539
8.23 -0.977262
8.24 -0.9834
8.25 -0.98924
8.26 -0.995471
8.27 -1.00238
8.28 -1.00955
8.29 -1.01588
8.3 -1.01975
8.31 -1.0187
8.32 -1.0096
8.33 -0.989927
8.34 -0.954205
8.35 -0.901171
8.36 -0.825063
8.37 -0.724379
8.38 -0.596768
8.39 -0.438982
8.4 -0.25391
8.41 -0.0379484
8.42 0.202835
8.43 0.467112
8.44 0.749747
8.45 1.04452
8.46 1.34544
8.47 1.64468
8.48 1.93399
8.49 2.20583
8.5 2.45293
8.51 2.66584
8.52 2.84253
8.53 2.97129
8.54 3.05446
8.55 3.08632
8.56 3.06642
8.57 2.99865
8.58 2.8795
8.59 2.71972
8.6 2.51952
8.61 2.28828
8.62 2.03236
8.63 1.75863
8.64 1.47597
8.65 1.19129
8.66 0.911886
8.67 0.644283
8.68 0.394281
8.69 0.164765
8.7 -0.0378869
8.71 -0.215458
8.72 -0.363934
8.73 -0.48568
8.74 -0.581762
8.75 -0.65301
8.76 -0.704654
8.77 -0.737117
8.78 -0.756354
8.79 -0.764775
8.8 -0.766137
8.81 -0.763687
8.82 -0.760032
8.83 -0.757457
8.84 -0.757837
8.85 -0.762156
8.86 -0.770997
8.87 -0.784779
8.88 -0.802703
8.89 -0.824758
8.9 -0.849565
8.91 -0.876384
8.92 -0.904097
8.93 -0.931765
8.94 -0.958387
8.95 -0.983434
8.96 -1.00617
8.97 -1.02645
8.98 -1.04414
8.99 -1.05918
9 -1.07206
9.01 -1.0828
9.02 -1.09206
9.03 -1.10011
9.04 -1.10736
9.05 -1.1141
9.06 -1.12047
9.07 -1.12654
9.08 -1.13215
9.09 -1.13704
9.1 -1.1408
9.11 -1.14275
9.12 -1.14248
9.13 -1.13882
9.14 -1.13143
9.15 -1.11931
9.16 -1.10171
9.17 -1.07843
9.18 -1.04814
9.19 -1.01152
9.2 -0.967643
9.21 -0.917121
9.22 -0.860247
9.23 -0.797277
9.24 -0.729623
9.25 -0.657695
9.26 -0.583292
9.27 -0.507608
9.28 -0.432334
9.29 -0.358918
9.3 -0.289515
9.31 -0.225126
9.32 -0.167966
9.33 -0.118982
9.34 -0.0792807
9.35 -0.0504395
9.36 -0.0317861
9.37 -0.0252199
9.38 -0.029049
9.39 -0.0435288
9.4 -0.067644
9.41 -0.0996946
9.42 -0.139027
9.43 -0.182983
9.44 -0.230205
9.45 -0.27843
9.46 -0.325867
9.47 -0.370435
9.48 -0.410981
9.49 -0.445358
9.5 -0.47335
9.51 -0.493902
9.52 -0.506829
9.53 -0.512797
9.54 -0.511558
9.55 -0.505021
9.56 -0.493811
9.57 -0.479778
9.58 -0.464396
9.59 -0.449392
9.6 -0.436138
9.61 -0.426481
9.62 -0.421137
9.63 -0.421263
9.64 -0.427433
9.65 -0.439445
9.66 -0.457931
9.67 -0.48156
9.68 -0.510232
9.69 -0.542643
9.7 -0.577827
9.71 -0.614737
9.72 -0.652216
9.73 -0.689278
9.74 -0.725157
9.75 -0.759155
9.76 -0.790791
9.77 -0.81996
9.78 -0.84615
9.79 -0.869688
9.8 -0.890129
9.81 -0.907446
9.82 -0.921237
9.83 -0.930461
9.84 -0.934627
9.85 -0.931216
9.86 -0.919192
9.87 -0.895591
9.88 -0.857404
9.89 -0.802773
9.9 -0.725716
9.91 -0.626224
9.92 -0.49834
9.93 -0.341178
9.94 -0.152797
9.95 0.0701724
9.96 0.324092
9.97 0.612882
9.98 0.929922
9.99 1.27382
10 1.63926
10.01 2.01942
10.02 2.40821
10.03 2.79681
10.04 3.1764
10.05 3.53831
10.06 3.87432
10.07 4.17331
10.08 4.43238
10.09 4.6377
10.1 4.79069
10.11 4.88402
10.12 4.91561
10.13 4.88923
10.14 4.79873
10.15 4.65617
10.16 4.46013
10.17 4.22077
10.18 3.94492
10.19 3.63942
10.2 3.31542
10.21 2.97967
10.22 2.64216
10.23 2.31037
10.24 1.99191
10.25 1.69129
10.26 1.41634
10.27 1.16667
10.28 0.947413
10.29 0.757185
10.3 0.595396
10.31 0.461971
10.32 0.351361
10.33 0.263554
10.34 0.191954
10.35 0.13392
10.36 0.0852018
10.37 0.0418974
10.38 0.00103247
10.39 -0.0403253
10.4 -0.0843834
10.41 -0.132481
10.42 -0.185359
10.43 -0.243555
10.44 -0.306177
10.45 -0.373083
10.46 -0.44265
10.47 -0.513825
10.48 -0.585116
10.49 -0.655297
10.5 -0.72278
10.51 -0.786909
10.52 -0.846375
10.53 -0.900806
10.54 -0.949813
10.55 -0.992787
10.56 -1.03034
10.57 -1.06168
10.58 -1.08769
10.59 -1.10814
10.6 -1.12317
10.61 -1.1332
10.62 -1.13757
10.63 -1.13699
10.64 -1.13078
10.65 -1.11918
10.66 -1.10211
10.67 -1.07916
10.68 -1.05107
10.69 -1.01727
10.7 -0.978879
10.71 -0.936183
10.72 -0.890085
10.73 -0.841741
10.74 -0.79223
10.75 -0.743011
10.76 -0.695596
10.77 -0.651408
10.78 -0.61176
10.79 -0.578416
10.8 -0.551695
10.81 -0.533631
10.82 -0.523748
10.83 -0.522873
10.84 -0.53094
10.85 -0.547015
10.86 -0.571437
10.87 -0.602132
10.88 -0.638687
10.89 -0.679352
10.9 -0.722831
10.91 -0.767737
10.92 -0.812681
10.93 -0.856294
10.94 -0.897665
10.95 -0.935802
10.96 -0.970005
10.97 -1.00016
10.98 -1.0255
10.99 -1.04672
11 -1.06354
11.01 -1.07662
11.02 -1.08644
11.03 -1.0934
11.04 -1.09837
11.05 -1.1017
11.06 -1.10419
11.07 -1.10627
11.08 -1.10845
11.09 -1.11105
11.1 -1.11448
11.11 -1.11878
11.12 -1.12416
11.13 -1.13049
11.14 -1.13765
11.15 -1.14538
11.16 -1.15321
11.17 -1.16052
11.18 -1.1666
11.19 -1.17047
11.2 -1.17087
11.21 -1.16683
11.22 -1.15599
11.23 -1.13767
11.24 -1.10908
11.25 -1.06889
11.26 -1.01536
11.27 -0.945535
11.28 -0.859745
11.29 -0.753944
11.3 -0.629599
11.31 -0.485002
11.32 -0.320248
11.33 -0.137396
11.34 0.0644093
11.35 0.280358
11.36 0.509126
11.37 0.746025
11.38 0.987025
11.39 1.22699
11.4 1.4613
11.41 1.68309
11.42 1.88848
11.43 2.07139
11.44 2.22663
11.45 2.35237
11.46 2.44062
11.47 2.49434
11.48 2.50798
11.49 2.48385
11.5 2.42297
11.51 2.32514
11.52 2.19739
11.53 2.03944
11.54 1.85979
11.55 1.66215
11.56 1.4526
11.57 1.23713
11.58 1.02127
11.59 0.810058
11.6 0.608764
11.61 0.420847
11.62 0.249051
11.63 0.0968282
11.64 -0.0370214
11.65 -0.149424
11.66 -0.243723
11.67 -0.320182
11.68 -0.381092
11.69 -0.429865
11.7 -0.468069
11.71 -0.50004
11.72 -0.527955
11.73 -0.554814
11.74 -0.582676
11.75 -0.61352
11.76 -0.648017
11.77 -0.687258
11.78 -0.730478
11.79 -0.77717
11.8 -0.825882
11.81 -0.874868
11.82 -0.921721
11.83 -0.964486
11.84 -1.00019
11.85 -1.02676
11.86 -1.04219
11.87 -1.04356
11.88 -1.03103
11.89 -1.00123
11.9 -0.955626
11.91 -0.893133
11.92 -0.814185
11.93 -0.720779
11.94 -0.612446
11.95 -0.49303
11.96 -0.363382
11.97 -0.226676
11.98 -0.0853692
11.99 0.0577999
12 0.200093
12.01 0.338354
12.02 0.470423
12.03 0.59354
12.04 0.705241
12.05 0.804561
12.06 0.887815
12.07 0.956012
12.08 1.00637
12.09 1.03938
12.1 1.05499
12.11 1.05224
12.12 1.03378
12.13 0.998245
12.14 0.949048
12.15 0.886891
12.16 0.8138
12.17 0.732424
12.18 0.644114
12.19 0.55203
12.2 0.458001
12.21 0.364398
12.22 0.273034
12.23 0.185993
12.24 0.104064
12.25 0.0292007
12.26 -0.0387882
12.27 -0.0992282
12.28 -0.152246
12.29 -0.198824
12.3 -0.238975
12.31 -0.274645
12.32 -0.306567
12.33 -0.336366
12.34 -0.365277
12.35 -0.394589
12.36 -0.425178
12.37 -0.458041
12.38 -0.493281
12.39 -0.531031
12.4 -0.570836
