# xPDFsuite Configuration #
[PDF]
wavelength = 0.1432
dataformat = twotheta
inputfile = 1_1Pd_CeO2_cycle-00407.chi
backgroundfile = background-00000.chi
mode = xray
bgscale = 1.007
composition = CeO2
outputtype = gr
qmaxinst = 28.8974762299
qmin = 0.5
qmax = 27.9
rmax = 50.0
rmin = 0.0
rstep = 0.01
rpoly = 1.8657

[Misc]
inputdir = G:/SankarDec16/1Pd/Chi
savedir = D:/DATA/APS_CeO2/1Pd
backgroundfilefull = G:/SankarDec16/Background/background-00000.chi

#### start data
#S 1
#L r($\AA$)  G($\AA^{-2}$)
0 0
0.01 -0.00537855
0.02 -0.010352
0.03 -0.0145031
0.04 -0.0175177
0.05 -0.0192211
0.06 -0.019332
0.07 -0.0180376
0.08 -0.0152475
0.09 -0.0113189
0.1 -0.006499
0.11 -0.00116597
0.12 0.00426747
0.13 0.00933851
0.14 0.013719
0.15 0.0170075
0.16 0.0189688
0.17 0.0195088
0.18 0.0184358
0.19 0.016025
0.2 0.012287
0.21 0.00763798
0.22 0.00238557
0.23 -0.00304574
0.24 -0.00826764
0.25 -0.0127818
0.26 -0.0163528
0.27 -0.018614
0.28 -0.0194204
0.29 -0.0187636
0.3 -0.0165504
0.31 -0.0131309
0.32 -0.00861616
0.33 -0.00346202
0.34 0.00197857
0.35 0.00725486
0.36 0.0120216
0.37 0.0157689
0.38 0.0183651
0.39 0.0194964
0.4 0.0191149
0.41 0.017298
0.42 0.0140562
0.43 0.00979754
0.44 0.00472841
0.45 -0.000677543
0.46 -0.00603893
0.47 -0.0109001
0.48 -0.0149757
0.49 -0.0177687
0.5 -0.0192576
0.51 -0.0191966
0.52 -0.0176374
0.53 -0.0147398
0.54 -0.0106174
0.55 -0.00571687
0.56 -0.000330034
0.57 0.00507409
0.58 0.0101042
0.59 0.0143214
0.6 0.017514
0.61 0.0192221
0.62 0.0195351
0.63 0.0182874
0.64 0.0156278
0.65 0.011791
0.66 0.00698852
0.67 0.00168427
0.68 -0.00375869
0.69 -0.00889813
0.7 -0.0133518
0.71 -0.0167183
0.72 -0.01887
0.73 -0.0194054
0.74 -0.0185208
0.75 -0.0161379
0.76 -0.0124947
0.77 -0.00788894
0.78 -0.00261815
0.79 0.00285928
0.8 0.00812889
0.81 0.0127972
0.82 0.0165112
0.83 0.018928
0.84 0.0200101
0.85 0.0194367
0.86 0.0174991
0.87 0.0142105
0.88 0.00988469
0.89 0.00486442
0.9 -0.000484771
0.91 -0.00573841
0.92 -0.0104592
0.93 -0.0143294
0.94 -0.0170536
0.95 -0.0183781
0.96 -0.0183648
0.97 -0.0168149
0.98 -0.0141028
0.99 -0.0103547
1 -0.00595599
1.01 -0.0012836
1.02 0.00322438
1.03 0.00721169
1.04 0.0102217
1.05 0.0120474
1.06 0.0124727
1.07 0.0113632
1.08 0.00891154
1.09 0.00507902
1.1 0.00035427
1.11 -0.00497854
1.12 -0.0104204
1.13 -0.0155249
1.14 -0.019706
1.15 -0.0226616
1.16 -0.0238205
1.17 -0.0230644
1.18 -0.0201955
1.19 -0.0151262
1.2 -0.00819315
1.21 0.000613505
1.22 0.0106167
1.23 0.0214398
1.24 0.0324381
1.25 0.0430424
1.26 0.0525109
1.27 0.0604476
1.28 0.0661043
1.29 0.0692792
1.3 0.0696459
1.31 0.0669629
1.32 0.0615532
1.33 0.0531364
1.34 0.0424648
1.35 0.0297278
1.36 0.0155371
1.37 0.000471961
1.38 -0.0148778
1.39 -0.0299162
1.4 -0.0440028
1.41 -0.0567067
1.42 -0.0675916
1.43 -0.0762301
1.44 -0.0826462
1.45 -0.086314
1.46 -0.0876242
1.47 -0.0864091
1.48 -0.0828978
1.49 -0.0773663
1.5 -0.0698797
1.51 -0.0609466
1.52 -0.0506733
1.53 -0.039483
1.54 -0.0276211
1.55 -0.0153718
1.56 -0.00301339
1.57 0.00917489
1.58 0.0209695
1.59 0.0320875
1.6 0.0422837
1.61 0.0513708
1.62 0.0589545
1.63 0.0650084
1.64 0.0690894
1.65 0.0711792
1.66 0.0710789
1.67 0.0685966
1.68 0.0639386
1.69 0.0567734
1.7 0.0475976
1.71 0.0364219
1.72 0.0236251
1.73 0.00961544
1.74 -0.0052363
1.75 -0.0203665
1.76 -0.0352777
1.77 -0.0494764
1.78 -0.062509
1.79 -0.0738938
1.8 -0.083523
1.81 -0.0908692
1.82 -0.0962059
1.83 -0.0993993
1.84 -0.100717
1.85 -0.100515
1.86 -0.0990864
1.87 -0.0970263
1.88 -0.0947757
1.89 -0.0928572
1.9 -0.0916981
1.91 -0.0917274
1.92 -0.0930486
1.93 -0.0960135
1.94 -0.100336
1.95 -0.105955
1.96 -0.112465
1.97 -0.1194
1.98 -0.12616
1.99 -0.132175
2 -0.136655
2.01 -0.139091
2.02 -0.138907
2.03 -0.1355
2.04 -0.128914
2.05 -0.11841
2.06 -0.104574
2.07 -0.0872378
2.08 -0.0668244
2.09 -0.0438369
2.1 -0.0185489
2.11 0.00825785
2.12 0.0362636
2.13 0.0649099
2.14 0.093896
2.15 0.123005
2.16 0.152166
2.17 0.181489
2.18 0.211169
2.19 0.241567
2.2 0.273082
2.21 0.306037
2.22 0.34099
2.23 0.377908
2.24 0.417132
2.25 0.458293
2.26 0.501045
2.27 0.544673
2.28 0.588211
2.29 0.630216
2.3 0.669466
2.31 0.704107
2.32 0.732456
2.33 0.753265
2.34 0.763972
2.35 0.764671
2.36 0.752975
2.37 0.729422
2.38 0.693652
2.39 0.645675
2.4 0.587584
2.41 0.519302
2.42 0.444203
2.43 0.363843
2.44 0.281051
2.45 0.198318
2.46 0.118614
2.47 0.0438424
2.48 -0.0230463
2.49 -0.0809539
2.5 -0.128498
2.51 -0.164531
2.52 -0.190157
2.53 -0.204185
2.54 -0.209384
2.55 -0.206433
2.56 -0.197608
2.57 -0.185121
2.58 -0.171126
2.59 -0.157877
2.6 -0.147587
2.61 -0.141718
2.62 -0.14155
2.63 -0.148141
2.64 -0.161002
2.65 -0.18085
2.66 -0.205861
2.67 -0.235317
2.68 -0.267442
2.69 -0.30054
2.7 -0.33268
2.71 -0.362382
2.72 -0.387741
2.73 -0.407939
2.74 -0.422157
2.75 -0.429851
2.76 -0.431876
2.77 -0.428043
2.78 -0.420303
2.79 -0.409686
2.8 -0.398031
2.81 -0.386953
2.82 -0.37841
2.83 -0.373457
2.84 -0.373802
2.85 -0.379749
2.86 -0.391681
2.87 -0.409573
2.88 -0.432165
2.89 -0.458909
2.9 -0.487668
2.91 -0.516873
2.92 -0.544464
2.93 -0.568812
2.94 -0.587642
2.95 -0.600398
2.96 -0.605294
2.97 -0.602616
2.98 -0.592363
2.99 -0.575059
3 -0.552573
3.01 -0.525997
3.02 -0.497968
3.03 -0.470549
3.04 -0.446158
3.05 -0.426582
3.06 -0.414403
3.07 -0.40991
3.08 -0.414947
3.09 -0.428805
3.1 -0.451169
3.11 -0.481073
3.12 -0.516187
3.13 -0.554896
3.14 -0.594228
3.15 -0.631714
3.16 -0.664727
3.17 -0.691464
3.18 -0.709244
3.19 -0.718189
3.2 -0.716687
3.21 -0.706042
3.22 -0.687138
3.23 -0.661696
3.24 -0.63258
3.25 -0.602452
3.26 -0.574528
3.27 -0.55204
3.28 -0.537921
3.29 -0.533968
3.3 -0.543278
3.31 -0.56495
3.32 -0.60061
3.33 -0.648003
3.34 -0.705562
3.35 -0.77065
3.36 -0.839438
3.37 -0.908159
3.38 -0.972846
3.39 -1.02931
3.4 -1.07399
3.41 -1.10486
3.42 -1.11817
3.43 -1.11543
3.44 -1.09484
3.45 -1.05955
3.46 -1.01172
3.47 -0.954841
3.48 -0.893697
3.49 -0.832951
3.5 -0.777252
3.51 -0.731378
3.52 -0.69905
3.53 -0.682021
3.54 -0.683391
3.55 -0.700339
3.56 -0.732639
3.57 -0.774838
3.58 -0.821795
3.59 -0.865763
3.6 -0.899601
3.61 -0.911246
3.62 -0.894677
3.63 -0.838495
3.64 -0.734877
3.65 -0.57988
3.66 -0.362171
3.67 -0.087649
3.68 0.251142
3.69 0.645598
3.7 1.09134
3.71 1.58101
3.72 2.10012
3.73 2.63861
3.74 3.17903
3.75 3.70616
3.76 4.20304
3.77 4.65685
3.78 5.04618
3.79 5.36749
3.8 5.60076
3.81 5.74565
3.82 5.79622
3.83 5.74715
3.84 5.6107
3.85 5.37821
3.86 5.07171
3.87 4.69502
3.88 4.26351
3.89 3.79261
3.9 3.29474
3.91 2.78748
3.92 2.28465
3.93 1.79947
3.94 1.34308
3.95 0.927226
3.96 0.554108
3.97 0.236293
3.98 -0.0319706
3.99 -0.246366
4 -0.410558
4.01 -0.530624
4.02 -0.607752
4.03 -0.653717
4.04 -0.671734
4.05 -0.671546
4.06 -0.659219
4.07 -0.641101
4.08 -0.622544
4.09 -0.608237
4.1 -0.600487
4.11 -0.60154
4.12 -0.611767
4.13 -0.63025
4.14 -0.656332
4.15 -0.687037
4.16 -0.72033
4.17 -0.753175
4.18 -0.783033
4.19 -0.807027
4.2 -0.823886
4.21 -0.830583
4.22 -0.827539
4.23 -0.81343
4.24 -0.788579
4.25 -0.754004
4.26 -0.709642
4.27 -0.657924
4.28 -0.599293
4.29 -0.535768
4.3 -0.468502
4.31 -0.39864
4.32 -0.327335
4.33 -0.255207
4.34 -0.182904
4.35 -0.110744
4.36 -0.0389524
4.37 0.0323663
4.38 0.102998
4.39 0.172835
4.4 0.241404
4.41 0.308255
4.42 0.372658
4.43 0.43343
4.44 0.489916
4.45 0.539902
4.46 0.58293
4.47 0.617013
4.48 0.640932
4.49 0.654157
4.5 0.65446
4.51 0.643067
4.52 0.618301
4.53 0.581604
4.54 0.533472
4.55 0.474685
4.56 0.407736
4.57 0.333337
4.58 0.254567
4.59 0.173127
4.6 0.0913739
4.61 0.0111588
4.62 -0.0652794
4.63 -0.13702
4.64 -0.20224
4.65 -0.26071
4.66 -0.312
4.67 -0.355854
4.68 -0.393426
4.69 -0.424479
4.7 -0.450871
4.71 -0.473242
4.72 -0.492887
4.73 -0.510924
4.74 -0.528267
4.75 -0.545744
4.76 -0.563951
4.77 -0.583137
4.78 -0.603359
4.79 -0.624453
4.8 -0.645974
4.81 -0.667379
4.82 -0.688056
4.83 -0.7073
4.84 -0.724478
4.85 -0.739224
4.86 -0.75083
4.87 -0.759535
4.88 -0.764967
4.89 -0.767609
4.9 -0.767778
4.91 -0.765956
4.92 -0.762929
4.93 -0.759288
4.94 -0.755816
4.95 -0.753164
4.96 -0.751916
4.97 -0.75239
4.98 -0.755099
4.99 -0.759842
5 -0.766824
5.01 -0.775648
5.02 -0.786037
5.03 -0.797611
5.04 -0.809836
5.05 -0.822301
5.06 -0.834548
5.07 -0.846196
5.08 -0.856934
5.09 -0.866606
5.1 -0.874907
5.11 -0.881914
5.12 -0.887349
5.13 -0.891201
5.14 -0.893248
5.15 -0.893043
5.16 -0.890391
5.17 -0.884135
5.18 -0.87393
5.19 -0.858427
5.2 -0.836448
5.21 -0.807157
5.22 -0.768183
5.23 -0.719621
5.24 -0.659039
5.25 -0.586514
5.26 -0.501379
5.27 -0.402952
5.28 -0.29303
5.29 -0.170846
5.3 -0.0397201
5.31 0.0989607
5.32 0.24208
5.33 0.386482
5.34 0.528216
5.35 0.664014
5.36 0.78901
5.37 0.900115
5.38 0.993797
5.39 1.06575
5.4 1.116
5.41 1.13885
5.42 1.13715
5.43 1.10867
5.44 1.05472
5.45 0.978095
5.46 0.878829
5.47 0.762885
5.48 0.631888
5.49 0.491227
5.5 0.344712
5.51 0.19676
5.52 0.0511698
5.53 -0.0874659
5.54 -0.216921
5.55 -0.333875
5.56 -0.436463
5.57 -0.52432
5.58 -0.595088
5.59 -0.651205
5.6 -0.691536
5.61 -0.718629
5.62 -0.733796
5.63 -0.738481
5.64 -0.735517
5.65 -0.725743
5.66 -0.711795
5.67 -0.694719
5.68 -0.675781
5.69 -0.655771
5.7 -0.63501
5.71 -0.613646
5.72 -0.591341
5.73 -0.567689
5.74 -0.542114
5.75 -0.51382
5.76 -0.482584
5.77 -0.447446
5.78 -0.408759
5.79 -0.366321
5.8 -0.320642
5.81 -0.272556
5.82 -0.222958
5.83 -0.17328
5.84 -0.125072
5.85 -0.0798891
5.86 -0.0392954
5.87 -0.00525004
5.88 0.0216919
5.89 0.039061
5.9 0.0473638
5.91 0.0453983
5.92 0.0332652
5.93 0.0117952
5.94 -0.0193611
5.95 -0.0579468
5.96 -0.103612
5.97 -0.154298
5.98 -0.208635
5.99 -0.265096
6 -0.32214
6.01 -0.378391
6.02 -0.432873
6.03 -0.484628
6.04 -0.533092
6.05 -0.578176
6.06 -0.619422
6.07 -0.657514
6.08 -0.692396
6.09 -0.724783
6.1 -0.755098
6.11 -0.783752
6.12 -0.811274
6.13 -0.837787
6.14 -0.863556
6.15 -0.88849
6.16 -0.912419
6.17 -0.935131
6.18 -0.956049
6.19 -0.975027
6.2 -0.991409
6.21 -1.00507
6.22 -1.01581
6.23 -1.02343
6.24 -1.02841
6.25 -1.0307
6.26 -1.03116
6.27 -1.03023
6.28 -1.02866
6.29 -1.02707
6.3 -1.02604
6.31 -1.02575
6.32 -1.02625
6.33 -1.027
6.34 -1.02708
6.35 -1.02478
6.36 -1.0185
6.37 -1.00462
6.38 -0.981084
6.39 -0.943707
6.4 -0.888666
6.41 -0.813479
6.42 -0.711458
6.43 -0.583051
6.44 -0.421931
6.45 -0.228543
6.46 -0.00153425
6.47 0.260739
6.48 0.553293
6.49 0.878111
6.5 1.22676
6.51 1.59601
6.52 1.97847
6.53 2.36659
6.54 2.75152
6.55 3.12527
6.56 3.47694
6.57 3.79889
6.58 4.08285
6.59 4.31822
6.6 4.50425
6.61 4.62686
6.62 4.69103
6.63 4.69014
6.64 4.625
6.65 4.50073
6.66 4.31396
6.67 4.07798
6.68 3.79322
6.69 3.47144
6.7 3.12023
6.71 2.74816
6.72 2.36584
6.73 1.98183
6.74 1.60498
6.75 1.24351
6.76 0.904633
6.77 0.592253
6.78 0.314669
6.79 0.0700025
6.8 -0.135831
6.81 -0.305517
6.82 -0.439549
6.83 -0.538245
6.84 -0.607971
6.85 -0.647893
6.86 -0.665953
6.87 -0.664391
6.88 -0.647948
6.89 -0.621041
6.9 -0.586516
6.91 -0.548429
6.92 -0.509097
6.93 -0.470828
6.94 -0.435106
6.95 -0.403267
6.96 -0.375461
6.97 -0.35265
6.98 -0.334154
6.99 -0.320142
7 -0.310273
7.01 -0.304074
7.02 -0.301774
7.03 -0.302748
7.04 -0.307446
7.05 -0.315734
7.06 -0.327875
7.07 -0.344406
7.08 -0.365131
7.09 -0.39102
7.1 -0.42152
7.11 -0.456977
7.12 -0.49708
7.13 -0.541154
7.14 -0.588908
7.15 -0.638966
7.16 -0.690471
7.17 -0.742007
7.18 -0.792334
7.19 -0.839904
7.2 -0.883889
7.21 -0.922474
7.22 -0.95553
7.23 -0.98207
7.24 -1.00191
7.25 -1.01554
7.26 -1.02265
7.27 -1.02486
7.28 -1.02257
7.29 -1.01734
7.3 -1.01034
7.31 -1.00284
7.32 -0.995923
7.33 -0.990714
7.34 -0.987576
7.35 -0.986881
7.36 -0.988373
7.37 -0.991334
7.38 -0.994697
7.39 -0.996978
7.4 -0.996129
7.41 -0.990212
7.42 -0.97712
7.43 -0.953992
7.44 -0.920039
7.45 -0.87145
7.46 -0.808771
7.47 -0.73001
7.48 -0.635006
7.49 -0.524976
7.5 -0.399137
7.51 -0.261209
7.52 -0.111993
7.53 0.0447391
7.54 0.206018
7.55 0.368121
7.56 0.527575
7.57 0.679711
7.58 0.82186
7.59 0.949955
7.6 1.06091
7.61 1.15345
7.62 1.22303
7.63 1.27156
7.64 1.29569
7.65 1.29727
7.66 1.27675
7.67 1.23429
7.68 1.17385
7.69 1.09494
7.7 1.00252
7.71 0.898184
7.72 0.785158
7.73 0.666572
7.74 0.544976
7.75 0.423379
7.76 0.304425
7.77 0.190348
7.78 0.0831147
7.79 -0.0148942
7.8 -0.10333
7.81 -0.179292
7.82 -0.243551
7.83 -0.294633
7.84 -0.332372
7.85 -0.35756
7.86 -0.368934
7.87 -0.368947
7.88 -0.357059
7.89 -0.335344
7.9 -0.305043
7.91 -0.267506
7.92 -0.225193
7.93 -0.179585
7.94 -0.133246
7.95 -0.0882334
7.96 -0.0468788
7.97 -0.0108413
7.98 0.0170192
7.99 0.0362514
8 0.0443868
8.01 0.0412602
8.02 0.0263319
8.03 -0.00110325
8.04 -0.0392754
8.05 -0.0889052
8.06 -0.147133
8.07 -0.21296
8.08 -0.28415
8.09 -0.358421
8.1 -0.433604
8.11 -0.507487
8.12 -0.577807
8.13 -0.642995
8.14 -0.701723
8.15 -0.752554
8.16 -0.795914
8.17 -0.830592
8.18 -0.858204
8.19 -0.879056
8.2 -0.894503
8.21 -0.906127
8.22 -0.91511
8.23 -0.923141
8.24 -0.931318
8.25 -0.940492
8.26 -0.951004
8.27 -0.962704
8.28 -0.974722
8.29 -0.985472
8.3 -0.993042
8.31 -0.994647
8.32 -0.987037
8.33 -0.967761
8.34 -0.931378
8.35 -0.877064
8.36 -0.799423
8.37 -0.697523
8.38 -0.569563
8.39 -0.413012
8.4 -0.231094
8.41 -0.0210457
8.42 0.21109
8.43 0.463622
8.44 0.731484
8.45 1.00887
8.46 1.29
8.47 1.56802
8.48 1.83542
8.49 2.08574
8.5 2.31275
8.51 2.5083
8.52 2.67107
8.53 2.79094
8.54 2.87041
8.55 2.90467
8.56 2.89356
8.57 2.84058
8.58 2.74263
8.59 2.60901
8.6 2.43963
8.61 2.24235
8.62 2.02232
8.63 1.78494
8.64 1.5377
8.65 1.28574
8.66 1.03539
8.67 0.791797
8.68 0.559808
8.69 0.342113
8.7 0.143923
8.71 -0.0355097
8.72 -0.192615
8.73 -0.328602
8.74 -0.443727
8.75 -0.537869
8.76 -0.614708
8.77 -0.673564
8.78 -0.718923
8.79 -0.751975
8.8 -0.77529
8.81 -0.791455
8.82 -0.801852
8.83 -0.808998
8.84 -0.814071
8.85 -0.818535
8.86 -0.823296
8.87 -0.82917
8.88 -0.836459
8.89 -0.845687
8.9 -0.856692
8.91 -0.869569
8.92 -0.884162
8.93 -0.900195
8.94 -0.917604
8.95 -0.935979
8.96 -0.955205
8.97 -0.974992
8.98 -0.995148
8.99 -1.01547
9 -1.03577
9.01 -1.05579
9.02 -1.07537
9.03 -1.09422
9.04 -1.11205
9.05 -1.12866
9.06 -1.14348
9.07 -1.1564
9.08 -1.16676
9.09 -1.17429
9.1 -1.17857
9.11 -1.17889
9.12 -1.1753
9.13 -1.16669
9.14 -1.15333
9.15 -1.13453
9.16 -1.11005
9.17 -1.08007
9.18 -1.04374
9.19 -1.00196
9.2 -0.954187
9.21 -0.901135
9.22 -0.843183
9.23 -0.780684
9.24 -0.714809
9.25 -0.646017
9.26 -0.575726
9.27 -0.504957
9.28 -0.435099
9.29 -0.367308
9.3 -0.303441
9.31 -0.244261
9.32 -0.191698
9.33 -0.146539
9.34 -0.109752
9.35 -0.082746
9.36 -0.064925
9.37 -0.0580289
9.38 -0.0605628
9.39 -0.0727971
9.4 -0.0938545
9.41 -0.12222
9.42 -0.157347
9.43 -0.196821
9.44 -0.239435
9.45 -0.283121
9.46 -0.326242
9.47 -0.366903
9.48 -0.404022
9.49 -0.435648
9.5 -0.461557
9.51 -0.480789
9.52 -0.493175
9.53 -0.499322
9.54 -0.499032
9.55 -0.494049
9.56 -0.48498
9.57 -0.473526
9.58 -0.461049
9.59 -0.449154
9.6 -0.439071
9.61 -0.432516
9.62 -0.430092
9.63 -0.432839
9.64 -0.441232
9.65 -0.455027
9.66 -0.474734
9.67 -0.499066
9.68 -0.527841
9.69 -0.559793
9.7 -0.593965
9.71 -0.629297
9.72 -0.664715
9.73 -0.699182
9.74 -0.73202
9.75 -0.762516
9.76 -0.790202
9.77 -0.815012
9.78 -0.836387
9.79 -0.854729
9.8 -0.869568
9.81 -0.88095
9.82 -0.888532
9.83 -0.891367
9.84 -0.88911
9.85 -0.879437
9.86 -0.861516
9.87 -0.832669
9.88 -0.790216
9.89 -0.732532
9.9 -0.654201
9.91 -0.555293
9.92 -0.430417
9.93 -0.278815
9.94 -0.0987487
9.95 0.112834
9.96 0.352615
9.97 0.624186
9.98 0.92155
9.99 1.2435
10 1.58526
10.01 1.94072
10.02 2.30444
10.03 2.66847
10.04 3.02491
10.05 3.36593
10.06 3.6841
10.07 3.96938
10.08 4.21904
10.09 4.42054
10.1 4.57495
10.11 4.67546
10.12 4.71996
10.13 4.71159
10.14 4.64435
10.15 4.52894
10.16 4.36354
10.17 4.15705
10.18 3.91534
10.19 3.64403
10.2 3.35328
10.21 3.04852
10.22 2.73905
10.23 2.43136
10.24 2.13241
10.25 1.8466
10.26 1.58087
10.27 1.33562
10.28 1.11561
10.29 0.920234
10.3 0.749439
10.31 0.603683
10.32 0.478509
10.33 0.374478
10.34 0.286037
10.35 0.211264
10.36 0.146679
10.37 0.088865
10.38 0.0355665
10.39 -0.0161355
10.4 -0.0680225
10.41 -0.121581
10.42 -0.177662
10.43 -0.236912
10.44 -0.298969
10.45 -0.363852
10.46 -0.430529
10.47 -0.498277
10.48 -0.566017
10.49 -0.632827
10.5 -0.697449
10.51 -0.759332
10.52 -0.817354
10.53 -0.871122
10.54 -0.920211
10.55 -0.963958
10.56 -1.00278
10.57 -1.0358
10.58 -1.06369
10.59 -1.08611
10.6 -1.10308
10.61 -1.11497
10.62 -1.12107
10.63 -1.12216
10.64 -1.11759
10.65 -1.10771
10.66 -1.09255
10.67 -1.07186
10.68 -1.04643
10.69 -1.01586
10.7 -0.981231
10.71 -0.942867
10.72 -0.901603
10.73 -0.858453
10.74 -0.814346
10.75 -0.770502
10.76 -0.728172
10.77 -0.688513
10.78 -0.652591
10.79 -0.621843
10.8 -0.596526
10.81 -0.57832
10.82 -0.566865
10.83 -0.56289
10.84 -0.566426
10.85 -0.57678
10.86 -0.594402
10.87 -0.617654
10.88 -0.646396
10.89 -0.679286
10.9 -0.715365
10.91 -0.753657
10.92 -0.792958
10.93 -0.832318
10.94 -0.870814
10.95 -0.907623
10.96 -0.942027
10.97 -0.973723
10.98 -1.00192
10.99 -1.02689
11 -1.04818
11.01 -1.06606
11.02 -1.08069
11.03 -1.09213
11.04 -1.10103
11.05 -1.10741
11.06 -1.11199
11.07 -1.11507
11.08 -1.11713
11.09 -1.11863
11.1 -1.11994
11.11 -1.12142
11.12 -1.1234
11.13 -1.12603
11.14 -1.12939
11.15 -1.13345
11.16 -1.13791
11.17 -1.14235
11.18 -1.14611
11.19 -1.1483
11.2 -1.14768
11.21 -1.14322
11.22 -1.13258
11.23 -1.11495
11.24 -1.08754
11.25 -1.04894
11.26 -0.997394
11.27 -0.929986
11.28 -0.84705
11.29 -0.744708
11.3 -0.624475
11.31 -0.484826
11.32 -0.326018
11.33 -0.150164
11.34 0.0433221
11.35 0.249768
11.36 0.467728
11.37 0.692713
11.38 0.92089
11.39 1.14742
11.4 1.36811
11.41 1.57666
11.42 1.76969
11.43 1.94181
11.44 2.08851
11.45 2.20838
11.46 2.29441
11.47 2.3495
11.48 2.36887
11.49 2.35471
11.5 2.30799
11.51 2.22855
11.52 2.12254
11.53 1.98953
11.54 1.83681
11.55 1.66731
11.56 1.486
11.57 1.29789
11.58 1.10714
11.59 0.918142
11.6 0.734908
11.61 0.560394
11.62 0.396892
11.63 0.247201
11.64 0.110766
11.65 -0.00985501
11.66 -0.116798
11.67 -0.209895
11.68 -0.290418
11.69 -0.360599
11.7 -0.420924
11.71 -0.474489
11.72 -0.522242
11.73 -0.566204
11.74 -0.607644
11.75 -0.647559
11.76 -0.686764
11.77 -0.725514
11.78 -0.763831
11.79 -0.801322
11.8 -0.837248
11.81 -0.87089
11.82 -0.900642
11.83 -0.925868
11.84 -0.944703
11.85 -0.9562
11.86 -0.95928
11.87 -0.952146
11.88 -0.935133
11.89 -0.905919
11.9 -0.865517
11.91 -0.813003
11.92 -0.748407
11.93 -0.672864
11.94 -0.585479
11.95 -0.48874
11.96 -0.382637
11.97 -0.269153
11.98 -0.149776
11.99 -0.0260721
12 0.0996946
12.01 0.225542
12.02 0.349248
12.03 0.468509
12.04 0.580846
12.05 0.684758
12.06 0.776621
12.07 0.856293
12.08 0.920593
12.09 0.969023
12.1 1.00076
12.11 1.01397
12.12 1.01067
12.13 0.988681
12.14 0.951122
12.15 0.898266
12.16 0.831964
12.17 0.755057
12.18 0.668753
12.19 0.576847
12.2 0.481359
12.21 0.38525
12.22 0.290803
12.23 0.200608
12.24 0.115871
12.25 0.039014
12.26 -0.0299751
12.27 -0.0902011
12.28 -0.141735
12.29 -0.18571
12.3 -0.222175
12.31 -0.253478
12.32 -0.280597
12.33 -0.305555
12.34 -0.329921
12.35 -0.355381
12.36 -0.382992
12.37 -0.414124
12.38 -0.448859
12.39 -0.487435
