# xPDFsuite Configuration #
[PDF]
wavelength = 0.1432
dataformat = twotheta
inputfile = 1_1Pd_CeO2_cycle-00279.chi
backgroundfile = background-00000.chi
mode = xray
bgscale = 1.007
composition = CeO2
outputtype = gr
qmaxinst = 28.8974762299
qmin = 0.5
qmax = 27.9
rmax = 50.0
rmin = 0.0
rstep = 0.01
rpoly = 1.8657

[Misc]
inputdir = G:/SankarDec16/1Pd/Chi
savedir = D:/DATA/APS_CeO2/1Pd
backgroundfilefull = G:/SankarDec16/Background/background-00000.chi

#### start data
#S 1
#L r($\AA$)  G($\AA^{-2}$)
0 0
0.01 -0.00546866
0.02 -0.010525
0.03 -0.0147446
0.04 -0.0178076
0.05 -0.0195364
0.06 -0.0196451
0.07 -0.0183245
0.08 -0.015483
0.09 -0.0114843
0.1 -0.0065805
0.11 -0.00115684
0.12 0.00436675
0.13 0.00951885
0.14 0.0139662
0.15 0.0173003
0.16 0.0192824
0.17 0.0198178
0.18 0.0187124
0.19 0.016247
0.2 0.0124338
0.21 0.00769712
0.22 0.00235076
0.23 -0.0031725
0.24 -0.0084778
0.25 -0.0130574
0.26 -0.016673
0.27 -0.0189521
0.28 -0.0197487
0.29 -0.0190556
0.3 -0.0167802
0.31 -0.01328
0.32 -0.00867038
0.33 -0.00341624
0.34 0.00212199
0.35 0.00748464
0.36 0.0123212
0.37 0.0161119
0.38 0.0187253
0.39 0.019843
0.4 0.0194188
0.41 0.0175339
0.42 0.0142019
0.43 0.00983994
0.44 0.0046614
0.45 -0.000850572
0.46 -0.00630635
0.47 -0.0112413
0.48 -0.0153664
0.49 -0.0181753
0.5 -0.0196497
0.51 -0.0195414
0.52 -0.0179062
0.53 -0.0149105
0.54 -0.0106736
0.55 -0.00565273
0.56 -0.00014895
0.57 0.00535933
0.58 0.0104723
0.59 0.0147426
0.6 0.0179571
0.61 0.0196476
0.62 0.0199102
0.63 0.0185791
0.64 0.0158105
0.65 0.0118475
0.66 0.0069108
0.67 0.00147514
0.68 -0.00408485
0.69 -0.00931838
0.7 -0.0138349
0.71 -0.0172257
0.72 -0.0193643
0.73 -0.0198428
0.74 -0.0188674
0.75 -0.0163625
0.76 -0.0125764
0.77 -0.00781732
0.78 -0.00239487
0.79 0.00322177
0.8 0.00860467
0.81 0.0133531
0.82 0.0171065
0.83 0.0195161
0.84 0.0205482
0.85 0.0198778
0.86 0.0178089
0.87 0.0143598
0.88 0.00985701
0.89 0.00465475
0.9 -0.000867762
0.91 -0.00627605
0.92 -0.0111192
0.93 -0.0150746
0.94 -0.0178407
0.95 -0.0191609
0.96 -0.0191032
0.97 -0.0174677
0.98 -0.0146431
0.99 -0.0107627
1 -0.00622477
1.01 -0.00141702
1.02 0.00320986
1.03 0.00729338
1.04 0.0103672
1.05 0.0122242
1.06 0.0126483
1.07 0.0115089
1.08 0.00900849
1.09 0.00511747
1.1 0.000338419
1.11 -0.00503079
1.12 -0.0104777
1.13 -0.0155466
1.14 -0.0196374
1.15 -0.0224506
1.16 -0.0234077
1.17 -0.0224007
1.18 -0.0192396
1.19 -0.0138514
1.2 -0.00659143
1.21 0.00252799
1.22 0.0128106
1.23 0.0238555
1.24 0.0349994
1.25 0.0456623
1.26 0.0550818
1.27 0.0628721
1.28 0.068275
1.29 0.0711087
1.3 0.07106
1.31 0.0679096
1.32 0.0620089
1.33 0.0531064
1.34 0.041982
1.35 0.0288547
1.36 0.0143585
1.37 -0.000915729
1.38 -0.0163581
1.39 -0.0313881
1.4 -0.0453615
1.41 -0.0578768
1.42 -0.0685212
1.43 -0.076903
1.44 -0.0830816
1.45 -0.0865809
1.46 -0.087819
1.47 -0.0866715
1.48 -0.0833925
1.49 -0.0782672
1.5 -0.0713853
1.51 -0.0632224
1.52 -0.0538849
1.53 -0.0437448
1.54 -0.0330068
1.55 -0.0218956
1.56 -0.0106321
1.57 0.000586973
1.58 0.0115829
1.59 0.0221475
1.6 0.0320819
1.61 0.0412214
1.62 0.0492302
1.63 0.0560384
1.64 0.0612339
1.65 0.0647329
1.66 0.0662994
1.67 0.0656826
1.68 0.0630042
1.69 0.057862
1.7 0.0506671
1.71 0.0413498
1.72 0.0302176
1.73 0.0176335
1.74 0.00389353
1.75 -0.0104225
1.76 -0.0248654
1.77 -0.0388984
1.78 -0.052049
1.79 -0.063798
1.8 -0.0739643
1.81 -0.0819802
1.82 -0.088037
1.83 -0.0919469
1.84 -0.0939211
1.85 -0.0942805
1.86 -0.0932774
1.87 -0.0915172
1.88 -0.0894328
1.89 -0.0875865
1.9 -0.0864426
1.91 -0.0864881
1.92 -0.087882
1.93 -0.0910605
1.94 -0.0957785
1.95 -0.102045
1.96 -0.109492
1.97 -0.117662
1.98 -0.125991
1.99 -0.133843
2 -0.140418
2.01 -0.145114
2.02 -0.147273
2.03 -0.146182
2.04 -0.141782
2.05 -0.13318
2.06 -0.120886
2.07 -0.104595
2.08 -0.0846479
2.09 -0.0615109
2.1 -0.0353468
2.11 -0.00702361
2.12 0.0232001
2.13 0.054644
2.14 0.0869394
2.15 0.119762
2.16 0.15288
2.17 0.186272
2.18 0.219962
2.19 0.254149
2.2 0.289078
2.21 0.324966
2.22 0.362188
2.23 0.400717
2.24 0.440744
2.25 0.481948
2.26 0.523972
2.27 0.566113
2.28 0.607545
2.29 0.646821
2.3 0.68292
2.31 0.71407
2.32 0.738737
2.33 0.755801
2.34 0.76284
2.35 0.760049
2.36 0.745177
2.37 0.718829
2.38 0.680719
2.39 0.630937
2.4 0.571551
2.41 0.502592
2.42 0.427344
2.43 0.347396
2.44 0.265532
2.45 0.184187
2.46 0.106322
2.47 0.0337277
2.48 -0.0306694
2.49 -0.0858744
2.5 -0.130574
2.51 -0.163707
2.52 -0.186464
2.53 -0.197762
2.54 -0.200442
2.55 -0.195293
2.56 -0.184676
2.57 -0.170861
2.58 -0.156131
2.59 -0.142716
2.6 -0.13294
2.61 -0.12822
2.62 -0.129833
2.63 -0.138814
2.64 -0.154545
2.65 -0.177705
2.66 -0.206273
2.67 -0.239404
2.68 -0.275131
2.69 -0.311596
2.7 -0.346634
2.71 -0.378666
2.72 -0.405549
2.73 -0.426413
2.74 -0.440343
2.75 -0.446721
2.76 -0.446527
2.77 -0.439505
2.78 -0.427877
2.79 -0.41279
2.8 -0.396344
2.81 -0.380404
2.82 -0.367241
2.83 -0.358147
2.84 -0.355184
2.85 -0.358835
2.86 -0.369692
2.87 -0.387935
2.88 -0.412216
2.89 -0.442202
2.9 -0.475434
2.91 -0.510281
2.92 -0.544378
2.93 -0.575765
2.94 -0.601805
2.95 -0.621542
2.96 -0.632724
2.97 -0.635289
2.98 -0.628877
2.99 -0.613626
3 -0.591392
3.01 -0.562822
3.02 -0.530868
3.03 -0.49751
3.04 -0.465441
3.05 -0.436812
3.06 -0.414506
3.07 -0.399397
3.08 -0.393811
3.09 -0.397594
3.1 -0.410938
3.11 -0.433463
3.12 -0.463047
3.13 -0.49877
3.14 -0.537505
3.15 -0.5771
3.16 -0.614821
3.17 -0.648594
3.18 -0.675667
3.19 -0.695485
3.2 -0.70613
3.21 -0.708214
3.22 -0.702073
3.23 -0.688762
3.24 -0.670691
3.25 -0.64974
3.26 -0.628958
3.27 -0.611058
3.28 -0.598798
3.29 -0.594014
3.3 -0.599547
3.31 -0.615039
3.32 -0.64209
3.33 -0.679054
3.34 -0.724763
3.35 -0.777096
3.36 -0.83281
3.37 -0.888714
3.38 -0.941326
3.39 -0.986999
3.4 -1.02259
3.41 -1.0463
3.42 -1.05487
3.43 -1.04966
3.44 -1.02922
3.45 -0.996424
3.46 -0.95339
3.47 -0.903476
3.48 -0.851031
3.49 -0.800672
3.5 -0.756484
3.51 -0.723013
3.52 -0.703583
3.53 -0.699606
3.54 -0.713818
3.55 -0.743116
3.56 -0.786888
3.57 -0.839453
3.58 -0.895396
3.59 -0.946625
3.6 -0.98597
3.61 -1.00082
3.62 -0.985309
3.63 -0.92767
3.64 -0.820008
3.65 -0.658428
3.66 -0.43128
3.67 -0.144878
3.68 0.208441
3.69 0.619637
3.7 1.08411
3.71 1.59414
3.72 2.13466
3.73 2.69516
3.74 3.25746
3.75 3.80566
3.76 4.32205
3.77 4.79323
3.78 5.19674
3.79 5.52887
3.8 5.76855
3.81 5.91537
3.82 5.96305
3.83 5.90591
3.84 5.75682
3.85 5.50663
3.86 5.17853
3.87 4.7766
3.88 4.31713
3.89 3.81648
3.9 3.288
3.91 2.75038
3.92 2.21854
3.93 1.70663
3.94 1.22668
3.95 0.791442
3.96 0.403231
3.97 0.075817
3.98 -0.197137
3.99 -0.410885
4 -0.569462
4.01 -0.679574
4.02 -0.742607
4.03 -0.771595
4.04 -0.770272
4.05 -0.749537
4.06 -0.716311
4.07 -0.67793
4.08 -0.640425
4.09 -0.609517
4.1 -0.587743
4.11 -0.577965
4.12 -0.580724
4.13 -0.594974
4.14 -0.620276
4.15 -0.65292
4.16 -0.690784
4.17 -0.730058
4.18 -0.76768
4.19 -0.800135
4.2 -0.825526
4.21 -0.840182
4.22 -0.844108
4.23 -0.835498
4.24 -0.814396
4.25 -0.781749
4.26 -0.737238
4.27 -0.68364
4.28 -0.621361
4.29 -0.552847
4.3 -0.47954
4.31 -0.402948
4.32 -0.324641
4.33 -0.245612
4.34 -0.166825
4.35 -0.0889097
4.36 -0.0123011
4.37 0.0628144
4.38 0.136036
4.39 0.207429
4.4 0.276464
4.41 0.34292
4.42 0.406208
4.43 0.465325
4.44 0.519841
4.45 0.567697
4.46 0.608604
4.47 0.64069
4.48 0.662806
4.49 0.674434
4.5 0.673345
4.51 0.660678
4.52 0.634674
4.53 0.596653
4.54 0.546998
4.55 0.486354
4.56 0.417162
4.57 0.339997
4.58 0.257985
4.59 0.172805
4.6 0.08689
4.61 0.00220865
4.62 -0.0788712
4.63 -0.155241
4.64 -0.224876
4.65 -0.287356
4.66 -0.342067
4.67 -0.388534
4.68 -0.427872
4.69 -0.459587
4.7 -0.485645
4.71 -0.506603
4.72 -0.523835
4.73 -0.538607
4.74 -0.551899
4.75 -0.564817
4.76 -0.578109
4.77 -0.592278
4.78 -0.607586
4.79 -0.624099
4.8 -0.6415
4.81 -0.659489
4.82 -0.677459
4.83 -0.694825
4.84 -0.710952
4.85 -0.725403
4.86 -0.737477
4.87 -0.747209
4.88 -0.754159
4.89 -0.758611
4.9 -0.76074
4.91 -0.760855
4.92 -0.759615
4.93 -0.75744
4.94 -0.755059
4.95 -0.75302
4.96 -0.751876
4.97 -0.751969
4.98 -0.753786
4.99 -0.757253
5 -0.762616
5.01 -0.769619
5.02 -0.778099
5.03 -0.787822
5.04 -0.798374
5.05 -0.809528
5.06 -0.820899
5.07 -0.832256
5.08 -0.843376
5.09 -0.854134
5.1 -0.864354
5.11 -0.874011
5.12 -0.882898
5.13 -0.890876
5.14 -0.897647
5.15 -0.902644
5.16 -0.905475
5.17 -0.904808
5.18 -0.900065
5.19 -0.889649
5.2 -0.87212
5.21 -0.846445
5.22 -0.809876
5.23 -0.762458
5.24 -0.701399
5.25 -0.626757
5.26 -0.537763
5.27 -0.43363
5.28 -0.316402
5.29 -0.185196
5.3 -0.0437915
5.31 0.106247
5.32 0.26139
5.33 0.418063
5.34 0.571816
5.35 0.718954
5.36 0.854011
5.37 0.973518
5.38 1.07353
5.39 1.14926
5.4 1.20076
5.41 1.22179
5.42 1.21556
5.43 1.17975
5.44 1.11596
5.45 1.02745
5.46 0.914513
5.47 0.783881
5.48 0.637671
5.49 0.48197
5.5 0.321177
5.51 0.160401
5.52 0.00375374
5.53 -0.143403
5.54 -0.278902
5.55 -0.399061
5.56 -0.502054
5.57 -0.587785
5.58 -0.653907
5.59 -0.703568
5.6 -0.73591
5.61 -0.754183
5.62 -0.760231
5.63 -0.756128
5.64 -0.74515
5.65 -0.728779
5.66 -0.709798
5.67 -0.689594
5.68 -0.66948
5.69 -0.650079
5.7 -0.631686
5.71 -0.613893
5.72 -0.596066
5.73 -0.577199
5.74 -0.556219
5.75 -0.531729
5.76 -0.503154
5.77 -0.468885
5.78 -0.429238
5.79 -0.383709
5.8 -0.332841
5.81 -0.277716
5.82 -0.219347
5.83 -0.159805
5.84 -0.101059
5.85 -0.0453449
5.86 0.00517715
5.87 0.0478247
5.88 0.0816712
5.89 0.103428
5.9 0.113605
5.91 0.110604
5.92 0.0945474
5.93 0.0665538
5.94 0.0263164
5.95 -0.0231269
5.96 -0.0810512
5.97 -0.144598
5.98 -0.211749
5.99 -0.280199
6 -0.347916
6.01 -0.412679
6.02 -0.473394
6.03 -0.528655
6.04 -0.577844
6.05 -0.621094
6.06 -0.657924
6.07 -0.689746
6.08 -0.716811
6.09 -0.740585
6.1 -0.762081
6.11 -0.782411
6.12 -0.802579
6.13 -0.823422
6.14 -0.845334
6.15 -0.868578
6.16 -0.892996
6.17 -0.918151
6.18 -0.94339
6.19 -0.967928
6.2 -0.99074
6.21 -1.01105
6.22 -1.02812
6.23 -1.04114
6.24 -1.05027
6.25 -1.05486
6.26 -1.05583
6.27 -1.05347
6.28 -1.0487
6.29 -1.04252
6.3 -1.03585
6.31 -1.02956
6.32 -1.0243
6.33 -1.02018
6.34 -1.01685
6.35 -1.01327
6.36 -1.00793
6.37 -0.997804
6.38 -0.980442
6.39 -0.951612
6.4 -0.906958
6.41 -0.843291
6.42 -0.75311
6.43 -0.635909
6.44 -0.484215
6.45 -0.297554
6.46 -0.0736655
6.47 0.190163
6.48 0.488973
6.49 0.825883
6.5 1.19168
6.51 1.58322
6.52 1.99238
6.53 2.41048
6.54 2.82773
6.55 3.23446
6.56 3.61823
6.57 3.9698
6.58 4.2794
6.59 4.5346
6.6 4.73417
6.61 4.86191
6.62 4.92337
6.63 4.91107
6.64 4.82621
6.65 4.67488
6.66 4.45395
6.67 4.17894
6.68 3.8513
6.69 3.48494
6.7 3.08915
6.71 2.67455
6.72 2.25309
6.73 1.83563
6.74 1.43148
6.75 1.05022
6.76 0.699535
6.77 0.382979
6.78 0.109479
6.79 -0.124584
6.8 -0.313474
6.81 -0.461648
6.82 -0.570872
6.83 -0.642961
6.84 -0.685828
6.85 -0.700184
6.86 -0.695033
6.87 -0.673775
6.88 -0.641884
6.89 -0.603914
6.9 -0.563357
6.91 -0.523377
6.92 -0.486303
6.93 -0.453365
6.94 -0.425238
6.95 -0.402269
6.96 -0.383551
6.97 -0.368988
6.98 -0.357163
6.99 -0.347465
7 -0.339081
7.01 -0.331497
7.02 -0.324613
7.03 -0.3185
7.04 -0.313789
7.05 -0.311216
7.06 -0.311761
7.07 -0.316867
7.08 -0.327082
7.09 -0.344413
7.1 -0.368701
7.11 -0.400963
7.12 -0.441166
7.13 -0.488519
7.14 -0.542954
7.15 -0.602286
7.16 -0.665409
7.17 -0.729993
7.18 -0.794058
7.19 -0.855143
7.2 -0.911683
7.21 -0.960838
7.22 -1.0021
7.23 -1.03382
7.24 -1.05555
7.25 -1.06787
7.26 -1.07026
7.27 -1.06509
7.28 -1.05298
7.29 -1.03637
7.3 -1.0171
7.31 -0.997331
7.32 -0.978852
7.33 -0.963733
7.34 -0.952747
7.35 -0.946899
7.36 -0.94623
7.37 -0.949953
7.38 -0.957269
7.39 -0.965992
7.4 -0.973921
7.41 -0.978323
7.42 -0.976455
7.43 -0.964667
7.44 -0.941469
7.45 -0.902143
7.46 -0.846798
7.47 -0.772788
7.48 -0.679585
7.49 -0.568396
7.5 -0.438037
7.51 -0.292832
7.52 -0.133564
7.53 0.0353108
7.54 0.210304
7.55 0.387054
7.56 0.561366
7.57 0.727829
7.58 0.883191
7.59 1.02273
7.6 1.14285
7.61 1.24207
7.62 1.31524
7.63 1.36457
7.64 1.38639
7.65 1.38291
7.66 1.3548
7.67 1.30242
7.68 1.23035
7.69 1.1383
7.7 1.03188
7.71 0.91306
7.72 0.785543
7.73 0.652824
7.74 0.517916
7.75 0.384015
7.76 0.25417
7.77 0.130736
7.78 0.0158501
7.79 -0.0878703
7.8 -0.18021
7.81 -0.257919
7.82 -0.322038
7.83 -0.370964
7.84 -0.404609
7.85 -0.423957
7.86 -0.427663
7.87 -0.418587
7.88 -0.396222
7.89 -0.36301
7.9 -0.320461
7.91 -0.270257
7.92 -0.215241
7.93 -0.15733
7.94 -0.0994444
7.95 -0.044089
7.96 0.00600206
7.97 0.0489557
7.98 0.0813546
7.99 0.102877
8 0.110652
8.01 0.104698
8.02 0.0845504
8.03 0.0496011
8.04 0.00215333
8.05 -0.058345
8.06 -0.128343
8.07 -0.206393
8.08 -0.289652
8.09 -0.375344
8.1 -0.460622
8.11 -0.543022
8.12 -0.619702
8.13 -0.688984
8.14 -0.749412
8.15 -0.79942
8.16 -0.839845
8.17 -0.869444
8.18 -0.890509
8.19 -0.903705
8.2 -0.910993
8.21 -0.914511
8.22 -0.916104
8.23 -0.917874
8.24 -0.92154
8.25 -0.928197
8.26 -0.938412
8.27 -0.952255
8.28 -0.968526
8.29 -0.985732
8.3 -1.0013
8.31 -1.01208
8.32 -1.01417
8.33 -1.00448
8.34 -0.97678
8.35 -0.929704
8.36 -0.857023
8.37 -0.757397
8.38 -0.628607
8.39 -0.467628
8.4 -0.277972
8.41 -0.0564106
8.42 0.190272
8.43 0.460206
8.44 0.747678
8.45 1.04611
8.46 1.34898
8.47 1.64851
8.48 1.93624
8.49 2.20488
8.5 2.44742
8.51 2.65475
8.52 2.82542
8.53 2.9482
8.54 3.02601
8.55 3.05362
8.56 3.03107
8.57 2.96243
8.58 2.84463
8.59 2.68816
8.6 2.49335
8.61 2.26914
8.62 2.02155
8.63 1.75697
8.64 1.48367
8.65 1.20796
8.66 0.936606
8.67 0.675572
8.68 0.430214
8.69 0.203263
8.7 0.000640833
8.71 -0.17909
8.72 -0.332042
8.73 -0.460114
8.74 -0.564006
8.75 -0.644082
8.76 -0.704963
8.77 -0.746501
8.78 -0.774127
8.79 -0.789726
8.8 -0.796631
8.81 -0.797929
8.82 -0.795806
8.83 -0.792831
8.84 -0.790747
8.85 -0.790921
8.86 -0.794234
8.87 -0.801466
8.88 -0.81233
8.89 -0.827237
8.9 -0.845246
8.91 -0.866007
8.92 -0.888724
8.93 -0.912583
8.94 -0.936868
8.95 -0.960851
8.96 -0.983872
8.97 -1.0055
8.98 -1.0254
8.99 -1.04325
9 -1.05922
9.01 -1.07305
9.02 -1.08515
9.03 -1.0956
9.04 -1.10465
9.05 -1.11258
9.06 -1.11946
9.07 -1.12552
9.08 -1.13068
9.09 -1.13488
9.1 -1.13789
9.11 -1.13924
9.12 -1.13865
9.13 -1.13513
9.14 -1.12838
9.15 -1.11744
9.16 -1.1015
9.17 -1.08023
9.18 -1.05219
9.19 -1.0178
9.2 -0.975936
9.21 -0.926989
9.22 -0.871062
9.23 -0.808196
9.24 -0.739799
9.25 -0.666104
9.26 -0.589081
9.27 -0.509968
9.28 -0.430662
9.29 -0.352865
9.3 -0.279005
9.31 -0.210384
9.32 -0.149555
9.33 -0.0977118
9.34 -0.0561793
9.35 -0.0267787
9.36 -0.00877399
9.37 -0.00425496
9.38 -0.0112565
9.39 -0.0299438
9.4 -0.0590256
9.41 -0.0964806
9.42 -0.141328
9.43 -0.190567
9.44 -0.242473
9.45 -0.294523
9.46 -0.344717
9.47 -0.390744
9.48 -0.431543
9.49 -0.464816
9.5 -0.490648
9.51 -0.508109
9.52 -0.51731
9.53 -0.51924
9.54 -0.513983
9.55 -0.503751
9.56 -0.489501
9.57 -0.473277
9.58 -0.456695
9.59 -0.441615
9.6 -0.429262
9.61 -0.421506
9.62 -0.418734
9.63 -0.421895
9.64 -0.431223
9.65 -0.446216
9.66 -0.467114
9.67 -0.492395
9.68 -0.521638
9.69 -0.553462
9.7 -0.586854
9.71 -0.62075
9.72 -0.654267
9.73 -0.686536
9.74 -0.717218
9.75 -0.745941
9.76 -0.772651
9.77 -0.797573
9.78 -0.82069
9.79 -0.842441
9.8 -0.862744
9.81 -0.881559
9.82 -0.898463
9.83 -0.912358
9.84 -0.922349
9.85 -0.925707
9.86 -0.920847
9.87 -0.904375
9.88 -0.872752
9.89 -0.823736
9.9 -0.750743
9.91 -0.653666
9.92 -0.526121
9.93 -0.367265
9.94 -0.175198
9.95 0.0533742
9.96 0.314322
9.97 0.611334
9.98 0.937143
9.99 1.28987
10 1.66359
10.01 2.05105
10.02 2.44546
10.03 2.83788
10.04 3.21899
10.05 3.58012
10.06 3.91306
10.07 4.20671
10.08 4.45867
10.09 4.65525
10.1 4.79856
10.11 4.88168
10.12 4.90314
10.13 4.86718
10.14 4.76826
10.15 4.61866
10.16 4.41744
10.17 4.1748
10.18 3.89767
10.19 3.59289
10.2 3.27127
10.21 2.93951
10.22 2.60705
10.23 2.28108
10.24 1.96881
10.25 1.67436
10.26 1.40518
10.27 1.1607
10.28 0.945764
10.29 0.758958
10.3 0.599681
10.31 0.467878
10.32 0.358232
10.33 0.270842
10.34 0.199406
10.35 0.141484
10.36 0.0930544
10.37 0.0503562
10.38 0.0105841
10.39 -0.0292247
10.4 -0.0712605
10.41 -0.11701
10.42 -0.167382
10.43 -0.223158
10.44 -0.283672
10.45 -0.349132
10.46 -0.418084
10.47 -0.489732
10.48 -0.56274
10.49 -0.635859
10.5 -0.707639
10.51 -0.77711
10.52 -0.842869
10.53 -0.904163
10.54 -0.96026
10.55 -1.01011
10.56 -1.05395
10.57 -1.09046
10.58 -1.12028
10.59 -1.14282
10.6 -1.15802
10.61 -1.16634
10.62 -1.16691
10.63 -1.16092
10.64 -1.14775
10.65 -1.12815
10.66 -1.10248
10.67 -1.07086
10.68 -1.0345
10.69 -0.993472
10.7 -0.949213
10.71 -0.902448
10.72 -0.854362
10.73 -0.806087
10.74 -0.75898
10.75 -0.714037
10.76 -0.672722
10.77 -0.635938
10.78 -0.604563
10.79 -0.579837
10.8 -0.561548
10.81 -0.551118
10.82 -0.547696
10.83 -0.551649
10.84 -0.562606
10.85 -0.579613
10.86 -0.602704
10.87 -0.630222
10.88 -0.661765
10.89 -0.696055
10.9 -0.732188
10.91 -0.769246
10.92 -0.806347
10.93 -0.842663
10.94 -0.877655
10.95 -0.910749
10.96 -0.941539
10.97 -0.969952
10.98 -0.995493
10.99 -1.01852
11 -1.03876
11.01 -1.05647
11.02 -1.0718
11.03 -1.08477
11.04 -1.0958
11.05 -1.10481
11.06 -1.11227
11.07 -1.11828
11.08 -1.12311
11.09 -1.12706
11.1 -1.1303
11.11 -1.13316
11.12 -1.13586
11.13 -1.13859
11.14 -1.14149
11.15 -1.14462
11.16 -1.14785
11.17 -1.1509
11.18 -1.15331
11.19 -1.15434
11.2 -1.1529
11.21 -1.14805
11.22 -1.13755
11.23 -1.12052
11.24 -1.09415
11.25 -1.05685
11.26 -1.0067
11.27 -0.940508
11.28 -0.858379
11.29 -0.756036
11.3 -0.634796
11.31 -0.492801
11.32 -0.330057
11.33 -0.148636
11.34 0.0523763
11.35 0.268019
11.36 0.496928
11.37 0.734263
11.38 0.975876
11.39 1.21651
11.4 1.45143
11.41 1.6737
11.42 1.87938
11.43 2.06241
11.44 2.21761
11.45 2.34322
11.46 2.43131
11.47 2.48497
11.48 2.49876
11.49 2.47505
11.5 2.41494
11.51 2.3183
11.52 2.19211
11.53 2.03613
11.54 1.85871
11.55 1.66347
11.56 1.45634
11.57 1.24316
11.58 1.02924
11.59 0.81951
11.6 0.61904
11.61 0.431215
11.62 0.25872
11.63 0.104937
11.64 -0.0311974
11.65 -0.146617
11.66 -0.244425
11.67 -0.324734
11.68 -0.389591
11.69 -0.442189
11.7 -0.483802
11.71 -0.518613
11.72 -0.548529
11.73 -0.57645
11.74 -0.604352
11.75 -0.634104
11.76 -0.666536
11.77 -0.702684
11.78 -0.742058
11.79 -0.784284
11.8 -0.828154
11.81 -0.87216
11.82 -0.914151
11.83 -0.95237
11.84 -0.984078
11.85 -1.00734
11.86 -1.02024
11.87 -1.01996
11.88 -1.00659
11.89 -0.976802
11.9 -0.931893
11.91 -0.870695
11.92 -0.793498
11.93 -0.702137
11.94 -0.59603
11.95 -0.478881
11.96 -0.351455
11.97 -0.216864
11.98 -0.0775452
11.99 0.0637632
12 0.204274
12.01 0.34078
12.02 0.471049
12.03 0.592253
12.04 0.701865
12.05 0.798902
12.06 0.879649
12.07 0.945178
12.08 0.992759
12.09 1.02301
12.1 1.03601
12.11 1.03098
12.12 1.01069
12.13 0.974039
12.14 0.924495
12.15 0.862918
12.16 0.791405
12.17 0.712545
12.18 0.627757
12.19 0.539942
12.2 0.450831
12.21 0.362506
12.22 0.276522
12.23 0.19463
12.24 0.117367
12.25 0.0462928
12.26 -0.0189332
12.27 -0.0778882
12.28 -0.130838
12.29 -0.1787
12.3 -0.221628
12.31 -0.261224
12.32 -0.298134
12.33 -0.333616
12.34 -0.368582
12.35 -0.403932
12.36 -0.440198
12.37 -0.477925
12.38 -0.516997
12.39 -0.557241
12.4 -0.598018
