# xPDFsuite Configuration #
[PDF]
wavelength = 0.1432
dataformat = twotheta
inputfile = 1_1Pd_CeO2_cycle-00330.chi
backgroundfile = background-00000.chi
mode = xray
bgscale = 1.007
composition = CeO2
outputtype = gr
qmaxinst = 28.8974762299
qmin = 0.5
qmax = 27.9
rmax = 50.0
rmin = 0.0
rstep = 0.01
rpoly = 1.8657

[Misc]
inputdir = G:/SankarDec16/1Pd/Chi
savedir = D:/DATA/APS_CeO2/1Pd
backgroundfilefull = G:/SankarDec16/Background/background-00000.chi

#### start data
#S 1
#L r($\AA$)  G($\AA^{-2}$)
0 0
0.01 -0.00637902
0.02 -0.0122789
0.03 -0.0172063
0.04 -0.0207892
0.05 -0.0228204
0.06 -0.0229664
0.07 -0.0214475
0.08 -0.0181553
0.09 -0.0135112
0.1 -0.00780617
0.11 -0.00148636
0.12 0.00495973
0.13 0.0109858
0.14 0.0162017
0.15 0.0201314
0.16 0.0224941
0.17 0.0231756
0.18 0.0219456
0.19 0.0191266
0.2 0.0147267
0.21 0.0092364
0.22 0.00301718
0.23 -0.0034304
0.24 -0.00964515
0.25 -0.0150384
0.26 -0.0193263
0.27 -0.0220724
0.28 -0.0230993
0.29 -0.0223919
0.3 -0.0198333
0.31 -0.0158336
0.32 -0.0105175
0.33 -0.0044229
0.34 0.00203501
0.35 0.00832351
0.36 0.0140298
0.37 0.0185495
0.38 0.0217181
0.39 0.0231586
0.4 0.0228056
0.41 0.0207435
0.42 0.016975
0.43 0.0119795
0.44 0.00599269
0.45 -0.00042439
0.46 -0.00682146
0.47 -0.0126575
0.48 -0.0175872
0.49 -0.0210181
0.5 -0.0229127
0.51 -0.0229709
0.52 -0.0212426
0.53 -0.0179087
0.54 -0.0130916
0.55 -0.00731839
0.56 -0.000925755
0.57 0.00552739
0.58 0.0115763
0.59 0.016696
0.6 0.0206248
0.61 0.0228091
0.62 0.0233407
0.63 0.0220107
0.64 0.0189826
0.65 0.0145258
0.66 0.00887779
0.67 0.00258986
0.68 -0.00391541
0.69 -0.0101061
0.7 -0.0155241
0.71 -0.0196837
0.72 -0.0224193
0.73 -0.0232409
0.74 -0.0223655
0.75 -0.0196847
0.76 -0.0154679
0.77 -0.0100607
0.78 -0.00380409
0.79 0.00275167
0.8 0.00911871
0.81 0.0148161
0.82 0.0194143
0.83 0.0224894
0.84 0.0239786
0.85 0.0234781
0.86 0.021318
0.87 0.0174932
0.88 0.0123631
0.89 0.00632904
0.9 -0.000187149
0.91 -0.00666702
0.92 -0.0125919
0.93 -0.0175613
0.94 -0.0212057
0.95 -0.0231969
0.96 -0.0235821
0.97 -0.0220875
0.98 -0.0191376
0.99 -0.0148479
1 -0.00965471
1.01 -0.00399452
1.02 0.00164016
1.03 0.00680836
1.04 0.0109854
1.05 0.0138984
1.06 0.0152786
1.07 0.0149444
1.08 0.0130883
1.09 0.00963931
1.1 0.00513583
1.11 -0.000120311
1.12 -0.0055754
1.13 -0.0107301
1.14 -0.0149392
1.15 -0.0178558
1.16 -0.0188572
1.17 -0.0178118
1.18 -0.0145146
1.19 -0.00889463
1.2 -0.00133781
1.21 0.00810534
1.22 0.0186756
1.23 0.0298971
1.24 0.0410243
1.25 0.0514104
1.26 0.0601807
1.27 0.0669389
1.28 0.0708295
1.29 0.0716986
1.3 0.0692337
1.31 0.0632507
1.32 0.0542134
1.33 0.0419439
1.34 0.0273917
1.35 0.010924
1.36 -0.0066471
1.37 -0.0245848
1.38 -0.0420501
1.39 -0.0584085
1.4 -0.0727952
1.41 -0.0848089
1.42 -0.093975
1.43 -0.0998756
1.44 -0.10272
1.45 -0.102002
1.46 -0.0984165
1.47 -0.0919562
1.48 -0.0831132
1.49 -0.0723872
1.5 -0.0601234
1.51 -0.0469753
1.52 -0.0333165
1.53 -0.0196329
1.54 -0.00627291
1.55 0.00641217
1.56 0.0182751
1.57 0.0289683
1.58 0.0385445
1.59 0.046813
1.6 0.0537549
1.61 0.0593884
1.62 0.0635346
1.63 0.0663485
1.64 0.0675958
1.65 0.0673619
1.66 0.0655513
1.67 0.0620486
1.68 0.0569935
1.69 0.0501143
1.7 0.0417255
1.71 0.0317771
1.72 0.0204925
1.73 0.00813856
1.74 -0.0050582
1.75 -0.0186536
1.76 -0.0322777
1.77 -0.0454913
1.78 -0.0578861
1.79 -0.0689964
1.8 -0.078649
1.81 -0.0862945
1.82 -0.0920775
1.83 -0.0957761
1.84 -0.0975383
1.85 -0.0976268
1.86 -0.0962164
1.87 -0.0938781
1.88 -0.0909781
1.89 -0.0880778
1.9 -0.0856365
1.91 -0.0841607
1.92 -0.0838759
1.93 -0.0852728
1.94 -0.0882084
1.95 -0.0927889
1.96 -0.0987527
1.97 -0.105725
1.98 -0.113268
1.99 -0.120759
2 -0.127498
2.01 -0.132848
2.02 -0.136147
2.03 -0.136644
2.04 -0.134164
2.05 -0.12775
2.06 -0.117753
2.07 -0.103749
2.08 -0.0859353
2.09 -0.0646696
2.1 -0.0399629
2.11 -0.0126584
2.12 0.0171014
2.13 0.0486038
2.14 0.0814749
2.15 0.115348
2.16 0.149864
2.17 0.184927
2.18 0.220387
2.19 0.256311
2.2 0.292788
2.21 0.329918
2.22 0.367914
2.23 0.406729
2.24 0.446433
2.25 0.48675
2.26 0.52734
2.27 0.567561
2.28 0.606734
2.29 0.643516
2.3 0.677083
2.31 0.705829
2.32 0.728407
2.33 0.743835
2.34 0.749898
2.35 0.746811
2.36 0.732488
2.37 0.707481
2.38 0.6715
2.39 0.624584
2.4 0.568618
2.41 0.50355
2.42 0.432405
2.43 0.356589
2.44 0.278654
2.45 0.200846
2.46 0.125864
2.47 0.0554264
2.48 -0.00777609
2.49 -0.0627483
2.5 -0.10823
2.51 -0.143179
2.52 -0.168613
2.53 -0.183463
2.54 -0.190281
2.55 -0.189721
2.56 -0.183902
2.57 -0.17488
2.58 -0.164685
2.59 -0.155384
2.6 -0.149054
2.61 -0.147017
2.62 -0.150436
2.63 -0.160243
2.64 -0.175914
2.65 -0.19802
2.66 -0.224769
2.67 -0.255366
2.68 -0.288031
2.69 -0.32109
2.7 -0.352559
2.71 -0.38106
2.72 -0.404648
2.73 -0.422604
2.74 -0.434147
2.75 -0.438797
2.76 -0.437521
2.77 -0.430201
2.78 -0.418923
2.79 -0.404839
2.8 -0.389926
2.81 -0.375913
2.82 -0.36495
2.83 -0.35814
2.84 -0.357387
2.85 -0.363018
2.86 -0.375485
2.87 -0.394823
2.88 -0.419659
2.89 -0.44951
2.9 -0.482004
2.91 -0.515488
2.92 -0.547688
2.93 -0.576767
2.94 -0.600205
2.95 -0.61724
2.96 -0.625803
2.97 -0.626022
2.98 -0.617719
2.99 -0.601243
3 -0.578515
3.01 -0.550436
3.02 -0.519885
3.03 -0.488946
3.04 -0.460252
3.05 -0.435831
3.06 -0.418502
3.07 -0.408858
3.08 -0.409046
3.09 -0.418614
3.1 -0.437487
3.11 -0.464953
3.12 -0.4987
3.13 -0.537383
3.14 -0.577835
3.15 -0.61763
3.16 -0.653964
3.17 -0.684809
3.18 -0.707302
3.19 -0.721226
3.2 -0.724706
3.21 -0.718754
3.22 -0.704002
3.23 -0.681903
3.24 -0.655249
3.25 -0.626425
3.26 -0.59877
3.27 -0.575442
3.28 -0.559488
3.29 -0.552876
3.3 -0.558816
3.31 -0.576696
3.32 -0.608317
3.33 -0.651673
3.34 -0.705384
3.35 -0.767011
3.36 -0.832802
3.37 -0.899165
3.38 -0.962075
3.39 -1.01739
3.4 -1.06148
3.41 -1.09223
3.42 -1.10583
3.43 -1.10366
3.44 -1.08387
3.45 -1.04952
3.46 -1.00278
3.47 -0.947133
3.48 -0.887421
3.49 -0.828447
3.5 -0.774941
3.51 -0.73186
3.52 -0.703075
3.53 -0.690419
3.54 -0.697196
3.55 -0.72048
3.56 -0.760131
3.57 -0.810475
3.58 -0.86618
3.59 -0.919167
3.6 -0.961903
3.61 -0.981746
3.62 -0.972237
3.63 -0.921315
3.64 -0.820586
3.65 -0.66574
3.66 -0.444618
3.67 -0.163272
3.68 0.186413
3.69 0.595503
3.7 1.05954
3.71 1.57091
3.72 2.11427
3.73 2.67916
3.74 3.24694
3.75 3.80148
3.76 4.32467
3.77 4.80274
3.78 5.21283
3.79 5.55095
3.8 5.79567
3.81 5.94644
3.82 5.99683
3.83 5.94108
3.84 5.79223
3.85 5.54108
3.86 5.21119
3.87 4.80679
3.88 4.3445
3.89 3.84095
3.9 3.30978
3.91 2.7699
3.92 2.23646
3.93 1.7237
3.94 1.2437
3.95 0.809211
3.96 0.422377
3.97 0.096877
3.98 -0.173926
3.99 -0.385522
4 -0.542247
4.01 -0.65104
4.02 -0.71363
4.03 -0.743127
4.04 -0.743535
4.05 -0.725718
4.06 -0.696598
4.07 -0.663453
4.08 -0.632032
4.09 -0.607917
4.1 -0.593238
4.11 -0.590556
4.12 -0.600028
4.13 -0.620316
4.14 -0.650542
4.15 -0.6869
4.16 -0.726903
4.17 -0.766763
4.18 -0.803368
4.19 -0.833212
4.2 -0.854706
4.21 -0.864228
4.22 -0.862258
4.23 -0.847255
4.24 -0.819666
4.25 -0.780777
4.26 -0.730686
4.27 -0.672365
4.28 -0.606583
4.29 -0.535853
4.3 -0.461715
4.31 -0.385733
4.32 -0.309245
4.33 -0.233261
4.34 -0.15834
4.35 -0.0849138
4.36 -0.0130736
4.37 0.0572945
4.38 0.126139
4.39 0.193734
4.4 0.259866
4.41 0.324413
4.42 0.386897
4.43 0.446396
4.44 0.50232
4.45 0.552659
4.46 0.596809
4.47 0.632765
4.48 0.659111
4.49 0.675085
4.5 0.678195
4.51 0.669387
4.52 0.646655
4.53 0.611209
4.54 0.563326
4.55 0.503555
4.56 0.434435
4.57 0.356457
4.58 0.272965
4.59 0.185697
4.6 0.097257
4.61 0.00977853
4.62 -0.0742217
4.63 -0.153477
4.64 -0.225818
4.65 -0.290725
4.66 -0.3475
4.67 -0.395588
4.68 -0.436123
4.69 -0.468536
4.7 -0.494879
4.71 -0.515701
4.72 -0.532433
4.73 -0.5464
4.74 -0.558602
4.75 -0.570228
4.76 -0.582044
4.77 -0.59461
4.78 -0.608221
4.79 -0.622979
4.8 -0.638609
4.81 -0.654855
4.82 -0.671157
4.83 -0.686997
4.84 -0.701809
4.85 -0.715218
4.86 -0.726648
4.87 -0.736163
4.88 -0.74346
4.89 -0.74885
4.9 -0.75256
4.91 -0.754956
4.92 -0.756613
4.93 -0.758
4.94 -0.759661
4.95 -0.762057
4.96 -0.765552
4.97 -0.770292
4.98 -0.77651
4.99 -0.78394
5 -0.792525
5.01 -0.801844
5.02 -0.811547
5.03 -0.821193
5.04 -0.830435
5.05 -0.838825
5.06 -0.846247
5.07 -0.852501
5.08 -0.857616
5.09 -0.861755
5.1 -0.86504
5.11 -0.867822
5.12 -0.870286
5.13 -0.872627
5.14 -0.87486
5.15 -0.876774
5.16 -0.878002
5.17 -0.877588
5.18 -0.874707
5.19 -0.867817
5.2 -0.855245
5.21 -0.835635
5.22 -0.805972
5.23 -0.765803
5.24 -0.711921
5.25 -0.643929
5.26 -0.560655
5.27 -0.460848
5.28 -0.34643
5.29 -0.216027
5.3 -0.0735972
5.31 0.0794378
5.32 0.239372
5.33 0.402324
5.34 0.563643
5.35 0.719074
5.36 0.862767
5.37 0.990723
5.38 1.09855
5.39 1.18094
5.4 1.23773
5.41 1.2621
5.42 1.25738
5.43 1.22099
5.44 1.15464
5.45 1.06181
5.46 0.942916
5.47 0.805223
5.48 0.651138
5.49 0.487279
5.5 0.318468
5.51 0.150306
5.52 -0.0128153
5.53 -0.165021
5.54 -0.304116
5.55 -0.426173
5.56 -0.529374
5.57 -0.613785
5.58 -0.677075
5.59 -0.72284
5.6 -0.750411
5.61 -0.763474
5.62 -0.764208
5.63 -0.755068
5.64 -0.739584
5.65 -0.719614
5.66 -0.697995
5.67 -0.676292
5.68 -0.655815
5.69 -0.637068
5.7 -0.620311
5.71 -0.604819
5.72 -0.589796
5.73 -0.573933
5.74 -0.555918
5.75 -0.534101
5.76 -0.507763
5.77 -0.475073
5.78 -0.436371
5.79 -0.391099
5.8 -0.339888
5.81 -0.283968
5.82 -0.224496
5.83 -0.163782
5.84 -0.104011
5.85 -0.047626
5.86 0.00303959
5.87 0.0451286
5.88 0.0777232
5.89 0.0974179
5.9 0.104909
5.91 0.0986866
5.92 0.0791128
5.93 0.0475579
5.94 0.00404615
5.95 -0.0481333
5.96 -0.107879
5.97 -0.172138
5.98 -0.238691
5.99 -0.305032
6 -0.369256
6.01 -0.428991
6.02 -0.483518
6.03 -0.531588
6.04 -0.572966
6.05 -0.608184
6.06 -0.637238
6.07 -0.661934
6.08 -0.683062
6.09 -0.702399
6.1 -0.721278
6.11 -0.741149
6.12 -0.76289
6.13 -0.787664
6.14 -0.815408
6.15 -0.846298
6.16 -0.879758
6.17 -0.914873
6.18 -0.950527
6.19 -0.985362
6.2 -1.01778
6.21 -1.04652
6.22 -1.07043
6.23 -1.08821
6.24 -1.10002
6.25 -1.10471
6.26 -1.10359
6.27 -1.09685
6.28 -1.08576
6.29 -1.07172
6.3 -1.05598
6.31 -1.04004
6.32 -1.02502
6.33 -1.01156
6.34 -0.999785
6.35 -0.989146
6.36 -0.978298
6.37 -0.964738
6.38 -0.945842
6.39 -0.917544
6.4 -0.875338
6.41 -0.815743
6.42 -0.731119
6.43 -0.620418
6.44 -0.475869
6.45 -0.296512
6.46 -0.0797028
6.47 0.177705
6.48 0.47098
6.49 0.803677
6.5 1.16658
6.51 1.55676
6.52 1.96606
6.53 2.38569
6.54 2.80583
6.55 3.21646
6.56 3.60503
6.57 3.96195
6.58 4.27721
6.59 4.53813
6.6 4.74324
6.61 4.87613
6.62 4.94222
6.63 4.93391
6.64 4.85232
6.65 4.70361
6.66 4.48457
6.67 4.21087
6.68 3.88396
6.69 3.51788
6.7 3.122
6.71 2.707
6.72 2.28491
6.73 1.86662
6.74 1.46146
6.75 1.07903
6.76 0.726974
6.77 0.408854
6.78 0.133534
6.79 -0.102593
6.8 -0.293837
6.81 -0.444634
6.82 -0.556732
6.83 -0.631911
6.84 -0.677999
6.85 -0.695633
6.86 -0.693704
6.87 -0.675497
6.88 -0.64636
6.89 -0.610763
6.9 -0.572042
6.91 -0.533363
6.92 -0.496939
6.93 -0.464038
6.94 -0.435357
6.95 -0.411279
6.96 -0.391046
6.97 -0.374637
6.98 -0.360825
6.99 -0.349139
7 -0.33894
7.01 -0.329834
7.02 -0.321903
7.03 -0.315243
7.04 -0.31061
7.05 -0.308704
7.06 -0.310482
7.07 -0.317334
7.08 -0.329648
7.09 -0.349323
7.1 -0.375997
7.11 -0.410515
7.12 -0.452652
7.13 -0.501483
7.14 -0.556725
7.15 -0.616187
7.16 -0.678618
7.17 -0.741745
7.18 -0.803626
7.19 -0.861872
7.2 -0.915123
7.21 -0.960676
7.22 -0.998281
7.23 -1.02651
7.24 -1.04517
7.25 -1.055
7.26 -1.0558
7.27 -1.04996
7.28 -1.03831
7.29 -1.02327
7.3 -1.00667
7.31 -0.990624
7.32 -0.976688
7.33 -0.96684
7.34 -0.961512
7.35 -0.961468
7.36 -0.966429
7.37 -0.975347
7.38 -0.987042
7.39 -0.999195
7.4 -1.00926
7.41 -1.01444
7.42 -1.0119
7.43 -0.997868
7.44 -0.971079
7.45 -0.92673
7.46 -0.86531
7.47 -0.784332
7.48 -0.683597
7.49 -0.564642
7.5 -0.42665
7.51 -0.274257
7.52 -0.108647
7.53 0.0654713
7.54 0.244364
7.55 0.423378
7.56 0.59838
7.57 0.763644
7.58 0.916202
7.59 1.05131
7.6 1.1656
7.61 1.25789
7.62 1.32324
7.63 1.36434
7.64 1.37785
7.65 1.3664
7.66 1.33101
7.67 1.27251
7.68 1.19562
7.69 1.10057
7.7 0.992919
7.71 0.874865
7.72 0.750113
7.73 0.621972
7.74 0.493496
7.75 0.367389
7.76 0.246534
7.77 0.132792
7.78 0.0279005
7.79 -0.0660172
7.8 -0.149143
7.81 -0.21882
7.82 -0.276333
7.83 -0.320522
7.84 -0.351561
7.85 -0.370463
7.86 -0.376238
7.87 -0.371359
7.88 -0.355433
7.89 -0.330469
7.9 -0.297667
7.91 -0.258318
7.92 -0.214705
7.93 -0.16826
7.94 -0.121366
7.95 -0.0760036
7.96 -0.0344127
7.97 0.00180454
7.98 0.0298121
7.99 0.0491628
8 0.0573597
8.01 0.0541993
8.02 0.0390942
8.03 0.0112726
8.04 -0.0275146
8.05 -0.0780626
8.06 -0.137486
8.07 -0.204803
8.08 -0.277743
8.09 -0.353964
8.1 -0.431251
8.11 -0.5073
8.12 -0.579776
8.13 -0.647035
8.14 -0.707693
8.15 -0.760262
8.16 -0.805175
8.17 -0.841211
8.18 -0.870054
8.19 -0.892075
8.2 -0.908732
8.21 -0.921705
8.22 -0.932329
8.23 -0.942359
8.24 -0.953034
8.25 -0.965237
8.26 -0.97933
8.27 -0.995162
8.28 -1.01173
8.29 -1.02734
8.3 -1.03983
8.31 -1.04618
8.32 -1.04279
8.33 -1.02693
8.34 -0.992661
8.35 -0.938987
8.36 -0.859987
8.37 -0.754573
8.38 -0.620724
8.39 -0.455623
8.4 -0.262751
8.41 -0.0390444
8.42 0.2089
8.43 0.479245
8.44 0.766433
8.45 1.06408
8.46 1.36581
8.47 1.66408
8.48 1.95055
8.49 2.21811
8.5 2.45983
8.51 2.6667
8.52 2.83725
8.53 2.96029
8.54 3.03863
8.55 3.06698
8.56 3.04525
8.57 2.97741
8.58 2.86025
8.59 2.70419
8.6 2.50941
8.61 2.28484
8.62 2.03644
8.63 1.7706
8.64 1.49567
8.65 1.21796
8.66 0.944402
8.67 0.681042
8.68 0.433375
8.69 0.204247
8.7 -0.000261873
8.71 -0.18153
8.72 -0.335539
8.73 -0.464164
8.74 -0.568081
8.75 -0.64763
8.76 -0.707527
8.77 -0.747628
8.78 -0.773513
8.79 -0.78715
8.8 -0.792003
8.81 -0.791273
8.82 -0.787284
8.83 -0.782684
8.84 -0.779342
8.85 -0.77867
8.86 -0.781597
8.87 -0.788956
8.88 -0.800404
8.89 -0.816402
8.9 -0.835903
8.91 -0.858533
8.92 -0.883421
8.93 -0.90967
8.94 -0.936503
8.95 -0.963099
8.96 -0.98873
8.97 -1.01289
8.98 -1.0352
8.99 -1.05525
9 -1.0732
9.01 -1.08869
9.02 -1.10217
9.03 -1.11363
9.04 -1.12332
9.05 -1.13152
9.06 -1.13825
9.07 -1.14379
9.08 -1.14802
9.09 -1.15094
9.1 -1.15235
9.11 -1.1518
9.12 -1.1491
9.13 -1.14333
9.14 -1.13426
9.15 -1.12103
9.16 -1.10295
9.17 -1.07975
9.18 -1.05012
9.19 -1.01454
9.2 -0.97198
9.21 -0.922842
9.22 -0.86725
9.23 -0.805261
9.24 -0.738186
9.25 -0.666245
9.26 -0.591252
9.27 -0.514345
9.28 -0.437268
9.29 -0.361589
9.3 -0.289552
9.31 -0.222372
9.32 -0.162433
9.33 -0.110879
9.34 -0.0689868
9.35 -0.0385267
9.36 -0.0188717
9.37 -0.0121028
9.38 -0.0164492
9.39 -0.0321921
9.4 -0.0582307
9.41 -0.0927188
9.42 -0.134901
9.43 -0.181904
9.44 -0.232212
9.45 -0.283381
9.46 -0.333481
9.47 -0.380276
9.48 -0.422583
9.49 -0.45813
9.5 -0.486776
9.51 -0.507466
9.52 -0.520097
9.53 -0.525451
9.54 -0.523368
9.55 -0.515908
9.56 -0.503801
9.57 -0.488999
9.58 -0.473044
9.59 -0.457722
9.6 -0.444388
9.61 -0.434896
9.62 -0.429876
9.63 -0.430418
9.64 -0.436987
9.65 -0.44929
9.66 -0.467827
9.67 -0.491217
9.68 -0.519259
9.69 -0.550637
9.7 -0.584385
9.71 -0.619472
9.72 -0.654846
9.73 -0.689589
9.74 -0.723087
9.75 -0.754768
9.76 -0.784304
9.77 -0.811694
9.78 -0.836599
9.79 -0.859357
9.8 -0.879634
9.81 -0.89737
9.82 -0.912129
9.83 -0.922825
9.84 -0.92881
9.85 -0.927468
9.86 -0.917576
9.87 -0.896021
9.88 -0.859628
9.89 -0.80643
9.9 -0.730274
9.91 -0.631153
9.92 -0.503016
9.93 -0.345029
9.94 -0.155302
9.95 0.0694669
9.96 0.325478
9.97 0.616542
9.98 0.935863
9.99 1.28191
10 1.64921
10.01 2.03089
10.02 2.42068
10.03 2.80983
10.04 3.18945
10.05 3.55094
10.06 3.88615
10.07 4.18407
10.08 4.44192
10.09 4.64602
10.1 4.79788
10.11 4.8903
10.12 4.9213
10.13 4.89468
10.14 4.80434
10.15 4.66229
10.16 4.46707
10.17 4.22872
10.18 3.954
10.19 3.6496
10.2 3.32656
10.21 2.99149
10.22 2.65432
10.23 2.32244
10.24 2.00346
10.25 1.70193
10.26 1.42569
10.27 1.1745
10.28 0.953621
10.29 0.761832
10.3 0.5987
10.31 0.464345
10.32 0.353302
10.33 0.265761
10.34 0.195104
10.35 0.138748
10.36 0.0923903
10.37 0.0519928
10.38 0.0144731
10.39 -0.0233585
10.4 -0.0639334
10.41 -0.108858
10.42 -0.159114
10.43 -0.215545
10.44 -0.27735
10.45 -0.34471
10.46 -0.41593
10.47 -0.490052
10.48 -0.565511
10.49 -0.64087
10.5 -0.714436
10.51 -0.785162
10.52 -0.851474
10.53 -0.912624
10.54 -0.967899
10.55 -1.01629
10.56 -1.05824
10.57 -1.09254
10.58 -1.12008
10.59 -1.14048
10.6 -1.1539
10.61 -1.16095
10.62 -1.16098
10.63 -1.15518
10.64 -1.14304
10.65 -1.12523
10.66 -1.10198
10.67 -1.07331
10.68 -1.04017
10.69 -1.00241
10.7 -0.961209
10.71 -0.917043
10.72 -0.870857
10.73 -0.823674
10.74 -0.776602
10.75 -0.730742
10.76 -0.687469
10.77 -0.647863
10.78 -0.612968
10.79 -0.584241
10.8 -0.561777
10.81 -0.547309
10.82 -0.540278
10.83 -0.54136
10.84 -0.550452
10.85 -0.566704
10.86 -0.590434
10.87 -0.619819
10.88 -0.654542
10.89 -0.693084
10.9 -0.734323
10.91 -0.777068
10.92 -0.820057
10.93 -0.862085
10.94 -0.902261
10.95 -0.939644
10.96 -0.973503
10.97 -1.00364
10.98 -1.02921
10.99 -1.05077
11 -1.06791
11.01 -1.08117
11.02 -1.09092
11.03 -1.09746
11.04 -1.10167
11.05 -1.10387
11.06 -1.10492
11.07 -1.10535
11.08 -1.10581
11.09 -1.10676
11.1 -1.10879
11.11 -1.11207
11.12 -1.11699
11.13 -1.12351
11.14 -1.13156
11.15 -1.14092
11.16 -1.15103
11.17 -1.16124
11.18 -1.1706
11.19 -1.17797
11.2 -1.18185
11.21 -1.18106
11.22 -1.17292
11.23 -1.15664
11.24 -1.12918
11.25 -1.08914
11.26 -1.03473
11.27 -0.962975
11.28 -0.874411
11.29 -0.765051
11.3 -0.636695
11.31 -0.487876
11.32 -0.319022
11.33 -0.132465
11.34 0.0722578
11.35 0.290204
11.36 0.519741
11.37 0.75614
11.38 0.995352
11.39 1.23224
11.4 1.46247
11.41 1.67931
11.42 1.87931
11.43 2.05674
11.44 2.20686
11.45 2.32819
11.46 2.41325
11.47 2.46518
11.48 2.47885
11.49 2.4566
11.5 2.3995
11.51 2.30738
11.52 2.18686
11.53 2.03757
11.54 1.86743
11.55 1.6797
11.56 1.47992
11.57 1.27359
11.58 1.06555
11.59 0.86057
11.6 0.663338
11.61 0.47715
11.62 0.304615
11.63 0.148998
11.64 0.00951218
11.65 -0.110835
11.66 -0.214721
11.67 -0.302054
11.68 -0.374523
11.69 -0.434959
11.7 -0.48426
11.71 -0.526295
11.72 -0.5626
11.73 -0.595844
11.74 -0.627817
11.75 -0.660151
11.76 -0.693786
11.77 -0.729564
11.78 -0.767281
11.79 -0.806635
11.8 -0.846657
11.81 -0.886147
11.82 -0.923202
11.83 -0.956425
11.84 -0.983383
11.85 -1.00242
11.86 -1.01187
11.87 -1.00917
11.88 -0.994418
11.89 -0.964533
11.9 -0.920642
11.91 -0.861575
11.92 -0.78746
11.93 -0.69988
11.94 -0.598063
11.95 -0.485371
11.96 -0.362283
11.97 -0.231613
11.98 -0.0955525
11.99 0.0434625
12 0.182691
12.01 0.319199
12.02 0.450626
12.03 0.574169
12.04 0.687167
12.05 0.788387
12.06 0.873935
12.07 0.944513
12.08 0.997094
12.09 1.03196
12.1 1.04891
12.11 1.04682
12.12 1.0284
12.13 0.992223
12.14 0.941878
12.15 0.878192
12.16 0.803405
12.17 0.720383
12.18 0.630749
12.19 0.537831
12.2 0.443712
12.21 0.350868
12.22 0.261188
12.23 0.176837
12.24 0.0984401
12.25 0.0279397
12.26 -0.0351511
12.27 -0.0903634
12.28 -0.138137
12.29 -0.179731
12.3 -0.215554
12.31 -0.247738
12.32 -0.277373
12.33 -0.306217
12.34 -0.33561
12.35 -0.366992
12.36 -0.401016
12.37 -0.438749
12.38 -0.479908
12.39 -0.524419
12.4 -0.571463
