# xPDFsuite Configuration #
[PDF]
wavelength = 0.1432
dataformat = twotheta
inputfile = 1_1Pd_CeO2_cycle-00454.chi
backgroundfile = background-00000.chi
mode = xray
bgscale = 1.007
composition = CeO2
outputtype = gr
qmaxinst = 28.8974762299
qmin = 0.5
qmax = 27.9
rmax = 50.0
rmin = 0.0
rstep = 0.01
rpoly = 1.8657

[Misc]
inputdir = G:/SankarDec16/1Pd/Chi
savedir = D:/DATA/APS_CeO2/1Pd
backgroundfilefull = G:/SankarDec16/Background/background-00000.chi

#### start data
#S 1
#L r($\AA$)  G($\AA^{-2}$)
0 0
0.01 -0.00397446
0.02 -0.00764816
0.03 -0.0107115
0.04 -0.0129316
0.05 -0.0141791
0.06 -0.0142464
0.07 -0.0132732
0.08 -0.011194
0.09 -0.00827495
0.1 -0.00470081
0.11 -0.000753597
0.12 0.00326068
0.13 0.00699725
0.14 0.0102147
0.15 0.0126157
0.16 0.0140282
0.17 0.0143852
0.18 0.013548
0.19 0.0117235
0.2 0.00892393
0.21 0.00546043
0.22 0.00156369
0.23 -0.00244929
0.24 -0.00629178
0.25 -0.0095926
0.26 -0.0121819
0.27 -0.01379
0.28 -0.0143145
0.29 -0.0137542
0.3 -0.0120465
0.31 -0.00945531
0.32 -0.00606996
0.33 -0.00223088
0.34 0.00179704
0.35 0.00567775
0.36 0.00915858
0.37 0.0118609
0.38 0.013695
0.39 0.0144329
0.4 0.0140473
0.41 0.0126028
0.42 0.0101167
0.43 0.00689628
0.44 0.00310366
0.45 -0.000908528
0.46 -0.00485485
0.47 -0.00839713
0.48 -0.0113299
0.49 -0.0132864
0.5 -0.0142621
0.51 -0.0140824
0.52 -0.0127966
0.53 -0.0105325
0.54 -0.00738635
0.55 -0.0036935
0.56 0.000319359
0.57 0.0043052
0.58 0.00797277
0.59 0.0109989
0.6 0.0132361
0.61 0.0143486
0.62 0.0144171
0.63 0.01333
0.64 0.0112109
0.65 0.00824432
0.66 0.00460104
0.67 0.000627339
0.68 -0.00339704
0.69 -0.00714829
0.7 -0.0103444
0.71 -0.0126937
0.72 -0.0141144
0.73 -0.0143185
0.74 -0.0134685
0.75 -0.0115206
0.76 -0.00866617
0.77 -0.00513634
0.78 -0.00116671
0.79 0.00290408
0.8 0.00675969
0.81 0.010117
0.82 0.0127198
0.83 0.0143247
0.84 0.0149204
0.85 0.0142851
0.86 0.0126527
0.87 0.0100512
0.88 0.00672888
0.89 0.00294895
0.9 -0.00100265
0.91 -0.00481791
0.92 -0.00816659
0.93 -0.0108287
0.94 -0.0125966
0.95 -0.0133009
0.96 -0.0130093
0.97 -0.0116008
0.98 -0.00937328
0.99 -0.00644651
1 -0.00312488
1.01 0.00030182
1.02 0.00348808
1.03 0.00618246
1.04 0.00803639
1.05 0.00891876
1.06 0.00868367
1.07 0.00725456
1.08 0.00480457
1.09 0.00133587
1.1 -0.00275864
1.11 -0.00723383
1.12 -0.0116905
1.13 -0.0157779
1.14 -0.0190249
1.15 -0.021213
1.16 -0.0218875
1.17 -0.0209737
1.18 -0.0183225
1.19 -0.0138715
1.2 -0.00789779
1.21 -0.000388314
1.22 0.00811405
1.23 0.0173196
1.24 0.0267225
1.25 0.0358757
1.26 0.0442048
1.27 0.0513885
1.28 0.056841
1.29 0.0603855
1.3 0.0617481
1.31 0.0607085
1.32 0.0574881
1.33 0.0518081
1.34 0.0442225
1.35 0.0348109
1.36 0.0239971
1.37 0.0121944
1.38 -0.000224084
1.39 -0.0127787
1.4 -0.0250481
1.41 -0.0366616
1.42 -0.0472783
1.43 -0.056541
1.44 -0.0643768
1.45 -0.0703365
1.46 -0.0745847
1.47 -0.0768868
1.48 -0.0772802
1.49 -0.0758591
1.5 -0.0724926
1.51 -0.067509
1.52 -0.0608014
1.53 -0.0526658
1.54 -0.0432128
1.55 -0.0326013
1.56 -0.0211393
1.57 -0.00896458
1.58 0.00353829
1.59 0.0160915
1.6 0.0283214
1.61 0.0399022
1.62 0.0503252
1.63 0.0593755
1.64 0.0664679
1.65 0.0714305
1.66 0.0739359
1.67 0.0736584
1.68 0.0707678
1.69 0.0647913
1.7 0.0562863
1.71 0.0452172
1.72 0.0320153
1.73 0.0171634
1.74 0.00107742
1.75 -0.0155371
1.76 -0.0321019
1.77 -0.0479911
1.78 -0.0626459
1.79 -0.0754651
1.8 -0.0862755
1.81 -0.0944173
1.82 -0.100165
1.83 -0.103316
1.84 -0.104141
1.85 -0.103032
1.86 -0.100287
1.87 -0.0966208
1.88 -0.0925312
1.89 -0.0886765
1.9 -0.0855995
1.91 -0.0838781
1.92 -0.0837204
1.93 -0.0856761
1.94 -0.0895072
1.95 -0.0953001
1.96 -0.102708
1.97 -0.111273
1.98 -0.120475
1.99 -0.129599
2 -0.137855
2.01 -0.144543
2.02 -0.148932
2.03 -0.150208
2.04 -0.148189
2.05 -0.14183
2.06 -0.131524
2.07 -0.1168
2.08 -0.0978653
2.09 -0.0750997
2.1 -0.0484882
2.11 -0.0189476
2.12 0.0133898
2.13 0.0477333
2.14 0.0836586
2.15 0.120721
2.16 0.158465
2.17 0.19667
2.18 0.235074
2.19 0.273582
2.2 0.312135
2.21 0.350718
2.22 0.389314
2.23 0.42787
2.24 0.466237
2.25 0.504175
2.26 0.541308
2.27 0.576999
2.28 0.610766
2.29 0.641299
2.3 0.668112
2.31 0.689812
2.32 0.705386
2.33 0.714152
2.34 0.714316
2.35 0.706298
2.36 0.688458
2.37 0.661472
2.38 0.625252
2.39 0.580004
2.4 0.527423
2.41 0.467633
2.42 0.40319
2.43 0.335354
2.44 0.266253
2.45 0.197716
2.46 0.131973
2.47 0.0703139
2.48 0.0148984
2.49 -0.0335973
2.5 -0.0742489
2.51 -0.106333
2.52 -0.130776
2.53 -0.146836
2.54 -0.156625
2.55 -0.16074
2.56 -0.1609
2.57 -0.158732
2.58 -0.155837
2.59 -0.153771
2.6 -0.154097
2.61 -0.15774
2.62 -0.165494
2.63 -0.177938
2.64 -0.194574
2.65 -0.215646
2.66 -0.239744
2.67 -0.266123
2.68 -0.293383
2.69 -0.32026
2.7 -0.345198
2.71 -0.367307
2.72 -0.385149
2.73 -0.398378
2.74 -0.406561
2.75 -0.40954
2.76 -0.408224
2.77 -0.402774
2.78 -0.394872
2.79 -0.385566
2.8 -0.376428
2.81 -0.36876
2.82 -0.364245
2.83 -0.363527
2.84 -0.367987
2.85 -0.377627
2.86 -0.39259
2.87 -0.412641
2.88 -0.436532
2.89 -0.463579
2.9 -0.491883
2.91 -0.519967
2.92 -0.54603
2.93 -0.568694
2.94 -0.585974
2.95 -0.597532
2.96 -0.601852
2.97 -0.599323
2.98 -0.59003
2.99 -0.574519
3 -0.554486
3.01 -0.530932
3.02 -0.506167
3.03 -0.481985
3.04 -0.460459
3.05 -0.443103
3.06 -0.432097
3.07 -0.427652
3.08 -0.431301
3.09 -0.442409
3.1 -0.460683
3.11 -0.485295
3.12 -0.514281
3.13 -0.546303
3.14 -0.578897
3.15 -0.610053
3.16 -0.637649
3.17 -0.660246
3.18 -0.675745
3.19 -0.684294
3.2 -0.68471
3.21 -0.678121
3.22 -0.665341
3.23 -0.647875
3.24 -0.628035
3.25 -0.608113
3.26 -0.590593
3.27 -0.578098
3.28 -0.572872
3.29 -0.576213
3.3 -0.590448
3.31 -0.614612
3.32 -0.649745
3.33 -0.693786
3.34 -0.745215
3.35 -0.801608
3.36 -0.859815
3.37 -0.916436
3.38 -0.968424
3.39 -1.01228
3.4 -1.04528
3.41 -1.06602
3.42 -1.07163
3.43 -1.06381
3.44 -1.04143
3.45 -1.00748
3.46 -0.964145
3.47 -0.914692
3.48 -0.863187
3.49 -0.813928
3.5 -0.770536
3.51 -0.737034
3.52 -0.716216
3.53 -0.709122
3.54 -0.717844
3.55 -0.739349
3.56 -0.772621
3.57 -0.812331
3.58 -0.853323
3.59 -0.888026
3.6 -0.910102
3.61 -0.90787
3.62 -0.876466
3.63 -0.805343
3.64 -0.687756
3.65 -0.520607
3.66 -0.293785
3.67 -0.0134965
3.68 0.326678
3.69 0.71817
3.7 1.15645
3.71 1.63415
3.72 2.13767
3.73 2.65707
3.74 3.17628
3.75 3.68087
3.76 4.15508
3.77 4.58714
3.78 4.95694
3.79 5.26161
3.8 5.48236
3.81 5.61914
3.82 5.66649
3.83 5.61944
3.84 5.48961
3.85 5.26872
3.86 4.97751
3.87 4.6194
3.88 4.20872
3.89 3.75991
3.9 3.28439
3.91 2.79881
3.92 2.31595
3.93 1.84838
3.94 1.40664
3.95 1.00187
3.96 0.636436
3.97 0.322297
3.98 0.0544237
3.99 -0.162857
4 -0.332661
4.01 -0.460446
4.02 -0.54697
4.03 -0.603211
4.04 -0.631885
4.05 -0.642151
4.06 -0.639641
4.07 -0.630281
4.08 -0.619307
4.09 -0.611042
4.1 -0.607978
4.11 -0.612286
4.12 -0.624497
4.13 -0.643911
4.14 -0.669972
4.15 -0.700025
4.16 -0.73215
4.17 -0.763523
4.18 -0.791714
4.19 -0.813929
4.2 -0.828943
4.21 -0.833718
4.22 -0.828661
4.23 -0.8124
4.24 -0.785218
4.25 -0.748116
4.26 -0.701009
4.27 -0.646391
4.28 -0.584762
4.29 -0.518275
4.3 -0.448229
4.31 -0.375982
4.32 -0.302824
4.33 -0.229693
4.34 -0.157294
4.35 -0.0861689
4.36 -0.0166159
4.37 0.0512922
4.38 0.11726
4.39 0.181464
4.4 0.243514
4.41 0.303315
4.42 0.360428
4.43 0.414062
4.44 0.463876
4.45 0.508146
4.46 0.546597
4.47 0.577603
4.48 0.600111
4.49 0.613594
4.5 0.616007
4.51 0.608223
4.52 0.58854
4.53 0.557965
4.54 0.516671
4.55 0.465015
4.56 0.405077
4.57 0.337078
4.58 0.263816
4.59 0.186615
4.6 0.107624
4.61 0.0286606
4.62 -0.0482195
4.63 -0.121771
4.64 -0.190133
4.65 -0.252657
4.66 -0.308591
4.67 -0.357255
4.68 -0.399418
4.69 -0.434357
4.7 -0.463687
4.71 -0.487706
4.72 -0.507545
4.73 -0.524336
4.74 -0.538875
4.75 -0.552348
4.76 -0.565467
4.77 -0.578926
4.78 -0.59315
4.79 -0.608441
4.8 -0.624723
4.81 -0.641997
4.82 -0.659829
4.83 -0.677871
4.84 -0.695608
4.85 -0.712613
4.86 -0.728268
4.87 -0.742376
4.88 -0.754413
4.89 -0.764355
4.9 -0.772108
4.91 -0.777639
4.92 -0.781337
4.93 -0.783205
4.94 -0.783841
4.95 -0.783518
4.96 -0.782691
4.97 -0.781744
4.98 -0.781078
4.99 -0.780951
5 -0.781698
5.01 -0.78344
5.02 -0.786303
5.03 -0.790407
5.04 -0.795624
5.05 -0.802096
5.06 -0.809566
5.07 -0.81801
5.08 -0.827251
5.09 -0.837078
5.1 -0.847295
5.11 -0.857564
5.12 -0.867497
5.13 -0.876618
5.14 -0.884355
5.15 -0.889827
5.16 -0.892494
5.17 -0.890746
5.18 -0.884079
5.19 -0.870879
5.2 -0.849895
5.21 -0.820373
5.22 -0.779927
5.23 -0.729015
5.24 -0.665382
5.25 -0.589505
5.26 -0.501042
5.27 -0.399699
5.28 -0.287516
5.29 -0.164124
5.3 -0.0328772
5.31 0.104663
5.32 0.24542
5.33 0.386403
5.34 0.523773
5.35 0.654661
5.36 0.774491
5.37 0.880586
5.38 0.969778
5.39 1.03819
5.4 1.08601
5.41 1.10804
5.42 1.107
5.43 1.08086
5.44 1.03083
5.45 0.95944
5.46 0.866597
5.47 0.757775
5.48 0.634266
5.49 0.500988
5.5 0.361347
5.51 0.219291
5.52 0.0784157
5.53 -0.0571801
5.54 -0.185199
5.55 -0.302513
5.56 -0.407163
5.57 -0.49855
5.58 -0.574199
5.59 -0.63605
5.6 -0.682673
5.61 -0.716142
5.62 -0.737378
5.63 -0.747382
5.64 -0.748769
5.65 -0.741928
5.66 -0.72953
5.67 -0.712448
5.68 -0.692024
5.69 -0.669254
5.7 -0.644572
5.71 -0.618566
5.72 -0.591173
5.73 -0.56241
5.74 -0.532047
5.75 -0.499686
5.76 -0.465289
5.77 -0.428293
5.78 -0.389003
5.79 -0.347361
5.8 -0.303793
5.81 -0.258934
5.82 -0.21356
5.83 -0.168703
5.84 -0.12565
5.85 -0.0855761
5.86 -0.0497299
5.87 -0.0197103
5.88 0.0040842
5.89 0.0195488
5.9 0.0271326
5.91 0.0257635
5.92 0.015464
5.93 -0.00311851
5.94 -0.0304314
5.95 -0.0645843
5.96 -0.105449
5.97 -0.151311
5.98 -0.201076
5.99 -0.253535
6 -0.307295
6.01 -0.361299
6.02 -0.414542
6.03 -0.466193
6.04 -0.515643
6.05 -0.562667
6.06 -0.606762
6.07 -0.648316
6.08 -0.68713
6.09 -0.72365
6.1 -0.75809
6.11 -0.79063
6.12 -0.821666
6.13 -0.851094
6.14 -0.879163
6.15 -0.90568
6.16 -0.93047
6.17 -0.953385
6.18 -0.97383
6.19 -0.991823
6.2 -1.00673
6.21 -1.01857
6.22 -1.0272
6.23 -1.0325
6.24 -1.035
6.25 -1.03466
6.26 -1.03235
6.27 -1.0285
6.28 -1.02383
6.29 -1.01893
6.3 -1.01432
6.31 -1.01022
6.32 -1.00664
6.33 -1.00307
6.34 -0.998695
6.35 -0.991886
6.36 -0.981169
6.37 -0.963138
6.38 -0.935894
6.39 -0.895488
6.4 -0.838323
6.41 -0.762054
6.42 -0.660334
6.43 -0.533569
6.44 -0.375715
6.45 -0.187148
6.46 0.0334766
6.47 0.287801
6.48 0.571133
6.49 0.885463
6.5 1.22278
6.51 1.58007
6.52 1.9503
6.53 2.32623
6.54 2.69942
6.55 3.06215
6.56 3.40391
6.57 3.71727
6.58 3.99418
6.59 4.22436
6.6 4.40695
6.61 4.52827
6.62 4.59303
6.63 4.59472
6.64 4.53409
6.65 4.41603
6.66 4.23723
6.67 4.01059
6.68 3.73654
6.69 3.42652
6.7 3.08793
6.71 2.72913
6.72 2.36044
6.73 1.99024
6.74 1.62707
6.75 1.27889
6.76 0.952633
6.77 0.651983
6.78 0.384808
6.79 0.149151
6.8 -0.0495266
6.81 -0.214017
6.82 -0.345027
6.83 -0.443166
6.84 -0.514629
6.85 -0.558996
6.86 -0.583802
6.87 -0.591343
6.88 -0.586096
6.89 -0.572088
6.9 -0.551938
6.91 -0.52907
6.92 -0.505376
6.93 -0.482558
6.94 -0.461571
6.95 -0.44309
6.96 -0.426944
6.97 -0.413294
6.98 -0.401423
6.99 -0.391035
7 -0.381669
7.01 -0.373013
7.02 -0.365061
7.03 -0.357868
7.04 -0.351952
7.05 -0.347879
7.06 -0.346429
7.07 -0.348782
7.08 -0.355399
7.09 -0.368002
7.1 -0.386539
7.11 -0.411992
7.12 -0.44451
7.13 -0.483578
7.14 -0.529444
7.15 -0.580351
7.16 -0.635684
7.17 -0.693544
7.18 -0.752366
7.19 -0.810188
7.2 -0.865487
7.21 -0.91594
7.22 -0.960725
7.23 -0.998257
7.24 -1.02777
7.25 -1.04938
7.26 -1.06216
7.27 -1.06779
7.28 -1.06628
7.29 -1.05938
7.3 -1.04838
7.31 -1.03474
7.32 -1.02009
7.33 -1.00579
7.34 -0.992897
7.35 -0.982224
7.36 -0.974081
7.37 -0.968168
7.38 -0.964
7.39 -0.960239
7.4 -0.955287
7.41 -0.947214
7.42 -0.933967
7.43 -0.912722
7.44 -0.882323
7.45 -0.838962
7.46 -0.782656
7.47 -0.711163
7.48 -0.623912
7.49 -0.52176
7.5 -0.403544
7.51 -0.272729
7.52 -0.129795
7.53 0.0216172
7.54 0.178651
7.55 0.337686
7.56 0.495101
7.57 0.646298
7.58 0.788328
7.59 0.917029
7.6 1.02911
7.61 1.1231
7.62 1.1943
7.63 1.24446
7.64 1.27013
7.65 1.27311
7.66 1.25383
7.67 1.21247
7.68 1.1531
7.69 1.07532
7.7 0.984222
7.71 0.881539
7.72 0.770642
7.73 0.654731
7.74 0.536515
7.75 0.418937
7.76 0.304699
7.77 0.195902
7.78 0.0943909
7.79 0.00235968
7.8 -0.0800834
7.81 -0.150337
7.82 -0.209422
7.83 -0.256187
7.84 -0.290754
7.85 -0.314066
7.86 -0.325242
7.87 -0.326621
7.88 -0.317908
7.89 -0.301002
7.9 -0.277035
7.91 -0.247204
7.92 -0.213554
7.93 -0.17732
7.94 -0.140565
7.95 -0.104937
7.96 -0.0722912
7.97 -0.0439409
7.98 -0.0221742
7.99 -0.00735466
8 -0.00149013
8.01 -0.00475537
8.02 -0.0176447
8.03 -0.0408268
8.04 -0.0729438
8.05 -0.114749
8.06 -0.163997
8.07 -0.220033
8.08 -0.281166
8.09 -0.345589
8.1 -0.411737
8.11 -0.477727
8.12 -0.541854
8.13 -0.602748
8.14 -0.659284
8.15 -0.71024
8.16 -0.755753
8.17 -0.794757
8.18 -0.828295
8.19 -0.856429
8.2 -0.879998
8.21 -0.900069
8.22 -0.917253
8.23 -0.932773
8.24 -0.947136
8.25 -0.960859
8.26 -0.973981
8.27 -0.986024
8.28 -0.996312
8.29 -1.00301
8.3 -1.00474
8.31 -0.998911
8.32 -0.982786
8.33 -0.954467
8.34 -0.909128
8.35 -0.846517
8.36 -0.761937
8.37 -0.654927
8.38 -0.524116
8.39 -0.367483
8.4 -0.188127
8.41 0.0162412
8.42 0.240107
8.43 0.481856
8.44 0.736905
8.45 1.00006
8.46 1.2661
8.47 1.52897
8.48 1.78187
8.49 2.01907
8.5 2.23492
8.51 2.42201
8.52 2.57911
8.53 2.69687
8.54 2.77743
8.55 2.81617
8.56 2.81263
8.57 2.76978
8.58 2.6843
8.59 2.56457
8.6 2.40998
8.61 2.22761
8.62 2.02197
8.63 1.79774
8.64 1.56205
8.65 1.31934
8.66 1.07597
8.67 0.836791
8.68 0.606718
8.69 0.388757
8.7 0.188189
8.71 0.00495363
8.72 -0.157053
8.73 -0.298414
8.74 -0.418896
8.75 -0.517835
8.76 -0.598592
8.77 -0.659992
8.78 -0.706503
8.79 -0.73915
8.8 -0.760597
8.81 -0.773698
8.82 -0.78004
8.83 -0.782658
8.84 -0.783151
8.85 -0.783494
8.86 -0.785038
8.87 -0.789127
8.88 -0.79622
8.89 -0.807356
8.9 -0.822206
8.91 -0.840969
8.92 -0.863277
8.93 -0.888454
8.94 -0.916126
8.95 -0.945222
8.96 -0.975073
8.97 -1.00475
8.98 -1.03351
8.99 -1.06046
9 -1.0852
9.01 -1.10678
9.02 -1.12519
9.03 -1.13996
9.04 -1.15096
9.05 -1.15841
9.06 -1.16197
9.07 -1.16236
9.08 -1.15941
9.09 -1.15367
9.1 -1.14536
9.11 -1.13458
9.12 -1.12176
9.13 -1.10666
9.14 -1.08955
9.15 -1.07015
9.16 -1.04821
9.17 -1.02361
9.18 -0.995558
9.19 -0.964122
9.2 -0.928465
9.21 -0.888517
9.22 -0.844042
9.23 -0.794663
9.24 -0.741015
9.25 -0.682778
9.26 -0.621124
9.27 -0.556609
9.28 -0.490418
9.29 -0.423824
9.3 -0.358455
9.31 -0.295662
9.32 -0.237456
9.33 -0.185207
9.34 -0.140328
9.35 -0.104731
9.36 -0.078332
9.37 -0.0633905
9.38 -0.0587447
9.39 -0.0650337
9.4 -0.0816101
9.41 -0.106969
9.42 -0.14077
9.43 -0.180276
9.44 -0.224267
9.45 -0.270322
9.46 -0.316536
9.47 -0.360702
9.48 -0.401408
9.49 -0.436391
9.5 -0.465206
9.51 -0.486676
9.52 -0.500502
9.53 -0.507293
9.54 -0.506766
9.55 -0.500867
9.56 -0.490259
9.57 -0.47687
9.58 -0.462246
9.59 -0.448207
9.6 -0.436159
9.61 -0.428027
9.62 -0.424491
9.63 -0.426697
9.64 -0.435139
9.65 -0.449511
9.66 -0.470298
9.67 -0.496025
9.68 -0.526391
9.69 -0.559934
9.7 -0.595532
9.71 -0.631925
9.72 -0.667944
9.73 -0.702352
9.74 -0.734482
9.75 -0.763547
9.76 -0.789101
9.77 -0.811181
9.78 -0.829262
9.79 -0.843952
9.8 -0.854899
9.81 -0.862341
9.82 -0.866092
9.83 -0.865394
9.84 -0.86
9.85 -0.847787
9.86 -0.827946
9.87 -0.79791
9.88 -0.755043
9.89 -0.697693
9.9 -0.620547
9.91 -0.52355
9.92 -0.401387
9.93 -0.253226
9.94 -0.0773167
9.95 0.129359
9.96 0.363575
9.97 0.628826
9.98 0.919222
9.99 1.23353
10 1.56704
10.01 1.91371
10.02 2.26817
10.03 2.62266
10.04 2.96946
10.05 3.30097
10.06 3.61002
10.07 3.88694
10.08 4.12921
10.09 4.32484
10.1 4.47504
10.11 4.57341
10.12 4.61812
10.13 4.61232
10.14 4.55048
10.15 4.4429
10.16 4.28798
10.17 4.0942
10.18 3.86715
10.19 3.61211
10.2 3.33858
10.21 3.05151
10.22 2.75952
10.23 2.46847
10.24 2.18467
10.25 1.91211
10.26 1.65691
10.27 1.41951
10.28 1.20407
10.29 1.0101
10.3 0.837578
10.31 0.686978
10.32 0.554486
10.33 0.44076
10.34 0.34109
10.35 0.254028
10.36 0.176788
10.37 0.106543
10.38 0.0417499
10.39 -0.0201427
10.4 -0.0803213
10.41 -0.140078
10.42 -0.200106
10.43 -0.260866
10.44 -0.322359
10.45 -0.384524
10.46 -0.446931
10.47 -0.509144
10.48 -0.570587
10.49 -0.630821
10.5 -0.689082
10.51 -0.745192
10.52 -0.798462
10.53 -0.848706
10.54 -0.89564
10.55 -0.938742
10.56 -0.978204
10.57 -1.01315
10.58 -1.04386
10.59 -1.06974
10.6 -1.09044
10.61 -1.10598
10.62 -1.11526
10.63 -1.11885
10.64 -1.11579
10.65 -1.10638
10.66 -1.09062
10.67 -1.06827
10.68 -1.0404
10.69 -1.00676
10.7 -0.968856
10.71 -0.92734
10.72 -0.883463
10.73 -0.838534
10.74 -0.793964
10.75 -0.751027
10.76 -0.711297
10.77 -0.675865
10.78 -0.645724
10.79 -0.622193
10.8 -0.605083
10.81 -0.595782
10.82 -0.593356
10.83 -0.598039
10.84 -0.609274
10.85 -0.62597
10.86 -0.647858
10.87 -0.673241
10.88 -0.701453
10.89 -0.7312
10.9 -0.761555
10.91 -0.791574
10.92 -0.820632
10.93 -0.847975
10.94 -0.873464
10.95 -0.896824
10.96 -0.918073
10.97 -0.9375
10.98 -0.955167
10.99 -0.971653
11 -0.987197
11.01 -1.00224
11.02 -1.01707
11.03 -1.03195
11.04 -1.04699
11.05 -1.06226
11.06 -1.07766
11.07 -1.09304
11.08 -1.10813
11.09 -1.12269
11.1 -1.13628
11.11 -1.14869
11.12 -1.15948
11.13 -1.16841
11.14 -1.17524
11.15 -1.17953
11.16 -1.18132
11.17 -1.1799
11.18 -1.17534
11.19 -1.16699
11.2 -1.15427
11.21 -1.13686
11.22 -1.11313
11.23 -1.08298
11.24 -1.04443
11.25 -0.996633
11.26 -0.938345
11.27 -0.867281
11.28 -0.783669
11.29 -0.684222
11.3 -0.569958
11.31 -0.439348
11.32 -0.292254
11.33 -0.130173
11.34 0.0478625
11.35 0.238041
11.36 0.439516
11.37 0.648533
11.38 0.86186
11.39 1.07539
11.4 1.28519
11.41 1.48569
11.42 1.67346
11.43 1.84339
11.44 1.991
11.45 2.11452
11.46 2.20709
11.47 2.27089
11.48 2.30095
11.49 2.29889
11.5 2.26521
11.51 2.19926
11.52 2.10672
11.53 1.98666
11.54 1.84607
11.55 1.68752
11.56 1.51573
11.57 1.33564
11.58 1.15112
11.59 0.966786
11.6 0.786513
11.61 0.613465
11.62 0.450065
11.63 0.299204
11.64 0.160635
11.65 0.0369701
11.66 -0.0736342
11.67 -0.170887
11.68 -0.255893
11.69 -0.330742
11.7 -0.395811
11.71 -0.454092
11.72 -0.506443
11.73 -0.554819
11.74 -0.600426
11.75 -0.644175
11.76 -0.686861
11.77 -0.728615
11.78 -0.76945
11.79 -0.808878
11.8 -0.84609
11.81 -0.880361
11.82 -0.909942
11.83 -0.934283
11.84 -0.95143
11.85 -0.960516
11.86 -0.960521
11.87 -0.949712
11.88 -0.928616
11.89 -0.895035
11.9 -0.850219
11.91 -0.79346
11.92 -0.72505
11.93 -0.646312
11.94 -0.556709
11.95 -0.458792
11.96 -0.352854
11.97 -0.240927
11.98 -0.124552
11.99 -0.00539148
12 0.114533
12.01 0.233203
12.02 0.348781
12.03 0.45918
12.04 0.562285
12.05 0.656963
12.06 0.740046
12.07 0.811712
12.08 0.869262
12.09 0.912482
12.1 0.940799
12.11 0.952752
12.12 0.950216
12.13 0.931357
12.14 0.898927
12.15 0.853159
12.16 0.795614
12.17 0.728699
12.18 0.653321
12.19 0.572704
12.2 0.488417
12.21 0.402924
12.22 0.318095
12.23 0.236
12.24 0.157721
12.25 0.0851591
12.26 0.0184283
12.27 -0.04173
12.28 -0.0953041
12.29 -0.143109
12.3 -0.185133
12.31 -0.223137
12.32 -0.257818
12.33 -0.290684
12.34 -0.322883
12.35 -0.355617
12.36 -0.389652
12.37 -0.425873
