# xPDFsuite Configuration #
[PDF]
wavelength = 0.1432
dataformat = twotheta
inputfile = 1_1Pd_CeO2_cycle-00490.chi
backgroundfile = background-00000.chi
mode = xray
bgscale = 1.007
composition = CeO2
outputtype = gr
qmaxinst = 28.8974762299
qmin = 0.5
qmax = 27.9
rmax = 50.0
rmin = 0.0
rstep = 0.01
rpoly = 1.8657

[Misc]
inputdir = G:/SankarDec16/1Pd/Chi
savedir = D:/DATA/APS_CeO2/1Pd
backgroundfilefull = G:/SankarDec16/Background/background-00000.chi

#### start data
#S 1
#L r($\AA$)  G($\AA^{-2}$)
0 0
0.01 -0.00488263
0.02 -0.00939639
0.03 -0.0131615
0.04 -0.0158922
0.05 -0.0174296
0.06 -0.0175184
0.07 -0.0163298
0.08 -0.0137826
0.09 -0.0102027
0.1 -0.00581618
0.11 -0.000968388
0.12 0.00396514
0.13 0.00856199
0.14 0.0125249
0.15 0.0154889
0.16 0.0172414
0.17 0.0176989
0.18 0.0166893
0.19 0.0144654
0.2 0.0110398
0.21 0.00679347
0.22 0.00200825
0.23 -0.00292766
0.24 -0.00766155
0.25 -0.0117384
0.26 -0.0149471
0.27 -0.0169554
0.28 -0.0176349
0.29 -0.0169814
0.3 -0.0149149
0.31 -0.0117573
0.32 -0.00761487
0.33 -0.00290472
0.34 0.00204923
0.35 0.00683485
0.36 0.0111399
0.37 0.014499
0.38 0.016798
0.39 0.0177541
0.4 0.0173294
0.41 0.0155996
0.42 0.0125811
0.43 0.00864946
0.44 0.00399936
0.45 -0.000936096
0.46 -0.00580703
0.47 -0.0101974
0.48 -0.0138512
0.49 -0.0163159
0.5 -0.0175801
0.51 -0.0174248
0.52 -0.0159049
0.53 -0.0131729
0.54 -0.00934116
0.55 -0.00482056
0.56 0.000114983
0.57 0.00503749
0.58 0.00958856
0.59 0.0133686
0.6 0.016191
0.61 0.0176387
0.62 0.0178039
0.63 0.0165429
0.64 0.0140013
0.65 0.0104011
0.66 0.00594589
0.67 0.00106171
0.68 -0.00391149
0.69 -0.00857181
0.7 -0.0125702
0.71 -0.015543
0.72 -0.0173827
0.73 -0.0177282
0.74 -0.0167712
0.75 -0.0144503
0.76 -0.0109944
0.77 -0.00668403
0.78 -0.00180322
0.79 0.0032282
0.8 0.00802259
0.81 0.0122245
0.82 0.0155128
0.83 0.0175793
0.84 0.0184008
0.85 0.0176923
0.86 0.015734
0.87 0.0125499
0.88 0.00843949
0.89 0.00372468
0.9 -0.00124763
0.91 -0.00608966
0.92 -0.0103931
0.93 -0.0138733
0.94 -0.0162626
0.95 -0.0173354
0.96 -0.0171603
0.97 -0.0155632
0.98 -0.0129003
0.99 -0.00929715
1 -0.00511579
1.01 -0.000706731
1.02 0.00352237
1.03 0.00724876
1.04 0.010054
1.05 0.0117572
1.06 0.0121684
1.07 0.0111756
1.08 0.00896484
1.09 0.00551475
1.1 0.00127744
1.11 -0.00347842
1.12 -0.00829539
1.13 -0.0127692
1.14 -0.016369
1.15 -0.0188349
1.16 -0.0196616
1.17 -0.0187633
1.18 -0.0159833
1.19 -0.0112719
1.2 -0.00495124
1.21 0.00294541
1.22 0.0118023
1.23 0.021251
1.24 0.0307037
1.25 0.0396518
1.26 0.0474203
1.27 0.0536891
1.28 0.0577974
1.29 0.0596109
1.3 0.0588751
1.31 0.0554255
1.32 0.0495946
1.33 0.0411995
1.34 0.0309405
1.35 0.0190419
1.36 0.00607727
1.37 -0.00742685
1.38 -0.0209106
1.39 -0.0338839
1.4 -0.0457653
1.41 -0.056227
1.42 -0.0649161
1.43 -0.0715027
1.44 -0.0760674
1.45 -0.0781985
1.46 -0.0782922
1.47 -0.0762486
1.48 -0.0723038
1.49 -0.0667159
1.5 -0.0595646
1.51 -0.05127
1.52 -0.0419194
1.53 -0.0318379
1.54 -0.0212017
1.55 -0.0102068
1.56 0.000945037
1.57 0.0120717
1.58 0.0229939
1.59 0.0334984
1.6 0.0433689
1.61 0.052419
1.62 0.0602759
1.63 0.0668441
1.64 0.0716594
1.65 0.0746107
1.66 0.0754233
1.67 0.0738029
1.68 0.0698741
1.69 0.063173
1.7 0.0541516
1.71 0.0427215
1.72 0.0292215
1.73 0.0140574
1.74 -0.00243996
1.75 -0.0196071
1.76 -0.0369257
1.77 -0.0537652
1.78 -0.06956
1.79 -0.0836725
1.8 -0.0958586
1.81 -0.105377
1.82 -0.112408
1.83 -0.116635
1.84 -0.118227
1.85 -0.117499
1.86 -0.11462
1.87 -0.110315
1.88 -0.10498
1.89 -0.0993292
1.9 -0.0939184
1.91 -0.0893731
1.92 -0.0860299
1.93 -0.084504
1.94 -0.0847289
1.95 -0.0869152
1.96 -0.0908688
1.97 -0.0962496
1.98 -0.102708
1.99 -0.109572
2 -0.116204
2.01 -0.121902
2.02 -0.125976
2.03 -0.12763
2.04 -0.126583
2.05 -0.121828
2.06 -0.113583
2.07 -0.10133
2.08 -0.0851519
2.09 -0.0653157
2.1 -0.0417019
2.11 -0.0151224
2.12 0.0143927
2.13 0.0461207
2.14 0.0797009
2.15 0.114749
2.16 0.150801
2.17 0.187708
2.18 0.225144
2.19 0.263034
2.2 0.301282
2.21 0.339829
2.22 0.378645
2.23 0.417605
2.24 0.456542
2.25 0.495155
2.26 0.53303
2.27 0.569491
2.28 0.604017
2.29 0.635254
2.3 0.662694
2.31 0.684905
2.32 0.700851
2.33 0.709838
2.34 0.71004
2.35 0.701897
2.36 0.683749
2.37 0.656305
2.38 0.619497
2.39 0.573568
2.4 0.520264
2.41 0.459771
2.42 0.394705
2.43 0.326405
2.44 0.25707
2.45 0.188582
2.46 0.123268
2.47 0.0624115
2.48 0.00825289
2.49 -0.0385668
2.5 -0.0771314
2.51 -0.106752
2.52 -0.128459
2.53 -0.141574
2.54 -0.148358
2.55 -0.149531
2.56 -0.146967
2.57 -0.142415
2.58 -0.137669
2.59 -0.134327
2.6 -0.134133
2.61 -0.138009
2.62 -0.14679
2.63 -0.161069
2.64 -0.180211
2.65 -0.204461
2.66 -0.232172
2.67 -0.262473
2.68 -0.29375
2.69 -0.324551
2.7 -0.353079
2.71 -0.378311
2.72 -0.398574
2.73 -0.413453
2.74 -0.422419
2.75 -0.425248
2.76 -0.422964
2.77 -0.41568
2.78 -0.405329
2.79 -0.393072
2.8 -0.380715
2.81 -0.369776
2.82 -0.362195
2.83 -0.3588
2.84 -0.361233
2.85 -0.369605
2.86 -0.384182
2.87 -0.404822
2.88 -0.430174
2.89 -0.459618
2.9 -0.490989
2.91 -0.522691
2.92 -0.552666
2.93 -0.579292
2.94 -0.600283
2.95 -0.615092
2.96 -0.62189
2.97 -0.620926
2.98 -0.61213
2.99 -0.595915
3 -0.574089
3.01 -0.54754
3.02 -0.518887
3.03 -0.490034
3.04 -0.463346
3.05 -0.440622
3.06 -0.424375
3.07 -0.41509
3.08 -0.414667
3.09 -0.422669
3.1 -0.439016
3.11 -0.463077
3.12 -0.492799
3.13 -0.527035
3.14 -0.563
3.15 -0.598612
3.16 -0.631446
3.17 -0.659753
3.18 -0.681099
3.19 -0.695278
3.2 -0.70071
3.21 -0.698241
3.22 -0.688408
3.23 -0.672434
3.24 -0.652659
3.25 -0.631078
3.26 -0.610471
3.27 -0.593455
3.28 -0.582545
3.29 -0.579349
3.3 -0.586487
3.31 -0.603423
3.32 -0.631594
3.33 -0.669313
3.34 -0.715409
3.35 -0.767842
3.36 -0.823537
3.37 -0.879526
3.38 -0.932558
3.39 -0.979272
3.4 -1.01677
3.41 -1.04338
3.42 -1.05609
3.43 -1.05609
3.44 -1.04197
3.45 -1.01624
3.46 -0.980675
3.47 -0.938101
3.48 -0.892345
3.49 -0.847161
3.5 -0.806179
3.51 -0.773123
3.52 -0.750769
3.53 -0.740275
3.54 -0.74367
3.55 -0.758374
3.56 -0.783482
3.57 -0.814152
3.58 -0.84559
3.59 -0.870689
3.6 -0.883517
3.61 -0.872953
3.62 -0.834408
3.63 -0.757799
3.64 -0.636666
3.65 -0.468026
3.66 -0.242159
3.67 0.0350066
3.68 0.369656
3.69 0.75358
3.7 1.18243
3.71 1.64912
3.72 2.14055
3.73 2.64713
3.74 3.15336
3.75 3.64527
3.76 4.10767
3.77 4.52915
3.78 4.89025
3.79 5.1882
3.8 5.40478
3.81 5.53993
3.82 5.58833
3.83 5.54511
3.84 5.42151
3.85 5.20937
3.86 4.92877
3.87 4.58288
3.88 4.18549
3.89 3.75051
3.9 3.2888
3.91 2.81649
3.92 2.34574
3.93 1.88876
3.94 1.45565
3.95 1.05714
3.96 0.695663
3.97 0.382693
3.98 0.113637
3.99 -0.107235
4 -0.282695
4.01 -0.417773
4.02 -0.512911
4.03 -0.578444
4.04 -0.616628
4.05 -0.63606
4.06 -0.641904
4.07 -0.639559
4.08 -0.634078
4.09 -0.629231
4.1 -0.62766
4.11 -0.631338
4.12 -0.640948
4.13 -0.656075
4.14 -0.676327
4.15 -0.699622
4.16 -0.724398
4.17 -0.748386
4.18 -0.769622
4.19 -0.78585
4.2 -0.796115
4.21 -0.797974
4.22 -0.791806
4.23 -0.776522
4.24 -0.752366
4.25 -0.720136
4.26 -0.679707
4.27 -0.633026
4.28 -0.580342
4.29 -0.523249
4.3 -0.462603
4.31 -0.399231
4.32 -0.334077
4.33 -0.267488
4.34 -0.200071
4.35 -0.132022
4.36 -0.0635713
4.37 0.00510706
4.38 0.0738016
4.39 0.142224
4.4 0.20987
4.41 0.276153
4.42 0.340274
4.43 0.401008
4.44 0.457646
4.45 0.508013
4.46 0.551641
4.47 0.58661
4.48 0.611751
4.49 0.626568
4.5 0.628929
4.51 0.620019
4.52 0.598218
4.53 0.56489
4.54 0.520474
4.55 0.465648
4.56 0.402761
4.57 0.332362
4.58 0.257374
4.59 0.179314
4.6 0.100377
4.61 0.022322
4.62 -0.0527972
4.63 -0.123997
4.64 -0.189558
4.65 -0.249121
4.66 -0.302175
4.67 -0.348322
4.68 -0.388497
4.69 -0.42227
4.7 -0.451262
4.71 -0.47589
4.72 -0.497242
4.73 -0.516318
4.74 -0.533817
4.75 -0.550633
4.76 -0.567255
4.77 -0.584079
4.78 -0.60127
4.79 -0.618829
4.8 -0.636565
4.81 -0.654172
4.82 -0.671294
4.83 -0.687492
4.84 -0.702364
4.85 -0.715674
4.86 -0.726964
4.87 -0.736387
4.88 -0.743703
4.89 -0.749222
4.9 -0.753146
4.91 -0.755778
4.92 -0.75761
4.93 -0.758992
4.94 -0.760398
4.95 -0.762191
4.96 -0.764688
4.97 -0.768043
4.98 -0.77248
4.99 -0.777858
5 -0.784209
5.01 -0.791285
5.02 -0.798895
5.03 -0.806804
5.04 -0.814772
5.05 -0.822581
5.06 -0.830102
5.07 -0.837217
5.08 -0.843892
5.09 -0.850152
5.1 -0.855976
5.11 -0.86143
5.12 -0.866421
5.13 -0.87084
5.14 -0.874417
5.15 -0.876609
5.16 -0.876975
5.17 -0.874228
5.18 -0.867732
5.19 -0.85593
5.2 -0.837413
5.21 -0.811187
5.22 -0.774662
5.23 -0.727921
5.24 -0.668401
5.25 -0.596252
5.26 -0.510859
5.27 -0.411632
5.28 -0.300565
5.29 -0.177036
5.3 -0.0445869
5.31 0.0952037
5.32 0.239029
5.33 0.383615
5.34 0.524819
5.35 0.659406
5.36 0.782407
5.37 0.890839
5.38 0.981253
5.39 1.04947
5.4 1.09574
5.41 1.11457
5.42 1.10904
5.43 1.07718
5.44 1.02053
5.45 0.942041
5.46 0.842046
5.47 0.726479
5.48 0.597187
5.49 0.459474
5.5 0.317132
5.51 0.174534
5.52 0.0352223
5.53 -0.0962716
5.54 -0.218067
5.55 -0.327048
5.56 -0.42164
5.57 -0.501724
5.58 -0.565266
5.59 -0.614856
5.6 -0.649672
5.61 -0.67236
5.62 -0.684369
5.63 -0.687298
5.64 -0.683862
5.65 -0.675103
5.66 -0.663391
5.67 -0.649779
5.68 -0.635367
5.69 -0.620738
5.7 -0.606104
5.71 -0.591321
5.72 -0.575893
5.73 -0.559174
5.74 -0.5404
5.75 -0.518562
5.76 -0.493322
5.77 -0.463482
5.78 -0.429378
5.79 -0.390666
5.8 -0.347811
5.81 -0.301679
5.82 -0.253066
5.83 -0.203571
5.84 -0.154706
5.85 -0.108179
5.86 -0.0656435
5.87 -0.0291532
5.88 0.000574698
5.89 0.0209909
5.9 0.0324503
5.91 0.0336563
5.92 0.0246094
5.93 0.006076
5.94 -0.0223755
5.95 -0.0584905
5.96 -0.101965
5.97 -0.150713
5.98 -0.20335
5.99 -0.258323
6 -0.314033
6.01 -0.36908
6.02 -0.422432
6.03 -0.473106
6.04 -0.52052
6.05 -0.564581
6.06 -0.604857
6.07 -0.642062
6.08 -0.676211
6.09 -0.708085
6.1 -0.73819
6.11 -0.767055
6.12 -0.795242
6.13 -0.823038
6.14 -0.850678
6.15 -0.878149
6.16 -0.90526
6.17 -0.93172
6.18 -0.956911
6.19 -0.980481
6.2 -1.00162
6.21 -1.01995
6.22 -1.03502
6.23 -1.04632
6.24 -1.05413
6.25 -1.05795
6.26 -1.05856
6.27 -1.05609
6.28 -1.05117
6.29 -1.04442
6.3 -1.03623
6.31 -1.02715
6.32 -1.01723
6.33 -1.00633
6.34 -0.993911
6.35 -0.978711
6.36 -0.959637
6.37 -0.933725
6.38 -0.89939
6.39 -0.853094
6.4 -0.791559
6.41 -0.712593
6.42 -0.610277
6.43 -0.484845
6.44 -0.330546
6.45 -0.147531
6.46 0.065635
6.47 0.310728
6.48 0.583494
6.49 0.886088
6.5 1.21105
6.51 1.55571
6.52 1.91353
6.53 2.27766
6.54 2.64024
6.55 2.99373
6.56 3.32818
6.57 3.63632
6.58 3.9103
6.59 4.14008
6.6 4.32458
6.61 4.45041
6.62 4.52177
6.63 4.5321
6.64 4.48175
6.65 4.37518
6.66 4.20875
6.67 3.99481
6.68 3.73332
6.69 3.43529
6.7 3.1077
6.71 2.75847
6.72 2.39779
6.73 2.03355
6.74 1.67446
6.75 1.3283
6.76 1.0021
6.77 0.699798
6.78 0.429334
6.79 0.189259
6.8 -0.0147458
6.81 -0.18501
6.82 -0.321888
6.83 -0.425591
6.84 -0.502054
6.85 -0.550463
6.86 -0.57829
6.87 -0.587642
6.88 -0.582984
6.89 -0.568467
6.9 -0.546736
6.91 -0.521559
6.92 -0.495013
6.93 -0.469155
6.94 -0.44523
6.95 -0.424264
6.96 -0.406286
6.97 -0.391825
6.98 -0.380186
6.99 -0.371243
7 -0.364519
7.01 -0.359562
7.02 -0.356312
7.03 -0.354468
7.04 -0.35433
7.05 -0.356092
7.06 -0.360218
7.07 -0.3675
7.08 -0.378196
7.09 -0.393602
7.1 -0.413654
7.11 -0.439129
7.12 -0.470177
7.13 -0.506434
7.14 -0.548162
7.15 -0.594011
7.16 -0.643553
7.17 -0.695302
7.18 -0.748025
7.19 -0.80016
7.2 -0.850436
7.21 -0.896959
7.22 -0.938974
7.23 -0.975116
7.24 -1.00465
7.25 -1.02756
7.26 -1.04295
7.27 -1.0521
7.28 -1.05484
7.29 -1.05255
7.3 -1.04617
7.31 -1.0368
7.32 -1.0258
7.33 -1.01415
7.34 -1.0028
7.35 -0.99239
7.36 -0.983195
7.37 -0.975045
7.38 -0.967475
7.39 -0.959525
7.4 -0.949801
7.41 -0.936775
7.42 -0.918732
7.43 -0.893264
7.44 -0.859458
7.45 -0.81397
7.46 -0.756867
7.47 -0.686147
7.48 -0.601272
7.49 -0.502962
7.5 -0.390075
7.51 -0.265656
7.52 -0.130007
7.53 0.0136699
7.54 0.162873
7.55 0.314421
7.56 0.464995
7.57 0.610487
7.58 0.748076
7.59 0.873898
7.6 0.984773
7.61 1.07916
7.62 1.1525
7.63 1.20615
7.64 1.23663
7.65 1.24534
7.66 1.23242
7.67 1.19773
7.68 1.14499
7.69 1.07346
7.7 0.988018
7.71 0.890142
7.72 0.783055
7.73 0.669946
7.74 0.553387
7.75 0.436532
7.76 0.322085
7.77 0.212381
7.78 0.109435
7.79 0.015637
7.8 -0.0686907
7.81 -0.140763
7.82 -0.201461
7.83 -0.249514
7.84 -0.284979
7.85 -0.308809
7.86 -0.320113
7.87 -0.321351
7.88 -0.312302
7.89 -0.29501
7.9 -0.27073
7.91 -0.240803
7.92 -0.207348
7.93 -0.17174
7.94 -0.136026
7.95 -0.10189
7.96 -0.0711395
7.97 -0.0449931
7.98 -0.0256496
7.99 -0.0133106
8 -0.00983252
8.01 -0.0152343
8.02 -0.0298719
8.03 -0.0542528
8.04 -0.0869938
8.05 -0.128694
8.06 -0.177192
8.07 -0.23182
8.08 -0.290974
8.09 -0.352987
8.1 -0.416398
8.11 -0.479522
8.12 -0.540808
8.13 -0.599049
8.14 -0.653254
8.15 -0.702338
8.16 -0.746454
8.17 -0.784645
8.18 -0.81786
8.19 -0.846138
8.2 -0.870209
8.21 -0.891004
8.22 -0.908994
8.23 -0.925246
8.24 -0.94011
8.25 -0.953989
8.26 -0.966834
8.27 -0.978086
8.28 -0.987123
8.29 -0.992092
8.3 -0.991765
8.31 -0.983674
8.32 -0.965275
8.33 -0.934855
8.34 -0.887853
8.35 -0.824155
8.36 -0.739335
8.37 -0.633032
8.38 -0.503983
8.39 -0.350286
8.4 -0.174904
8.41 0.0243671
8.42 0.242298
8.43 0.4774
8.44 0.725355
8.45 0.981251
8.46 1.24017
8.47 1.49633
8.48 1.74328
8.49 1.97548
8.5 2.1875
8.51 2.37217
8.52 2.52819
8.53 2.64647
8.54 2.72889
8.55 2.77084
8.56 2.77171
8.57 2.73421
8.58 2.65487
8.59 2.54175
8.6 2.39404
8.61 2.21855
8.62 2.01959
8.63 1.80162
8.64 1.57166
8.65 1.33396
8.66 1.09489
8.67 0.859204
8.68 0.631833
8.69 0.415848
8.7 0.216485
8.71 0.0338423
8.72 -0.128195
8.73 -0.2701
8.74 -0.39159
8.75 -0.491967
8.76 -0.574508
8.77 -0.638051
8.78 -0.686986
8.79 -0.72233
8.8 -0.746703
8.81 -0.762908
8.82 -0.77249
8.83 -0.778401
8.84 -0.782156
8.85 -0.785628
8.86 -0.790063
8.87 -0.796661
8.88 -0.805816
8.89 -0.818376
8.9 -0.834002
8.91 -0.852783
8.92 -0.874321
8.93 -0.897993
8.94 -0.923387
8.95 -0.949623
8.96 -0.976099
8.97 -1.0021
8.98 -1.02705
8.99 -1.0503
9 -1.07162
9.01 -1.09033
9.02 -1.10655
9.03 -1.11995
9.04 -1.13052
9.05 -1.13845
9.06 -1.14348
9.07 -1.14611
9.08 -1.14615
9.09 -1.14385
9.1 -1.13927
9.11 -1.13223
9.12 -1.12293
9.13 -1.11085
9.14 -1.09612
9.15 -1.07827
9.16 -1.05695
9.17 -1.03209
9.18 -1.0028
9.19 -0.969412
9.2 -0.931179
9.21 -0.888309
9.22 -0.840804
9.23 -0.788587
9.24 -0.732513
9.25 -0.672595
9.26 -0.6101
9.27 -0.545768
9.28 -0.480835
9.29 -0.416478
9.3 -0.354329
9.31 -0.295416
9.32 -0.24157
9.33 -0.193805
9.34 -0.153223
9.35 -0.121349
9.36 -0.0978722
9.37 -0.0846249
9.38 -0.0804035
9.39 -0.0856471
9.4 -0.0997034
9.41 -0.121243
9.42 -0.149973
9.43 -0.183606
9.44 -0.221197
9.45 -0.260798
9.46 -0.300916
9.47 -0.339857
9.48 -0.376477
9.49 -0.40907
9.5 -0.437219
9.51 -0.459995
9.52 -0.477091
9.53 -0.48888
9.54 -0.495022
9.55 -0.496878
9.56 -0.494776
9.57 -0.490044
9.58 -0.483717
9.59 -0.47698
9.6 -0.470894
9.61 -0.466699
9.62 -0.465022
9.63 -0.466689
9.64 -0.472173
9.65 -0.481432
9.66 -0.494973
9.67 -0.512003
9.68 -0.532567
9.69 -0.555893
9.7 -0.581438
9.71 -0.608643
9.72 -0.636764
9.73 -0.665307
9.74 -0.693711
9.75 -0.721549
9.76 -0.748423
9.77 -0.774103
9.78 -0.798062
9.79 -0.82019
9.8 -0.839781
9.81 -0.85635
9.82 -0.869108
9.83 -0.876576
9.84 -0.878069
9.85 -0.870717
9.86 -0.853614
9.87 -0.823859
9.88 -0.778808
9.89 -0.717116
9.9 -0.633559
9.91 -0.528836
9.92 -0.398089
9.93 -0.24126
9.94 -0.0572589
9.95 0.15612
9.96 0.395241
9.97 0.662744
9.98 0.952725
9.99 1.2636
10 1.5907
10.01 1.92838
10.02 2.27143
10.03 2.61296
10.04 2.94582
10.05 3.26332
10.06 3.55907
10.07 3.82436
10.08 4.05718
10.09 4.24654
10.1 4.39372
10.11 4.49279
10.12 4.54191
10.13 4.54385
10.14 4.49304
10.15 4.39878
10.16 4.25897
10.17 4.08109
10.18 3.86989
10.19 3.62967
10.2 3.36929
10.21 3.09265
10.22 2.80819
10.23 2.52125
10.24 2.238
10.25 1.96276
10.26 1.70161
10.27 1.4559
10.28 1.23021
10.29 1.02499
10.3 0.840993
10.31 0.679614
10.32 0.537664
10.33 0.416749
10.34 0.312382
10.35 0.223594
10.36 0.147711
10.37 0.0816136
10.38 0.0237908
10.39 -0.0291699
10.4 -0.0788634
10.41 -0.127453
10.42 -0.176357
10.43 -0.226905
10.44 -0.279644
10.45 -0.335413
10.46 -0.393933
10.47 -0.455196
10.48 -0.518688
10.49 -0.583649
10.5 -0.649308
10.51 -0.714638
10.52 -0.778532
10.53 -0.839964
10.54 -0.89796
10.55 -0.951173
10.56 -0.999307
10.57 -1.04066
10.58 -1.0754
10.59 -1.10259
10.6 -1.12187
10.61 -1.1336
10.62 -1.13676
10.63 -1.13274
10.64 -1.12104
10.65 -1.10273
10.66 -1.07847
10.67 -1.0488
10.68 -1.01519
10.69 -0.978142
10.7 -0.93916
10.71 -0.899157
10.72 -0.859289
10.73 -0.820457
10.74 -0.78386
10.75 -0.749961
10.76 -0.719781
10.77 -0.693629
10.78 -0.671838
10.79 -0.654937
10.8 -0.642432
10.81 -0.634942
10.82 -0.63166
10.83 -0.63261
10.84 -0.637426
10.85 -0.645519
10.86 -0.656922
10.87 -0.670833
10.88 -0.687233
10.89 -0.705675
10.9 -0.725945
10.91 -0.747965
10.92 -0.771409
10.93 -0.796369
10.94 -0.822543
10.95 -0.849886
10.96 -0.878215
10.97 -0.907268
10.98 -0.936823
10.99 -0.966472
11 -0.995796
11.01 -1.02432
11.02 -1.05156
11.03 -1.07684
11.04 -1.09991
11.05 -1.1199
11.06 -1.13681
11.07 -1.15017
11.08 -1.15981
11.09 -1.166
11.1 -1.16842
11.11 -1.16788
11.12 -1.16444
11.13 -1.1588
11.14 -1.15144
11.15 -1.14281
11.16 -1.13343
11.17 -1.12347
11.18 -1.11305
11.19 -1.10194
11.2 -1.08957
11.21 -1.0753
11.22 -1.05751
11.23 -1.03532
11.24 -1.00642
11.25 -0.969239
11.26 -0.921948
11.27 -0.861621
11.28 -0.788027
11.29 -0.697273
11.3 -0.590211
11.31 -0.465028
11.32 -0.321521
11.33 -0.161375
11.34 0.0163951
11.35 0.207471
11.36 0.410791
11.37 0.62214
11.38 0.837926
11.39 1.05365
11.4 1.26514
11.41 1.46651
11.42 1.65429
11.43 1.82331
11.44 1.96915
11.45 2.09028
11.46 2.17999
11.47 2.24081
11.48 2.26811
11.49 2.26378
11.5 2.22863
11.51 2.16231
11.52 2.07052
11.53 1.95262
11.54 1.81539
11.55 1.6614
11.56 1.49516
11.57 1.32131
11.58 1.14349
11.59 0.965937
11.6 0.792186
11.61 0.625102
11.62 0.46687
11.63 0.320106
11.64 0.184579
11.65 0.0626956
11.66 -0.0471793
11.67 -0.144696
11.68 -0.230748
11.69 -0.307148
11.7 -0.374036
11.71 -0.4341
11.72 -0.487935
11.73 -0.537292
11.74 -0.583238
11.75 -0.626552
11.76 -0.66812
11.77 -0.708063
11.78 -0.746642
11.79 -0.783562
11.8 -0.818314
11.81 -0.85044
11.82 -0.878586
11.83 -0.902371
11.84 -0.920188
11.85 -0.931268
11.86 -0.934666
11.87 -0.928737
11.88 -0.913744
11.89 -0.887462
11.9 -0.850712
11.91 -0.802497
11.92 -0.742678
11.93 -0.672202
11.94 -0.590006
11.95 -0.498396
11.96 -0.397198
11.97 -0.288276
11.98 -0.173032
11.99 -0.0529329
12 0.0697204
12.01 0.193022
12.02 0.31466
12.03 0.432328
12.04 0.543505
12.05 0.646631
12.06 0.738111
12.07 0.817744
12.08 0.88241
12.09 0.931626
12.1 0.964613
12.11 0.979651
12.12 0.978742
12.13 0.959854
12.14 0.926047
12.15 0.877637
12.16 0.816426
12.17 0.745131
12.18 0.66487
12.19 0.579202
12.2 0.489935
12.21 0.399763
12.22 0.310717
12.23 0.225051
12.24 0.143844
12.25 0.0691367
12.26 0.000938937
12.27 -0.0600054
12.28 -0.113753
12.29 -0.161232
12.3 -0.202446
12.31 -0.239291
12.32 -0.272478
12.33 -0.303569
12.34 -0.333728
12.35 -0.364133
12.36 -0.395568
12.37 -0.428849
12.38 -0.464002
12.39 -0.501014
