# xPDFsuite Configuration #
[PDF]
wavelength = 0.1432
dataformat = twotheta
inputfile = 1_1Pd_CeO2_cycle-00339.chi
backgroundfile = background-00000.chi
mode = xray
bgscale = 1.007
composition = CeO2
outputtype = gr
qmaxinst = 28.8974762299
qmin = 0.5
qmax = 27.9
rmax = 50.0
rmin = 0.0
rstep = 0.01
rpoly = 1.8657

[Misc]
inputdir = G:/SankarDec16/1Pd/Chi
savedir = D:/DATA/APS_CeO2/1Pd
backgroundfilefull = G:/SankarDec16/Background/background-00000.chi

#### start data
#S 1
#L r($\AA$)  G($\AA^{-2}$)
0 0
0.01 -0.00690596
0.02 -0.0132916
0.03 -0.018621
0.04 -0.0224906
0.05 -0.0246761
0.06 -0.0248163
0.07 -0.0231518
0.08 -0.0195666
0.09 -0.0145197
0.1 -0.00832875
0.11 -0.00147973
0.12 0.00549725
0.13 0.0120075
0.14 0.0176297
0.15 0.0218481
0.16 0.0243609
0.17 0.0250476
0.18 0.0236623
0.19 0.0205587
0.2 0.015751
0.21 0.0097744
0.22 0.00302423
0.23 -0.00395373
0.24 -0.0106606
0.25 -0.0164559
0.26 -0.0210375
0.27 -0.0239346
0.28 -0.0249613
0.29 -0.0241073
0.3 -0.0212536
0.31 -0.0168506
0.32 -0.011042
0.33 -0.0044138
0.34 0.00257974
0.35 0.00935893
0.36 0.0154803
0.37 0.0202881
0.38 0.0236138
0.39 0.0250546
0.4 0.0245495
0.41 0.0221991
0.42 0.0180177
0.43 0.0125308
0.44 0.00600477
0.45 -0.000950845
0.46 -0.00784511
0.47 -0.0140917
0.48 -0.0193242
0.49 -0.0229032
0.5 -0.0248021
0.51 -0.0247056
0.52 -0.0226812
0.53 -0.0189358
0.54 -0.0136169
0.55 -0.00730004
0.56 -0.000362001
0.57 0.00659338
0.58 0.0130621
0.59 0.0184791
0.6 0.0225729
0.61 0.0247516
0.62 0.025132
0.63 0.0235021
0.64 0.0200549
0.65 0.0150942
0.66 0.00889376
0.67 0.00205187
0.68 -0.00496244
0.69 -0.0115798
0.7 -0.0173077
0.71 -0.0216296
0.72 -0.0243826
0.73 -0.0250507
0.74 -0.0238888
0.75 -0.0207981
0.76 -0.0160879
0.77 -0.0101433
0.78 -0.00335058
0.79 0.00369938
0.8 0.0104704
0.81 0.0164565
0.82 0.0212034
0.83 0.0242709
0.84 0.0256139
0.85 0.0248228
0.86 0.0222777
0.87 0.0180013
0.88 0.0124042
0.89 0.005933
0.9 -0.000932263
0.91 -0.00764317
0.92 -0.0136269
0.93 -0.0184744
0.94 -0.0218019
0.95 -0.0232816
0.96 -0.0229996
0.97 -0.0206989
0.98 -0.0168753
0.99 -0.0116991
1 -0.00568103
1.01 0.000679224
1.02 0.0067965
1.03 0.012198
1.04 0.0162681
1.05 0.0187254
1.06 0.0192704
1.07 0.0177049
1.08 0.0142752
1.09 0.00889165
1.1 0.00220001
1.11 -0.00545517
1.12 -0.0134255
1.13 -0.0211235
1.14 -0.0277966
1.15 -0.0330155
1.16 -0.036032
1.17 -0.0366467
1.18 -0.0345665
1.19 -0.0296256
1.2 -0.0222114
1.21 -0.0122312
1.22 -0.000519597
1.23 0.0125178
1.24 0.0261063
1.25 0.0395509
1.26 0.0519895
1.27 0.0628898
1.28 0.0713767
1.29 0.077154
1.3 0.0798109
1.31 0.0790289
1.32 0.0751383
1.33 0.0677789
1.34 0.0577816
1.35 0.0453238
1.36 0.0310705
1.37 0.0156558
1.38 -0.000306665
1.39 -0.0161453
1.4 -0.0312044
1.41 -0.0450059
1.42 -0.0570964
1.43 -0.0670371
1.44 -0.0748351
1.45 -0.0799726
1.46 -0.0828211
1.47 -0.0832092
1.48 -0.0813442
1.49 -0.0774739
1.5 -0.0716191
1.51 -0.0642435
1.52 -0.0553786
1.53 -0.0453927
1.54 -0.0344627
1.55 -0.0227954
1.56 -0.0106604
1.57 0.00175979
1.58 0.014179
1.59 0.0263303
1.6 0.0378983
1.61 0.0486053
1.62 0.057956
1.63 0.0657788
1.64 0.0714734
1.65 0.074878
1.66 0.0756491
1.67 0.0734399
1.68 0.0684326
1.69 0.0601279
1.7 0.0491389
1.71 0.0354625
1.72 0.0196153
1.73 0.00217569
1.74 -0.0162896
1.75 -0.0349655
1.76 -0.0530667
1.77 -0.0698591
1.78 -0.0846396
1.79 -0.0966613
1.8 -0.105787
1.81 -0.111191
1.82 -0.113354
1.83 -0.112104
1.84 -0.107926
1.85 -0.101451
1.86 -0.0932554
1.87 -0.0843556
1.88 -0.0756189
1.89 -0.0679686
1.9 -0.0622279
1.91 -0.0592586
1.92 -0.0592545
1.93 -0.0630687
1.94 -0.0701633
1.95 -0.0806149
1.96 -0.0937734
1.97 -0.108834
1.98 -0.124908
1.99 -0.140822
2 -0.155301
2.01 -0.167251
2.02 -0.175567
2.03 -0.179053
2.04 -0.177533
2.05 -0.169589
2.06 -0.15599
2.07 -0.1363
2.08 -0.111124
2.09 -0.081287
2.1 -0.0472645
2.11 -0.0105359
2.12 0.0281462
2.13 0.0675311
2.14 0.106745
2.15 0.144914
2.16 0.181635
2.17 0.216298
2.18 0.24916
2.19 0.280253
2.2 0.310079
2.21 0.339226
2.22 0.368383
2.23 0.398185
2.24 0.429346
2.25 0.462172
2.26 0.496858
2.27 0.533312
2.28 0.570914
2.29 0.608876
2.3 0.645953
2.31 0.680586
2.32 0.710995
2.33 0.735686
2.34 0.751944
2.35 0.759252
2.36 0.754847
2.37 0.738651
2.38 0.709797
2.39 0.667727
2.4 0.614249
2.41 0.548693
2.42 0.474518
2.43 0.393053
2.44 0.307274
2.45 0.219957
2.46 0.134286
2.47 0.0527513
2.48 -0.0212815
2.49 -0.0861468
2.5 -0.139987
2.51 -0.181137
2.52 -0.210499
2.53 -0.226369
2.54 -0.231691
2.55 -0.227012
2.56 -0.214847
2.57 -0.197752
2.58 -0.178196
2.59 -0.159007
2.6 -0.142884
2.61 -0.131802
2.62 -0.127489
2.63 -0.131464
2.64 -0.14332
2.65 -0.1642
2.66 -0.191958
2.67 -0.225871
2.68 -0.26378
2.69 -0.303537
2.7 -0.342714
2.71 -0.379244
2.72 -0.410576
2.73 -0.435407
2.74 -0.452445
2.75 -0.460689
2.76 -0.461043
2.77 -0.452898
2.78 -0.438734
2.79 -0.419695
2.8 -0.398176
2.81 -0.3764
2.82 -0.357011
2.83 -0.341767
2.84 -0.333212
2.85 -0.332208
2.86 -0.339702
2.87 -0.356219
2.88 -0.380386
2.89 -0.41219
2.9 -0.448798
2.91 -0.488526
2.92 -0.528638
2.93 -0.566773
2.94 -0.599874
2.95 -0.626518
2.96 -0.643968
2.97 -0.651815
2.98 -0.649383
2.99 -0.636525
3 -0.615173
3.01 -0.585749
3.02 -0.551606
3.03 -0.514848
3.04 -0.478568
3.05 -0.445315
3.06 -0.418414
3.07 -0.399128
3.08 -0.390235
3.09 -0.39182
3.1 -0.404292
3.11 -0.427426
3.12 -0.458917
3.13 -0.49789
3.14 -0.540755
3.15 -0.585088
3.16 -0.627681
3.17 -0.66604
3.18 -0.696868
3.19 -0.719337
3.2 -0.731031
3.21 -0.732471
3.22 -0.723868
3.23 -0.706252
3.24 -0.682388
3.25 -0.65427
3.26 -0.625578
3.27 -0.599466
3.28 -0.57931
3.29 -0.567461
3.3 -0.567472
3.31 -0.579225
3.32 -0.604938
3.33 -0.642981
3.34 -0.692287
3.35 -0.750715
3.36 -0.814509
3.37 -0.880321
3.38 -0.943846
3.39 -1.00089
3.4 -1.04754
3.41 -1.08136
3.42 -1.09826
3.43 -1.09928
3.44 -1.08223
3.45 -1.04995
3.46 -1.00441
3.47 -0.948959
3.48 -0.888508
3.49 -0.827775
3.5 -0.771778
3.51 -0.725609
3.52 -0.693424
3.53 -0.677322
3.54 -0.68092
3.55 -0.701502
3.56 -0.739219
3.57 -0.788495
3.58 -0.8441
3.59 -0.89801
3.6 -0.94253
3.61 -0.965015
3.62 -0.958696
3.63 -0.911337
3.64 -0.814268
3.65 -0.662947
3.66 -0.444943
3.67 -0.166186
3.68 0.181645
3.69 0.589619
3.7 1.05328
3.71 1.56497
3.72 2.10915
3.73 2.67522
3.74 3.24428
3.75 3.79998
3.76 4.32396
3.77 4.80231
3.78 5.21192
3.79 5.54887
3.8 5.79159
3.81 5.9397
3.82 5.9869
3.83 5.92763
3.84 5.77521
3.85 5.52077
3.86 5.18812
3.87 4.78185
3.88 4.31879
3.89 3.81571
3.9 3.28652
3.91 2.74991
3.92 2.22114
3.93 1.71414
3.94 1.24075
3.95 0.813383
3.96 0.433778
3.97 0.115162
3.98 -0.149462
3.99 -0.356015
4 -0.509146
4.01 -0.615937
4.02 -0.67845
4.03 -0.709554
4.04 -0.713376
4.05 -0.700402
4.06 -0.677294
4.07 -0.650946
4.08 -0.626629
4.09 -0.609446
4.1 -0.6011
4.11 -0.603689
4.12 -0.617019
4.13 -0.639585
4.14 -0.670162
4.15 -0.705175
4.16 -0.742015
4.17 -0.777268
4.18 -0.808094
4.19 -0.831371
4.2 -0.845992
4.21 -0.848816
4.22 -0.840747
4.23 -0.820701
4.24 -0.789469
4.25 -0.748494
4.26 -0.698213
4.27 -0.641365
4.28 -0.578834
4.29 -0.512768
4.3 -0.444449
4.31 -0.375076
4.32 -0.305532
4.33 -0.236392
4.34 -0.16782
4.35 -0.0998439
4.36 -0.0322542
4.37 0.0351945
4.38 0.102726
4.39 0.170398
4.4 0.238072
4.41 0.305295
4.42 0.371353
4.43 0.435
4.44 0.495269
4.45 0.549783
4.46 0.597643
4.47 0.636539
4.48 0.66486
4.49 0.681793
4.5 0.684709
4.51 0.674778
4.52 0.650043
4.53 0.61203
4.54 0.561268
4.55 0.498637
4.56 0.426949
4.57 0.347067
4.58 0.262469
4.59 0.175123
4.6 0.0876953
4.61 0.00225447
4.62 -0.0786807
4.63 -0.154158
4.64 -0.222184
4.65 -0.282604
4.66 -0.335033
4.67 -0.379295
4.68 -0.41675
4.69 -0.447247
4.7 -0.472856
4.71 -0.494329
4.72 -0.513065
4.73 -0.530235
4.74 -0.546759
4.75 -0.563419
4.76 -0.580724
4.77 -0.598809
4.78 -0.617611
4.79 -0.63681
4.8 -0.655922
4.81 -0.674246
4.82 -0.691261
4.83 -0.70627
4.84 -0.718791
4.85 -0.728656
4.86 -0.735423
4.87 -0.739608
4.88 -0.741216
4.89 -0.741004
4.9 -0.739577
4.91 -0.737734
4.92 -0.736235
4.93 -0.735992
4.94 -0.737466
4.95 -0.741268
4.96 -0.747638
4.97 -0.756479
4.98 -0.767853
4.99 -0.781027
5 -0.79561
5.01 -0.810738
5.02 -0.825688
5.03 -0.839601
5.04 -0.851972
5.05 -0.861934
5.06 -0.869487
5.07 -0.874313
5.08 -0.876582
5.09 -0.876714
5.1 -0.87501
5.11 -0.872268
5.12 -0.868989
5.13 -0.865769
5.14 -0.862955
5.15 -0.860692
5.16 -0.858732
5.17 -0.856451
5.18 -0.852896
5.19 -0.846591
5.2 -0.835708
5.21 -0.818657
5.22 -0.792239
5.23 -0.755643
5.24 -0.705401
5.25 -0.640827
5.26 -0.560525
5.27 -0.46303
5.28 -0.35024
5.29 -0.220643
5.3 -0.0783701
5.31 0.0750812
5.32 0.235786
5.33 0.399633
5.34 0.561694
5.35 0.717504
5.36 0.860934
5.37 0.987873
5.38 1.09383
5.39 1.17344
5.4 1.22673
5.41 1.24695
5.42 1.23777
5.43 1.19691
5.44 1.12645
5.45 1.0302
5.46 0.909072
5.47 0.77046
5.48 0.617195
5.49 0.455903
5.5 0.291457
5.51 0.129438
5.52 -0.0261463
5.53 -0.169567
5.54 -0.299231
5.55 -0.411647
5.56 -0.505588
5.57 -0.581595
5.58 -0.63803
5.59 -0.678704
5.6 -0.703539
5.61 -0.716261
5.62 -0.719153
5.63 -0.714703
5.64 -0.705968
5.65 -0.694733
5.66 -0.683074
5.67 -0.672106
5.68 -0.662453
5.69 -0.654042
5.7 -0.646391
5.71 -0.63844
5.72 -0.628751
5.73 -0.615893
5.74 -0.598397
5.75 -0.574516
5.76 -0.543971
5.77 -0.504945
5.78 -0.458514
5.79 -0.404527
5.8 -0.344261
5.81 -0.279502
5.82 -0.212072
5.83 -0.144629
5.84 -0.0799184
5.85 -0.0205069
5.86 0.0311428
5.87 0.0721145
5.88 0.101877
5.89 0.117089
5.9 0.119082
5.91 0.106731
5.92 0.0809535
5.93 0.043579
5.94 -0.00480735
5.95 -0.0606946
5.96 -0.122561
5.97 -0.187347
5.98 -0.252822
5.99 -0.316564
6 -0.377074
6.01 -0.432213
6.02 -0.481826
6.03 -0.525103
6.04 -0.562314
6.05 -0.594347
6.06 -0.621713
6.07 -0.646241
6.08 -0.669025
6.09 -0.691654
6.1 -0.715307
6.11 -0.741153
6.12 -0.769553
6.13 -0.801205
6.14 -0.835461
6.15 -0.871927
6.16 -0.90949
6.17 -0.946927
6.18 -0.982551
6.19 -1.01517
6.2 -1.04292
6.21 -1.06494
6.22 -1.08033
6.23 -1.08829
6.24 -1.08966
6.25 -1.08395
6.26 -1.07317
6.27 -1.05825
6.28 -1.0411
6.29 -1.02346
6.3 -1.00728
6.31 -0.993784
6.32 -0.984418
6.33 -0.979324
6.34 -0.978257
6.35 -0.980115
6.36 -0.982708
6.37 -0.982771
6.38 -0.976823
6.39 -0.959953
6.4 -0.92689
6.41 -0.873737
6.42 -0.792037
6.43 -0.681011
6.44 -0.532472
6.45 -0.345984
6.46 -0.119275
6.47 0.150253
6.48 0.456942
6.49 0.803597
6.5 1.18004
6.51 1.58246
6.52 2.00187
6.53 2.42898
6.54 2.85314
6.55 3.26452
6.56 3.6501
6.57 4.0008
6.58 4.30691
6.59 4.55628
6.6 4.74836
6.61 4.86744
6.62 4.91992
6.63 4.89908
6.64 4.80688
6.65 4.64995
6.66 4.42599
6.67 4.15051
6.68 3.82545
6.69 3.46444
6.7 3.07657
6.71 2.6721
6.72 2.26221
6.73 1.85718
6.74 1.46543
6.75 1.09577
6.76 0.755101
6.77 0.446478
6.78 0.177998
6.79 -0.0538661
6.8 -0.243869
6.81 -0.396124
6.82 -0.512163
6.83 -0.593433
6.84 -0.64705
6.85 -0.673199
6.86 -0.679999
6.87 -0.670148
6.88 -0.648394
6.89 -0.618845
6.9 -0.584294
6.91 -0.547997
6.92 -0.511917
6.93 -0.477624
6.94 -0.446052
6.95 -0.417939
6.96 -0.393065
6.97 -0.371879
6.98 -0.353668
6.99 -0.338429
7 -0.325911
7.01 -0.31589
7.02 -0.308769
7.03 -0.304397
7.04 -0.303559
7.05 -0.306551
7.06 -0.313979
7.07 -0.326765
7.08 -0.344822
7.09 -0.369467
7.1 -0.400002
7.11 -0.43683
7.12 -0.479474
7.13 -0.527006
7.14 -0.578943
7.15 -0.633533
7.16 -0.689646
7.17 -0.745558
7.18 -0.799791
7.19 -0.850551
7.2 -0.896964
7.21 -0.937023
7.22 -0.970739
7.23 -0.997136
7.24 -1.0162
7.25 -1.02859
7.26 -1.03422
7.27 -1.03492
7.28 -1.03131
7.29 -1.02514
7.3 -1.01769
7.31 -1.0104
7.32 -1.0043
7.33 -1.0006
7.34 -0.999489
7.35 -1.00128
7.36 -1.00553
7.37 -1.01135
7.38 -1.01746
7.39 -1.02219
7.4 -1.02326
7.41 -1.01862
7.42 -1.00601
7.43 -0.982428
7.44 -0.94713
7.45 -0.896142
7.46 -0.83017
7.47 -0.747203
7.48 -0.647179
7.49 -0.53146
7.5 -0.399317
7.51 -0.254679
7.52 -0.098444
7.53 0.0654443
7.54 0.233881
7.55 0.402978
7.56 0.569151
7.57 0.727518
7.58 0.875327
7.59 1.00832
7.6 1.12327
7.61 1.21881
7.62 1.29013
7.63 1.33917
7.64 1.36233
7.65 1.36151
7.66 1.33708
7.67 1.28914
7.68 1.22186
7.69 1.13467
7.7 1.03287
7.71 0.918209
7.72 0.794217
7.73 0.664359
7.74 0.531558
7.75 0.399175
7.76 0.270302
7.77 0.14749
7.78 0.0330208
7.79 -0.0703335
7.8 -0.162245
7.81 -0.239374
7.82 -0.30277
7.83 -0.350869
7.84 -0.383708
7.85 -0.402419
7.86 -0.405911
7.87 -0.397196
7.88 -0.376066
7.89 -0.345088
7.9 -0.305905
7.91 -0.260324
7.92 -0.211022
7.93 -0.159948
7.94 -0.109639
7.95 -0.0623458
7.96 -0.0203639
7.97 0.0148438
7.98 0.0404501
7.99 0.0564461
8 0.0605576
8.01 0.0530255
8.02 0.0336212
8.03 0.00198711
8.04 -0.0398893
8.05 -0.0924081
8.06 -0.152677
8.07 -0.219576
8.08 -0.290902
8.09 -0.364519
8.1 -0.438348
8.11 -0.510486
8.12 -0.57889
8.13 -0.642291
8.14 -0.699616
8.15 -0.749723
8.16 -0.793148
8.17 -0.828972
8.18 -0.858742
8.19 -0.882844
8.2 -0.902542
8.21 -0.919232
8.22 -0.933971
8.23 -0.948118
8.24 -0.962529
8.25 -0.977743
8.26 -0.99383
8.27 -1.01032
8.28 -1.02621
8.29 -1.03957
8.3 -1.0485
8.31 -1.05006
8.32 -1.04098
8.33 -1.01892
8.34 -0.978318
8.35 -0.918648
8.36 -0.834485
8.37 -0.725109
8.38 -0.588831
8.39 -0.423205
8.4 -0.231639
8.41 -0.0113922
8.42 0.231324
8.43 0.494756
8.44 0.773724
8.45 1.0623
8.46 1.35456
8.47 1.64349
8.48 1.92131
8.49 2.18135
8.5 2.41709
8.51 2.61996
8.52 2.78847
8.53 2.91185
8.54 2.99256
8.55 3.02532
8.56 3.00974
8.57 2.94935
8.58 2.84064
8.59 2.69342
8.6 2.50747
8.61 2.29124
8.62 2.05032
8.63 1.79066
8.64 1.52056
8.65 1.24593
8.66 0.973918
8.67 0.710505
8.68 0.461378
8.69 0.229678
8.7 0.02167
8.71 -0.16359
8.72 -0.321809
8.73 -0.454519
8.74 -0.562138
8.75 -0.644739
8.76 -0.70697
8.77 -0.74848
8.78 -0.774967
8.79 -0.788401
8.8 -0.792388
8.81 -0.790326
8.82 -0.784704
8.83 -0.778412
8.84 -0.77352
8.85 -0.771618
8.86 -0.773765
8.87 -0.780923
8.88 -0.792721
8.89 -0.809686
8.9 -0.830626
8.91 -0.855091
8.92 -0.882055
8.93 -0.91046
8.94 -0.939356
8.95 -0.967791
8.96 -0.994883
8.97 -1.02006
8.98 -1.0429
8.99 -1.06298
9 -1.08053
9.01 -1.09527
9.02 -1.10777
9.03 -1.11817
9.04 -1.12688
9.05 -1.1343
9.06 -1.1406
9.07 -1.1461
9.08 -1.15076
9.09 -1.15456
9.1 -1.15722
9.11 -1.15823
9.12 -1.15723
9.13 -1.15312
9.14 -1.14553
9.15 -1.13339
9.16 -1.11584
9.17 -1.09254
9.18 -1.06201
9.19 -1.02482
9.2 -0.97988
9.21 -0.92776
9.22 -0.868727
9.23 -0.803037
9.24 -0.732247
9.25 -0.656861
9.26 -0.578911
9.27 -0.499797
9.28 -0.421464
9.29 -0.345546
9.3 -0.274499
9.31 -0.209358
9.32 -0.152545
9.33 -0.104956
9.34 -0.06765
9.35 -0.042118
9.36 -0.027404
9.37 -0.0252199
9.38 -0.0335186
9.39 -0.0522578
9.4 -0.0800906
9.41 -0.115103
9.42 -0.156287
9.43 -0.200999
9.44 -0.247685
9.45 -0.294209
9.46 -0.338896
9.47 -0.379847
9.48 -0.416265
9.49 -0.446303
9.5 -0.470142
9.51 -0.487092
9.52 -0.497328
9.53 -0.501707
9.54 -0.500349
9.55 -0.495051
9.56 -0.486584
9.57 -0.476559
9.58 -0.466228
9.59 -0.457011
9.6 -0.449834
9.61 -0.446093
9.62 -0.446065
9.63 -0.45045
9.64 -0.459415
9.65 -0.472591
9.66 -0.490181
9.67 -0.511091
9.68 -0.535079
9.69 -0.5612
9.7 -0.588797
9.71 -0.61723
9.72 -0.645902
9.73 -0.674381
9.74 -0.702418
9.75 -0.729856
9.76 -0.756673
9.77 -0.782947
9.78 -0.808645
9.79 -0.833802
9.8 -0.858124
9.81 -0.881167
9.82 -0.90217
9.83 -0.919644
9.84 -0.932474
9.85 -0.93755
9.86 -0.933273
9.87 -0.91612
9.88 -0.882607
9.89 -0.830701
9.9 -0.753958
9.91 -0.652688
9.92 -0.520828
9.93 -0.357949
9.94 -0.162511
9.95 0.0683465
9.96 0.33035
9.97 0.626764
9.98 0.950425
9.99 1.29936
10 1.66778
10.01 2.04876
10.02 2.43573
10.03 2.82028
10.04 3.19353
10.05 3.54734
10.06 3.87394
10.07 4.16283
10.08 4.41176
10.09 4.60768
10.1 4.75256
10.11 4.8397
10.12 4.86756
10.13 4.84002
10.14 4.75146
10.15 4.61351
10.16 4.42487
10.17 4.19513
10.18 3.9307
10.19 3.63781
10.2 3.3269
10.21 3.00403
10.22 2.67853
10.23 2.35723
10.24 2.04722
10.25 1.75279
10.26 1.48121
10.27 1.23243
10.28 1.01137
10.29 0.817096
10.3 0.649366
10.31 0.50851
10.32 0.389631
10.33 0.293199
10.34 0.213205
10.35 0.147488
10.36 0.0922275
10.37 0.0437108
10.38 -0.000665954
10.39 -0.0440401
10.4 -0.0885304
10.41 -0.135795
10.42 -0.186851
10.43 -0.242573
10.44 -0.302496
10.45 -0.366872
10.46 -0.43441
10.47 -0.504368
10.48 -0.575471
10.49 -0.646513
10.5 -0.716042
10.51 -0.783119
10.52 -0.846329
10.53 -0.904937
10.54 -0.958233
10.55 -1.0052
10.56 -1.04615
10.57 -1.07983
10.58 -1.107
10.59 -1.12719
10.6 -1.14047
10.61 -1.1474
10.62 -1.14731
10.63 -1.1414
10.64 -1.1292
10.65 -1.11144
10.66 -1.08847
10.67 -1.06041
10.68 -1.02828
10.69 -0.992094
10.7 -0.953024
10.71 -0.911616
10.72 -0.868805
10.73 -0.82552
10.74 -0.782821
10.75 -0.741593
10.76 -0.703047
10.77 -0.668018
10.78 -0.637324
10.79 -0.612116
10.8 -0.592351
10.81 -0.579398
10.82 -0.572676
10.83 -0.572669
10.84 -0.579225
10.85 -0.591611
10.86 -0.610072
10.87 -0.633145
10.88 -0.660625
10.89 -0.691359
10.9 -0.724534
10.91 -0.759339
10.92 -0.794827
10.93 -0.830247
10.94 -0.864914
10.95 -0.898215
10.96 -0.929634
10.97 -0.958975
10.98 -0.98567
10.99 -1.00996
11 -1.0315
11.01 -1.05051
11.02 -1.0671
11.03 -1.08128
11.04 -1.09353
11.05 -1.10378
11.06 -1.11256
11.07 -1.12002
11.08 -1.12647
11.09 -1.13223
11.1 -1.13749
11.11 -1.14257
11.12 -1.14762
11.13 -1.15278
11.14 -1.15808
11.15 -1.16345
11.16 -1.16866
11.17 -1.17325
11.18 -1.17666
11.19 -1.17803
11.2 -1.17619
11.21 -1.17018
11.22 -1.15766
11.23 -1.1379
11.24 -1.1081
11.25 -1.06685
11.26 -1.01237
11.27 -0.941678
11.28 -0.855094
11.29 -0.748601
11.3 -0.6237
11.31 -0.478765
11.32 -0.313991
11.33 -0.131511
11.34 0.0693539
11.35 0.283785
11.36 0.510315
11.37 0.74427
11.38 0.981634
11.39 1.2173
11.4 1.44683
11.41 1.66348
11.42 1.86364
11.43 2.04148
11.44 2.19213
11.45 2.31399
11.46 2.39947
11.47 2.45166
11.48 2.46535
11.49 2.44289
11.5 2.38536
11.51 2.29267
11.52 2.17152
11.53 2.02167
11.54 1.85116
11.55 1.6634
11.56 1.46407
11.57 1.25874
11.58 1.05242
11.59 0.849844
11.6 0.655769
11.61 0.473406
11.62 0.305277
11.63 0.154535
11.64 0.020177
11.65 -0.0949804
11.66 -0.193855
11.67 -0.276595
11.68 -0.345142
11.69 -0.402472
11.7 -0.449799
11.71 -0.490956
11.72 -0.527685
11.73 -0.562581
11.74 -0.597376
11.75 -0.633642
11.76 -0.672026
11.77 -0.713239
11.78 -0.756717
11.79 -0.801896
11.8 -0.847477
11.81 -0.892023
11.82 -0.933261
11.83 -0.969717
11.84 -0.998693
11.85 -1.01853
11.86 -1.02757
11.87 -1.02325
11.88 -1.00596
11.89 -0.972715
11.9 -0.925016
11.91 -0.861967
11.92 -0.784054
11.93 -0.693136
11.94 -0.588844
11.95 -0.474653
11.96 -0.351343
11.97 -0.221752
11.98 -0.0880719
11.99 0.0472658
12 0.18183
12.01 0.312819
12.02 0.438309
12.03 0.555834
12.04 0.663174
12.05 0.759436
12.06 0.841263
12.07 0.909495
12.08 0.961527
12.09 0.997698
12.1 1.01784
12.11 1.02088
12.12 1.00914
12.13 0.981105
12.14 0.939802
12.15 0.885661
12.16 0.820362
12.17 0.746296
12.18 0.664416
12.19 0.577767
12.2 0.48785
12.21 0.396959
12.22 0.306842
12.23 0.219461
12.24 0.135837
12.25 0.0578515
12.26 -0.014325
12.27 -0.079852
12.28 -0.138549
12.29 -0.191074
12.3 -0.237109
12.31 -0.278302
12.32 -0.315043
12.33 -0.348731
12.34 -0.380419
12.35 -0.411164
12.36 -0.441933
12.37 -0.473544
12.38 -0.506361
12.39 -0.540595
12.4 -0.57603
12.41 -0.612078
