# xPDFsuite Configuration #
[PDF]
wavelength = 0.1432
dataformat = twotheta
inputfile = 1_1Pd_CeO2_cycle-00146.chi
backgroundfile = background-00000.chi
mode = xray
bgscale = 1.007
composition = CeO2
outputtype = gr
qmaxinst = 28.8974762299
qmin = 0.5
qmax = 27.9
rmax = 50.0
rmin = 0.0
rstep = 0.01
rpoly = 1.8657

[Misc]
inputdir = G:/SankarDec16/1Pd/Chi
savedir = D:/DATA/APS_CeO2/1Pd
backgroundfilefull = G:/SankarDec16/Background/background-00000.chi

#### start data
#S 1
#L r($\AA$)  G($\AA^{-2}$)
0 0
0.01 -0.00691321
0.02 -0.0133065
0.03 -0.0186446
0.04 -0.022524
0.05 -0.02472
0.06 -0.0248713
0.07 -0.0232175
0.08 -0.0196417
0.09 -0.0146016
0.1 -0.00841361
0.11 -0.00156249
0.12 0.00542192
0.13 0.0119463
0.14 0.0175883
0.15 0.0218319
0.16 0.0243738
0.17 0.0250914
0.18 0.0237368
0.19 0.0206611
0.2 0.0158755
0.21 0.00991312
0.22 0.00316736
0.23 -0.00381781
0.24 -0.0105429
0.25 -0.0163686
0.26 -0.0209896
0.27 -0.0239338
0.28 -0.0250114
0.29 -0.0242085
0.3 -0.0214019
0.31 -0.0170384
0.32 -0.0112568
0.33 -0.0046415
0.34 0.00235575
0.35 0.00915647
0.36 0.0153148
0.37 0.0201755
0.38 0.0235642
0.39 0.0250747
0.4 0.0246403
0.41 0.0223564
0.42 0.0182307
0.43 0.0127851
0.44 0.00628012
0.45 -0.000675792
0.46 -0.00759326
0.47 -0.0138859
0.48 -0.0191826
0.49 -0.0228425
0.5 -0.0248308
0.51 -0.0248265
0.52 -0.0228893
0.53 -0.0192199
0.54 -0.0139573
0.55 -0.00767449
0.56 -0.000741578
0.57 0.00623646
0.58 0.0127558
0.59 0.0182489
0.6 0.0224375
0.61 0.0247248
0.62 0.0252178
0.63 0.0236961
0.64 0.0203436
0.65 0.0154573
0.66 0.00930185
0.67 0.00247498
0.68 -0.00456047
0.69 -0.0112309
0.7 -0.0170415
0.71 -0.0214697
0.72 -0.0243432
0.73 -0.0251371
0.74 -0.0240951
0.75 -0.0211076
0.76 -0.016474
0.77 -0.0105736
0.78 -0.0037834
0.79 0.00330236
0.8 0.0101512
0.81 0.0162478
0.82 0.0211308
0.83 0.024348
0.84 0.0258408
0.85 0.025182
0.86 0.0227387
0.87 0.0185162
0.88 0.0129127
0.89 0.00636769
0.9 -0.000652576
0.91 -0.0075909
0.92 -0.0138809
0.93 -0.0190973
0.94 -0.0228457
0.95 -0.0247796
0.96 -0.0249629
0.97 -0.0231114
0.98 -0.0196973
0.99 -0.0148599
1 -0.00908326
1.01 -0.00284789
1.02 0.00329881
1.03 0.00888191
1.04 0.0133219
1.05 0.0163294
1.06 0.0176132
1.07 0.0169791
1.08 0.0146465
1.09 0.0105375
1.1 0.00525023
1.11 -0.000884517
1.12 -0.00725782
1.13 -0.0133212
1.14 -0.0183688
1.15 -0.0220173
1.16 -0.0235839
1.17 -0.0229183
1.18 -0.0197894
1.19 -0.0141073
1.2 -0.0062827
1.21 0.00365393
1.22 0.0148859
1.23 0.0269227
1.24 0.0389736
1.25 0.0503507
1.26 0.0601399
1.27 0.0679057
1.28 0.0727552
1.29 0.074511
1.3 0.0728397
1.31 0.0675403
1.32 0.0590829
1.33 0.0472732
1.34 0.0330848
1.35 0.0168848
1.36 -0.0005001
1.37 -0.0183204
1.38 -0.0357347
1.39 -0.0520951
1.4 -0.0665425
1.41 -0.0786731
1.42 -0.0880201
1.43 -0.0941779
1.44 -0.0973584
1.45 -0.0970815
1.46 -0.0940349
1.47 -0.0882285
1.48 -0.0801525
1.49 -0.0702989
1.5 -0.0590134
1.51 -0.0469215
1.52 -0.0343855
1.53 -0.0218594
1.54 -0.00966633
1.55 0.00187416
1.56 0.0126379
1.57 0.0223151
1.58 0.030968
1.59 0.0384322
1.6 0.0446986
1.61 0.0497867
1.62 0.053535
1.63 0.0560792
1.64 0.0572006
1.65 0.05697
1.66 0.0552957
1.67 0.052072
1.68 0.0474319
1.69 0.0411433
1.7 0.0335134
1.71 0.0245308
1.72 0.0144386
1.73 0.00351496
1.74 -0.00796845
1.75 -0.0195961
1.76 -0.0309678
1.77 -0.0416921
1.78 -0.0513926
1.79 -0.059664
1.8 -0.0664213
1.81 -0.0712238
1.82 -0.0743267
1.83 -0.0756541
1.84 -0.0754933
1.85 -0.074213
1.86 -0.0721898
1.87 -0.0699965
1.88 -0.068185
1.89 -0.067273
1.9 -0.0677416
1.91 -0.0700767
1.92 -0.0743263
1.93 -0.0809388
1.94 -0.0894839
1.95 -0.0998854
1.96 -0.111607
1.97 -0.124036
1.98 -0.136404
1.99 -0.147937
2 -0.157599
2.01 -0.164678
2.02 -0.168374
2.03 -0.16783
2.04 -0.163036
2.05 -0.152925
2.06 -0.138216
2.07 -0.118609
2.08 -0.0946263
2.09 -0.0669386
2.1 -0.0359096
2.11 -0.00268409
2.12 0.0322068
2.13 0.0678364
2.14 0.103598
2.15 0.138911
2.16 0.173499
2.17 0.207048
2.18 0.239742
2.19 0.271702
2.2 0.303321
2.21 0.335012
2.22 0.367313
2.23 0.400545
2.24 0.435163
2.25 0.471177
2.26 0.508521
2.27 0.54682
2.28 0.585374
2.29 0.623106
2.3 0.658906
2.31 0.691153
2.32 0.718224
2.33 0.738837
2.34 0.750475
2.35 0.752965
2.36 0.743841
2.37 0.723338
2.38 0.690869
2.39 0.646175
2.4 0.591132
2.41 0.525379
2.42 0.452205
2.43 0.372995
2.44 0.290549
2.45 0.207406
2.46 0.126538
2.47 0.0500665
2.48 -0.0189517
2.49 -0.079178
2.5 -0.129041
2.51 -0.167172
2.52 -0.194541
2.53 -0.209737
2.54 -0.215526
2.55 -0.212498
2.56 -0.202973
2.57 -0.18926
2.58 -0.1736
2.59 -0.158461
2.6 -0.146222
2.61 -0.138556
2.62 -0.136921
2.63 -0.142568
2.64 -0.155067
2.65 -0.175317
2.66 -0.201394
2.67 -0.232601
2.68 -0.267029
2.69 -0.302817
2.7 -0.337856
2.71 -0.370431
2.72 -0.398393
2.73 -0.420725
2.74 -0.436418
2.75 -0.444742
2.76 -0.446559
2.77 -0.441512
2.78 -0.431746
2.79 -0.418331
2.8 -0.403316
2.81 -0.388548
2.82 -0.376245
2.83 -0.367728
2.84 -0.365019
2.85 -0.368627
2.86 -0.379135
2.87 -0.396707
2.88 -0.420026
2.89 -0.448702
2.9 -0.480324
2.91 -0.513236
2.92 -0.545102
2.93 -0.574003
2.94 -0.597335
2.95 -0.614247
2.96 -0.622581
2.97 -0.622414
2.98 -0.61353
2.99 -0.596267
3 -0.572589
3.01 -0.543436
3.02 -0.511787
3.03 -0.479824
3.04 -0.450296
3.05 -0.425322
3.06 -0.407863
3.07 -0.398526
3.08 -0.399562
3.09 -0.410476
3.1 -0.431168
3.11 -0.460861
3.12 -0.497095
3.13 -0.538399
3.14 -0.581419
3.15 -0.623546
3.16 -0.66179
3.17 -0.693997
3.18 -0.717093
3.19 -0.730878
3.2 -0.733335
3.21 -0.725568
3.22 -0.708263
3.23 -0.682982
3.24 -0.652739
3.25 -0.620088
3.26 -0.588633
3.27 -0.561768
3.28 -0.542783
3.29 -0.533808
3.3 -0.53831
3.31 -0.555661
3.32 -0.587829
3.33 -0.632691
3.34 -0.688804
3.35 -0.753593
3.36 -0.823044
3.37 -0.893367
3.38 -0.960226
3.39 -1.01921
3.4 -1.06641
3.41 -1.09952
3.42 -1.11445
3.43 -1.1126
3.44 -1.09194
3.45 -1.05566
3.46 -1.00598
3.47 -0.946574
3.48 -0.882549
3.49 -0.818931
3.5 -0.760791
3.51 -0.713383
3.52 -0.680876
3.53 -0.665303
3.54 -0.670286
3.55 -0.692873
3.56 -0.733131
3.57 -0.785252
3.58 -0.843832
3.59 -0.900651
3.6 -0.947875
3.61 -0.972664
3.62 -0.968202
3.63 -0.922149
3.64 -0.825818
3.65 -0.674698
3.66 -0.456342
3.67 -0.176818
3.68 0.172166
3.69 0.581545
3.7 1.04678
3.71 1.56009
3.72 2.10588
3.73 2.67344
3.74 3.24382
3.75 3.80061
3.76 4.32543
3.77 4.80435
3.78 5.21421
3.79 5.5511
3.8 5.79344
3.81 5.94083
3.82 5.98698
3.83 5.92628
3.84 5.77211
3.85 5.51551
3.86 5.18036
3.87 4.77123
3.88 4.30501
3.89 3.79851
3.9 3.26571
3.91 2.72542
3.92 2.19303
3.93 1.6826
3.94 1.20614
3.95 0.776251
3.96 0.394767
3.97 0.0751981
3.98 -0.189458
3.99 -0.394948
4 -0.545893
4.01 -0.649431
4.02 -0.707571
4.03 -0.733442
4.04 -0.731241
4.05 -0.711761
4.06 -0.681905
4.07 -0.648891
4.08 -0.618261
4.09 -0.595528
4.1 -0.582571
4.11 -0.581811
4.12 -0.593233
4.13 -0.615372
4.14 -0.647224
4.15 -0.684949
4.16 -0.725998
4.17 -0.766618
4.18 -0.80373
4.19 -0.833888
4.2 -0.855593
4.21 -0.865299
4.22 -0.863562
4.23 -0.848906
4.24 -0.821812
4.25 -0.783565
4.26 -0.73425
4.27 -0.67677
4.28 -0.611814
4.29 -0.541794
4.3 -0.46814
4.31 -0.392283
4.32 -0.315507
4.33 -0.238664
4.34 -0.162349
4.35 -0.0869401
4.36 -0.0125821
4.37 0.060738
4.38 0.132876
4.39 0.203904
4.4 0.273428
4.41 0.341111
4.42 0.406272
4.43 0.467744
4.44 0.524854
4.45 0.575304
4.46 0.618556
4.47 0.652488
4.48 0.675745
4.49 0.687703
4.5 0.685941
4.51 0.671712
4.52 0.643196
4.53 0.601919
4.54 0.54842
4.55 0.483567
4.56 0.410071
4.57 0.32879
4.58 0.24308
4.59 0.154878
4.6 0.0668054
4.61 -0.0190941
4.62 -0.100266
4.63 -0.175752
4.64 -0.243467
4.65 -0.303207
4.66 -0.354508
4.67 -0.397091
4.68 -0.432326
4.69 -0.459942
4.7 -0.482117
4.71 -0.499606
4.72 -0.513934
4.73 -0.526429
4.74 -0.538199
4.75 -0.550251
4.76 -0.563365
4.77 -0.577906
4.78 -0.594037
4.79 -0.611711
4.8 -0.630464
4.81 -0.649899
4.82 -0.669307
4.83 -0.688044
4.84 -0.705444
4.85 -0.721082
4.86 -0.734287
4.87 -0.745157
4.88 -0.753331
4.89 -0.759164
4.9 -0.762894
4.91 -0.76489
4.92 -0.765792
4.93 -0.766036
4.94 -0.766241
4.95 -0.766864
4.96 -0.768295
4.97 -0.77072
4.98 -0.774379
4.99 -0.779082
5 -0.784809
5.01 -0.791227
5.02 -0.798072
5.03 -0.805022
5.04 -0.811817
5.05 -0.818195
5.06 -0.824101
5.07 -0.829492
5.08 -0.834487
5.09 -0.839278
5.1 -0.844117
5.11 -0.849229
5.12 -0.854842
5.13 -0.860979
5.14 -0.867523
5.15 -0.874073
5.16 -0.880025
5.17 -0.884153
5.18 -0.885405
5.19 -0.881959
5.2 -0.871914
5.21 -0.853794
5.22 -0.824309
5.23 -0.783126
5.24 -0.726892
5.25 -0.655414
5.26 -0.567658
5.27 -0.462591
5.28 -0.342481
5.29 -0.206267
5.3 -0.0582823
5.31 0.0996763
5.32 0.263548
5.33 0.429235
5.34 0.591679
5.35 0.746702
5.36 0.888197
5.37 1.01236
5.38 1.11493
5.39 1.19078
5.4 1.24019
5.41 1.25665
5.42 1.244
5.43 1.20009
5.44 1.12711
5.45 1.02886
5.46 0.906279
5.47 0.766638
5.48 0.612726
5.49 0.451023
5.5 0.286298
5.51 0.12402
5.52 -0.0318824
5.53 -0.175757
5.54 -0.306017
5.55 -0.419169
5.56 -0.513933
5.57 -0.590781
5.58 -0.647968
5.59 -0.689218
5.6 -0.714324
5.61 -0.726944
5.62 -0.729295
5.63 -0.723812
5.64 -0.713609
5.65 -0.700452
5.66 -0.68657
5.67 -0.673171
5.68 -0.66104
5.69 -0.650255
5.7 -0.640532
5.71 -0.630912
5.72 -0.620136
5.73 -0.606814
5.74 -0.589522
5.75 -0.566528
5.76 -0.537418
5.77 -0.500328
5.78 -0.456104
5.79 -0.404423
5.8 -0.34633
5.81 -0.283424
5.82 -0.217262
5.83 -0.150423
5.84 -0.0854446
5.85 -0.024904
5.86 0.0287378
5.87 0.0725184
5.88 0.105688
5.89 0.124772
5.9 0.130788
5.91 0.122349
5.92 0.100065
5.93 0.0655356
5.94 0.018992
5.95 -0.0360989
5.96 -0.0984759
5.97 -0.165014
5.98 -0.233455
5.99 -0.301283
6 -0.366689
6.01 -0.427348
6.02 -0.482687
6.03 -0.531563
6.04 -0.573859
6.05 -0.61018
6.06 -0.640609
6.07 -0.666927
6.08 -0.68992
6.09 -0.711264
6.1 -0.732174
6.11 -0.753928
6.12 -0.777256
6.13 -0.80306
6.14 -0.831176
6.15 -0.861576
6.16 -0.893576
6.17 -0.926263
6.18 -0.958408
6.19 -0.988873
6.2 -1.0161
6.21 -1.03913
6.22 -1.05702
6.23 -1.06885
6.24 -1.07504
6.25 -1.07491
6.26 -1.06994
6.27 -1.06071
6.28 -1.04868
6.29 -1.03532
6.3 -1.02211
6.31 -1.01026
6.32 -1.00095
6.33 -0.994453
6.34 -0.990613
6.35 -0.9885
6.36 -0.986327
6.37 -0.981111
6.38 -0.969838
6.39 -0.947986
6.4 -0.910687
6.41 -0.854293
6.42 -0.770747
6.43 -0.659214
6.44 -0.511712
6.45 -0.327595
6.46 -0.104427
6.47 0.160649
6.48 0.462399
6.49 0.804004
6.5 1.17572
6.51 1.57414
6.52 1.99066
6.53 2.41617
6.54 2.84035
6.55 3.25321
6.56 3.64183
6.57 3.99678
6.58 4.3081
6.59 4.5632
6.6 4.76107
6.61 4.88543
6.62 4.94227
6.63 4.92434
6.64 4.83323
6.65 4.67545
6.66 4.4483
6.67 4.16762
6.68 3.83527
6.69 3.46537
6.7 3.0674
6.71 2.65216
6.72 2.23142
6.73 1.81618
6.74 1.41537
6.75 1.03842
6.76 0.692688
6.77 0.381403
6.78 0.113152
6.79 -0.115983
6.8 -0.300604
6.81 -0.445362
6.82 -0.552197
6.83 -0.623091
6.84 -0.665853
6.85 -0.681324
6.86 -0.678228
6.87 -0.659874
6.88 -0.631488
6.89 -0.597368
6.9 -0.560754
6.91 -0.524556
6.92 -0.490837
6.93 -0.460649
6.94 -0.434517
6.95 -0.412632
6.96 -0.394141
6.97 -0.378823
6.98 -0.365459
6.99 -0.353486
7 -0.342272
7.01 -0.3315
7.02 -0.321257
7.03 -0.311833
7.04 -0.304076
7.05 -0.298888
7.06 -0.297398
7.07 -0.301212
7.08 -0.310867
7.09 -0.328526
7.1 -0.353901
7.11 -0.388013
7.12 -0.430722
7.13 -0.481085
7.14 -0.538929
7.15 -0.601856
7.16 -0.668607
7.17 -0.736669
7.18 -0.80391
7.19 -0.867696
7.2 -0.926405
7.21 -0.977015
7.22 -1.01906
7.23 -1.05083
7.24 -1.07189
7.25 -1.08293
7.26 -1.08345
7.27 -1.07602
7.28 -1.06134
7.29 -1.04205
7.3 -1.02013
7.31 -0.997905
7.32 -0.977292
7.33 -0.960549
7.34 -0.94848
7.35 -0.942193
7.36 -0.94175
7.37 -0.946312
7.38 -0.955093
7.39 -0.965729
7.4 -0.975938
7.41 -0.982791
7.42 -0.983376
7.43 -0.973831
7.44 -0.952517
7.45 -0.914461
7.46 -0.859709
7.47 -0.785456
7.48 -0.691116
7.49 -0.57794
7.5 -0.444696
7.51 -0.295935
7.52 -0.132524
7.53 0.0408143
7.54 0.22036
7.55 0.401454
7.56 0.579669
7.57 0.749219
7.58 0.906723
7.59 1.0472
7.6 1.16692
7.61 1.26442
7.62 1.33442
7.63 1.37944
7.64 1.39586
7.65 1.38625
7.66 1.35157
7.67 1.29259
7.68 1.21425
7.69 1.11678
7.7 1.00603
7.71 0.884371
7.72 0.75576
7.73 0.623727
7.74 0.491567
7.75 0.362129
7.76 0.238487
7.77 0.122561
7.78 0.0161324
7.79 -0.0786469
7.8 -0.16208
7.81 -0.231518
7.82 -0.288437
7.83 -0.331774
7.84 -0.361848
7.85 -0.379788
7.86 -0.384715
7.87 -0.379149
7.88 -0.362748
7.89 -0.337494
7.9 -0.304545
7.91 -0.265111
7.92 -0.221379
7.93 -0.174643
7.94 -0.127198
7.95 -0.0809046
7.96 -0.0379253
7.97 0.000146939
7.98 0.0305313
7.99 0.0526589
8 0.0639781
8.01 0.0641066
8.02 0.0522861
8.03 0.0275103
8.04 -0.00864426
8.05 -0.0572831
8.06 -0.11562
8.07 -0.182885
8.08 -0.256911
8.09 -0.335321
8.1 -0.416002
8.11 -0.496378
8.12 -0.574042
8.13 -0.647023
8.14 -0.713659
8.15 -0.772094
8.16 -0.822451
8.17 -0.863045
8.18 -0.895356
8.19 -0.919411
8.2 -0.936465
8.21 -0.948195
8.22 -0.955703
8.23 -0.961085
8.24 -0.965581
8.25 -0.970476
8.26 -0.976462
8.27 -0.983809
8.28 -0.991961
8.29 -0.999765
8.3 -1.00542
8.31 -1.00635
8.32 -0.999315
8.33 -0.98169
8.34 -0.947917
8.35 -0.896711
8.36 -0.822289
8.37 -0.723187
8.38 -0.5971
8.39 -0.440849
8.4 -0.257384
8.41 -0.0431856
8.42 0.195652
8.43 0.457765
8.44 0.738034
8.45 1.03029
8.46 1.32863
8.47 1.62533
8.48 1.91231
8.49 2.18218
8.5 2.42783
8.51 2.63998
8.52 2.81667
8.53 2.94639
8.54 3.03142
8.55 3.06606
8.56 3.0498
8.57 2.98635
8.58 2.87208
8.59 2.71744
8.6 2.52242
8.61 2.2961
8.62 2.04461
8.63 1.77453
8.64 1.49461
8.65 1.21149
8.66 0.932541
8.67 0.664194
8.68 0.412343
8.69 0.180072
8.7 -0.0261244
8.71 -0.207673
8.72 -0.360318
8.73 -0.486095
8.74 -0.585801
8.75 -0.659948
8.76 -0.713655
8.77 -0.747045
8.78 -0.766152
8.79 -0.773314
8.8 -0.772398
8.81 -0.766861
8.82 -0.759465
8.83 -0.752846
8.84 -0.749155
8.85 -0.749699
8.86 -0.755333
8.87 -0.766793
8.88 -0.783361
8.89 -0.805323
8.9 -0.831183
8.91 -0.860248
8.92 -0.891265
8.93 -0.923059
8.94 -0.954454
8.95 -0.984555
8.96 -1.01235
8.97 -1.03736
8.98 -1.05921
8.99 -1.07752
9 -1.09272
9.01 -1.10456
9.02 -1.11383
9.03 -1.12078
9.04 -1.12594
9.05 -1.12986
9.06 -1.13282
9.07 -1.13524
9.08 -1.13719
9.09 -1.13867
9.1 -1.1395
9.11 -1.13919
9.12 -1.13737
9.13 -1.13302
9.14 -1.12565
9.15 -1.11421
9.16 -1.09778
9.17 -1.07593
9.18 -1.04712
9.19 -1.01179
9.2 -0.968771
9.21 -0.918509
9.22 -0.861178
9.23 -0.796918
9.24 -0.727244
9.25 -0.652542
9.26 -0.574867
9.27 -0.495586
9.28 -0.41668
9.29 -0.339858
9.3 -0.267641
9.31 -0.201209
9.32 -0.14311
9.33 -0.0943916
9.34 -0.0562514
9.35 -0.0303499
9.36 -0.0157842
9.37 -0.0144426
9.38 -0.0242311
9.39 -0.0451498
9.4 -0.0757882
9.41 -0.114098
9.42 -0.158961
9.43 -0.2075
9.44 -0.257946
9.45 -0.30792
9.46 -0.355524
9.47 -0.398574
9.48 -0.436192
9.49 -0.466223
9.5 -0.488917
9.51 -0.50349
9.52 -0.510185
9.53 -0.510053
9.54 -0.503315
9.55 -0.492138
9.56 -0.477549
9.57 -0.461527
9.58 -0.445642
9.59 -0.43171
9.6 -0.42083
9.61 -0.414824
9.62 -0.41395
9.63 -0.419082
9.64 -0.430364
9.65 -0.44723
9.66 -0.469842
9.67 -0.496656
9.68 -0.527195
9.69 -0.56007
9.7 -0.594258
9.71 -0.628674
9.72 -0.662465
9.73 -0.694729
9.74 -0.725165
9.75 -0.753393
9.76 -0.779368
9.77 -0.803338
9.78 -0.825269
9.79 -0.845647
9.8 -0.864393
9.81 -0.88151
9.82 -0.896611
9.83 -0.908648
9.84 -0.916785
9.85 -0.918372
9.86 -0.911886
9.87 -0.894022
9.88 -0.861324
9.89 -0.811594
9.9 -0.738373
9.91 -0.641529
9.92 -0.514768
9.93 -0.357215
9.94 -0.166952
9.95 0.0593345
9.96 0.317634
9.97 0.611685
9.98 0.934376
9.99 1.28395
10 1.65463
10.01 2.03928
10.02 2.43132
10.03 2.82186
10.04 3.20174
10.05 3.56235
10.06 3.8955
10.07 4.19017
10.08 4.44384
10.09 4.64289
10.1 4.78922
10.11 4.87585
10.12 4.90116
10.13 4.86922
10.14 4.77432
10.15 4.62861
10.16 4.43094
10.17 4.19141
10.18 3.91682
10.19 3.61389
10.2 3.29343
10.21 2.96201
10.22 2.62918
10.23 2.3021
10.24 1.98806
10.25 1.69129
10.26 1.41931
10.27 1.1717
10.28 0.953412
10.29 0.763183
10.3 0.600525
10.31 0.465515
10.32 0.352912
10.33 0.262948
10.34 0.18934
10.35 0.129723
10.36 0.0800994
10.37 0.036681
10.38 -0.00328816
10.39 -0.0428739
10.4 -0.0842612
10.41 -0.129025
10.42 -0.178135
10.43 -0.232435
10.44 -0.29135
10.45 -0.355147
10.46 -0.422447
10.47 -0.492516
10.48 -0.564074
10.49 -0.635899
10.5 -0.706599
10.51 -0.775191
10.52 -0.840302
10.53 -0.901154
10.54 -0.957
10.55 -1.00676
10.56 -1.05065
10.57 -1.08729
10.58 -1.11728
10.59 -1.13999
10.6 -1.15531
10.61 -1.1637
10.62 -1.16423
10.63 -1.15809
10.64 -1.14465
10.65 -1.1247
10.66 -1.09858
10.67 -1.06649
10.68 -1.02966
10.69 -0.988207
10.7 -0.94363
10.71 -0.896702
10.72 -0.848656
10.73 -0.800645
10.74 -0.754083
10.75 -0.709936
10.76 -0.66969
10.77 -0.634206
10.78 -0.604324
10.79 -0.581238
10.8 -0.564657
10.81 -0.555935
10.82 -0.554144
10.83 -0.559576
10.84 -0.571786
10.85 -0.589786
10.86 -0.613529
10.87 -0.641387
10.88 -0.672915
10.89 -0.706878
10.9 -0.742404
10.91 -0.778614
10.92 -0.814707
10.93 -0.849905
10.94 -0.883747
10.95 -0.915718
10.96 -0.945463
10.97 -0.972936
10.98 -0.997677
10.99 -1.02002
11 -1.03968
11.01 -1.05689
11.02 -1.07172
11.03 -1.08415
11.04 -1.09456
11.05 -1.10281
11.06 -1.10935
11.07 -1.11426
11.08 -1.11782
11.09 -1.1204
11.1 -1.12222
11.11 -1.12372
11.12 -1.12524
11.13 -1.12712
11.14 -1.1296
11.15 -1.1329
11.16 -1.13694
11.17 -1.1416
11.18 -1.14634
11.19 -1.15044
11.2 -1.15275
11.21 -1.15212
11.22 -1.14618
11.23 -1.13376
11.24 -1.11179
11.25 -1.07837
11.26 -1.03133
11.27 -0.967105
11.28 -0.885731
11.29 -0.782558
11.3 -0.659008
11.31 -0.513135
11.32 -0.345055
11.33 -0.157126
11.34 0.0513925
11.35 0.275035
11.36 0.512046
11.37 0.75708
11.38 1.00554
11.39 1.25158
11.4 1.49028
11.41 1.71407
11.42 1.9191
11.43 2.09906
11.44 2.24886
11.45 2.36711
11.46 2.44599
11.47 2.48932
11.48 2.49211
11.49 2.45747
11.5 2.38713
11.51 2.28174
11.52 2.14867
11.53 1.98853
11.54 1.80972
11.55 1.61621
11.56 1.41398
11.57 1.20845
11.58 1.00494
11.59 0.807457
11.6 0.620592
11.61 0.446816
11.62 0.288029
11.63 0.146642
11.64 0.0210099
11.65 -0.0868598
11.66 -0.180251
11.67 -0.259808
11.68 -0.327721
11.69 -0.38682
11.7 -0.438483
11.71 -0.485856
11.72 -0.5304
11.73 -0.573963
11.74 -0.617626
11.75 -0.662167
11.76 -0.707664
11.77 -0.753962
11.78 -0.800249
11.79 -0.8455
11.8 -0.888262
11.81 -0.927356
11.82 -0.960444
11.83 -0.986871
11.84 -1.00434
11.85 -1.01205
11.86 -1.00906
11.87 -0.993761
11.88 -0.967081
11.89 -0.927007
11.9 -0.875238
11.91 -0.811344
11.92 -0.735916
11.93 -0.650458
11.94 -0.554618
11.95 -0.450914
11.96 -0.339635
11.97 -0.222646
11.98 -0.101309
11.99 0.0229603
12 0.148338
12.01 0.273088
12.02 0.395451
12.03 0.513449
12.04 0.624936
12.05 0.728593
12.06 0.821033
12.07 0.902019
12.08 0.968366
12.09 1.01932
12.1 1.05379
12.11 1.06955
12.12 1.06827
12.13 1.04723
12.14 1.00928
12.15 0.954286
12.16 0.883832
12.17 0.800782
12.18 0.70605
12.19 0.603887
12.2 0.496367
12.21 0.386976
12.22 0.278466
12.23 0.17402
12.24 0.0754284
12.25 -0.0141375
12.26 -0.0942339
12.27 -0.163371
12.28 -0.221165
12.29 -0.268689
12.3 -0.305455
12.31 -0.334309
12.32 -0.356098
12.33 -0.373387
12.34 -0.388198
12.35 -0.402729
12.36 -0.418779
12.37 -0.438352
12.38 -0.462183
12.39 -0.491119
