# xPDFsuite Configuration #
[PDF]
wavelength = 0.1432
dataformat = twotheta
inputfile = 1_1Pd_CeO2_cycle-00228.chi
backgroundfile = background-00000.chi
mode = xray
bgscale = 1.007
composition = CeO2
outputtype = gr
qmaxinst = 28.8974762299
qmin = 0.5
qmax = 27.9
rmax = 50.0
rmin = 0.0
rstep = 0.01
rpoly = 1.8657

[Misc]
inputdir = G:/SankarDec16/1Pd/Chi
savedir = D:/DATA/APS_CeO2/1Pd
backgroundfilefull = G:/SankarDec16/Background/background-00000.chi

#### start data
#S 1
#L r($\AA$)  G($\AA^{-2}$)
0 0
0.01 -0.00727492
0.02 -0.0140013
0.03 -0.0196145
0.04 -0.0236891
0.05 -0.0259888
0.06 -0.0261332
0.07 -0.0243761
0.08 -0.0205958
0.09 -0.0152762
0.1 -0.0087525
0.11 -0.00153741
0.12 0.00581047
0.13 0.0126639
0.14 0.0185796
0.15 0.0230141
0.16 0.02565
0.17 0.0263609
0.18 0.0248889
0.19 0.0216075
0.2 0.016533
0.21 0.01023
0.22 0.00311603
0.23 -0.00423314
0.24 -0.0112922
0.25 -0.0173854
0.26 -0.022196
0.27 -0.0252283
0.28 -0.026288
0.29 -0.0253656
0.3 -0.0223379
0.31 -0.0176806
0.32 -0.0115473
0.33 -0.00455643
0.34 0.00281228
0.35 0.00994727
0.36 0.0163821
0.37 0.0214254
0.38 0.024902
0.39 0.0263886
0.4 0.0258234
0.41 0.0233146
0.42 0.0188803
0.43 0.0130756
0.44 0.00618435
0.45 -0.00115052
0.46 -0.00841059
0.47 -0.0149776
0.48 -0.0204669
0.49 -0.0242051
0.5 -0.0261673
0.51 -0.0260236
0.52 -0.0238482
0.53 -0.0198624
0.54 -0.014225
0.55 -0.00754448
0.56 -0.000221278
0.57 0.00710796
0.58 0.0139113
0.59 0.0195933
0.6 0.0238706
0.61 0.0261202
0.62 0.0264698
0.63 0.0246989
0.64 0.0210153
0.65 0.0157424
0.66 0.00917369
0.67 0.00194096
0.68 -0.00545749
0.69 -0.012422
0.7 -0.018433
0.71 -0.0229469
0.72 -0.0257955
0.73 -0.0264367
0.74 -0.0251447
0.75 -0.0218191
0.76 -0.0167908
0.77 -0.0104697
0.78 -0.00326799
0.79 0.00419035
0.8 0.011336
0.81 0.0176365
0.82 0.0226127
0.83 0.0258016
0.84 0.0271595
0.85 0.0262559
0.86 0.0234968
0.87 0.0189091
0.88 0.0129293
0.89 0.00603056
0.9 -0.00127843
0.91 -0.00841946
0.92 -0.0147882
0.93 -0.0199553
0.94 -0.0235185
0.95 -0.0251348
0.96 -0.0248982
0.97 -0.0225412
0.98 -0.0185878
0.99 -0.0132187
1 -0.00697113
1.01 -0.000368621
1.02 0.00597767
1.03 0.011577
1.04 0.0157922
1.05 0.0183381
1.06 0.0189129
1.07 0.0173255
1.08 0.0138424
1.09 0.00839672
1.1 0.0016653
1.11 -0.00597166
1.12 -0.0138306
1.13 -0.0212986
1.14 -0.0275805
1.15 -0.0322509
1.16 -0.0345326
1.17 -0.0342498
1.18 -0.0311235
1.19 -0.0250195
1.2 -0.0163783
1.21 -0.00516195
1.22 0.00772908
1.23 0.0218147
1.24 0.0362484
1.25 0.0502819
1.26 0.0629587
1.27 0.073747
1.28 0.0816886
1.29 0.0865124
1.3 0.0878
1.31 0.0852449
1.32 0.0792556
1.33 0.0694844
1.34 0.0568825
1.35 0.0416916
1.36 0.024679
1.37 0.0065652
1.38 -0.0119264
1.39 -0.0300675
1.4 -0.0470935
1.41 -0.0624965
1.42 -0.0757733
1.43 -0.0864429
1.44 -0.094552
1.45 -0.0995224
1.46 -0.101823
1.47 -0.101282
1.48 -0.0981708
1.49 -0.0928007
1.5 -0.0852315
1.51 -0.0760088
1.52 -0.0652038
1.53 -0.0532435
1.54 -0.0403428
1.55 -0.0267449
1.56 -0.0127369
1.57 0.00147063
1.58 0.0155957
1.59 0.0293602
1.6 0.042452
1.61 0.0545985
1.62 0.0652968
1.63 0.0743865
1.64 0.0812512
1.65 0.0857292
1.66 0.087462
1.67 0.0860798
1.68 0.0817609
1.69 0.0739571
1.7 0.0632887
1.71 0.0497166
1.72 0.0337479
1.73 0.0159625
1.74 -0.00309799
1.75 -0.0225793
1.76 -0.0417078
1.77 -0.0597034
1.78 -0.0758371
1.79 -0.0893246
1.8 -0.0999791
1.81 -0.106934
1.82 -0.110623
1.83 -0.11083
1.84 -0.108005
1.85 -0.102754
1.86 -0.0956164
1.87 -0.087618
1.88 -0.079601
1.89 -0.0725102
1.9 -0.0671758
1.91 -0.0644727
1.92 -0.0646268
1.93 -0.0684961
1.94 -0.0755768
1.95 -0.0859534
1.96 -0.0989874
1.97 -0.113879
1.98 -0.129728
1.99 -0.145357
2 -0.159463
2.01 -0.170939
2.02 -0.178649
2.03 -0.181368
2.04 -0.178916
2.05 -0.16983
2.06 -0.154904
2.07 -0.133689
2.08 -0.106818
2.09 -0.0751531
2.1 -0.0392087
2.11 -0.000533632
2.12 0.0400471
2.13 0.0812047
2.14 0.121983
2.15 0.161407
2.16 0.199034
2.17 0.234111
2.18 0.266915
2.19 0.297391
2.2 0.326039
2.21 0.353473
2.22 0.380356
2.23 0.407444
2.24 0.435468
2.25 0.464869
2.26 0.495936
2.27 0.528702
2.28 0.562663
2.29 0.597183
2.3 0.631103
2.31 0.662995
2.32 0.691165
2.33 0.714159
2.34 0.729374
2.35 0.736229
2.36 0.732034
2.37 0.716622
2.38 0.689091
2.39 0.648824
2.4 0.597503
2.41 0.53441
2.42 0.462858
2.43 0.38409
2.44 0.300979
2.45 0.216225
2.46 0.132915
2.47 0.0535181
2.48 -0.0186724
2.49 -0.0819819
2.5 -0.134559
2.51 -0.174729
2.52 -0.20334
2.53 -0.218676
2.54 -0.223601
2.55 -0.218629
2.56 -0.20622
2.57 -0.188887
2.58 -0.169069
2.59 -0.149578
2.6 -0.133102
2.61 -0.121636
2.62 -0.116929
2.63 -0.120544
2.64 -0.132114
2.65 -0.152859
2.66 -0.180667
2.67 -0.214888
2.68 -0.253407
2.69 -0.294098
2.7 -0.334591
2.71 -0.372769
2.72 -0.406109
2.73 -0.433231
2.74 -0.452793
2.75 -0.46371
2.76 -0.466786
2.77 -0.461297
2.78 -0.44962
2.79 -0.432771
2.8 -0.413043
2.81 -0.392592
2.82 -0.373932
2.83 -0.358854
2.84 -0.34981
2.85 -0.347736
2.86 -0.353608
2.87 -0.368016
2.88 -0.389731
2.89 -0.418821
2.9 -0.452632
2.91 -0.489617
2.92 -0.527194
2.93 -0.563115
2.94 -0.594492
2.95 -0.61992
2.96 -0.636788
2.97 -0.644651
2.98 -0.642823
2.99 -0.631112
3 -0.611307
3.01 -0.583747
3.02 -0.551587
3.03 -0.516776
3.04 -0.482222
3.05 -0.450335
3.06 -0.424234
3.07 -0.405147
3.08 -0.395693
3.09 -0.395991
3.1 -0.406453
3.11 -0.426904
3.12 -0.455216
3.13 -0.490617
3.14 -0.529769
3.15 -0.570453
3.16 -0.609708
3.17 -0.64523
3.18 -0.674015
3.19 -0.695291
3.2 -0.706886
3.21 -0.709295
3.22 -0.70275
3.23 -0.688253
3.24 -0.66834
3.25 -0.644923
3.26 -0.621328
3.27 -0.600463
3.28 -0.585374
3.29 -0.578133
3.3 -0.581908
3.31 -0.596447
3.32 -0.623618
3.33 -0.661765
3.34 -0.709738
3.35 -0.765366
3.36 -0.825149
3.37 -0.885758
3.38 -0.943331
3.39 -0.993931
3.4 -1.03406
3.41 -1.06166
3.42 -1.07308
3.43 -1.06962
3.44 -1.04954
3.45 -1.01581
3.46 -0.970562
3.47 -0.917259
3.48 -0.860573
3.49 -0.805306
3.5 -0.755967
3.51 -0.717418
3.52 -0.693348
3.53 -0.685424
3.54 -0.696741
3.55 -0.724218
3.56 -0.76747
3.57 -0.82069
3.58 -0.878381
3.59 -0.932288
3.6 -0.974913
3.61 -0.993401
3.62 -0.981502
3.63 -0.927149
3.64 -0.822147
3.65 -0.662425
3.66 -0.436074
3.67 -0.149498
3.68 0.205047
3.69 0.618284
3.7 1.08541
3.71 1.59841
3.72 2.14188
3.73 2.70488
3.74 3.26898
3.75 3.81791
3.76 4.33374
3.77 4.80302
3.78 5.20311
3.79 5.53062
3.8 5.76454
3.81 5.90491
3.82 5.94583
3.83 5.88214
3.84 5.72714
3.85 5.47236
3.86 5.14125
3.87 4.73836
3.88 4.28022
3.89 3.78316
3.9 3.26074
3.91 2.73111
3.92 2.20906
3.93 1.70809
3.94 1.23968
3.95 0.815847
3.96 0.438305
3.97 0.119935
3.98 -0.145965
3.99 -0.355306
4 -0.512429
4.01 -0.624054
4.02 -0.691879
4.03 -0.7283
4.04 -0.736981
4.05 -0.728023
4.06 -0.707734
4.07 -0.682648
4.08 -0.658041
4.09 -0.638678
4.1 -0.626589
4.11 -0.623902
4.12 -0.630754
4.13 -0.646031
4.14 -0.668905
4.15 -0.696295
4.16 -0.726101
4.17 -0.755325
4.18 -0.781514
4.19 -0.801958
4.2 -0.815549
4.21 -0.819559
4.22 -0.814546
4.23 -0.799439
4.24 -0.774696
4.25 -0.741351
4.26 -0.699461
4.27 -0.651195
4.28 -0.596918
4.29 -0.538281
4.3 -0.476116
4.31 -0.411129
4.32 -0.34412
4.33 -0.275143
4.34 -0.204643
4.35 -0.132531
4.36 -0.058856
4.37 0.016252
4.38 0.0927399
4.39 0.170046
4.4 0.247577
4.41 0.324311
4.42 0.399045
4.43 0.469977
4.44 0.535933
4.45 0.593925
4.46 0.643186
4.47 0.681159
4.48 0.706346
4.49 0.718202
4.5 0.714194
4.51 0.696094
4.52 0.662241
4.53 0.614744
4.54 0.554594
4.55 0.483217
4.56 0.403759
4.57 0.317686
4.58 0.22855
4.59 0.13866
4.6 0.0507463
4.61 -0.033237
4.62 -0.110682
4.63 -0.181114
4.64 -0.242653
4.65 -0.29565
4.66 -0.340095
4.67 -0.376273
4.68 -0.405949
4.69 -0.429493
4.7 -0.449222
4.71 -0.466274
4.72 -0.482259
4.73 -0.498386
4.74 -0.515816
4.75 -0.535015
4.76 -0.556548
4.77 -0.580166
4.78 -0.60554
4.79 -0.631999
4.8 -0.658631
4.81 -0.684314
4.82 -0.70815
4.83 -0.729028
4.84 -0.74613
4.85 -0.75911
4.86 -0.767138
4.87 -0.770878
4.88 -0.7701
4.89 -0.765808
4.9 -0.758743
4.91 -0.749915
4.92 -0.740518
4.93 -0.731746
4.94 -0.72456
4.95 -0.719983
4.96 -0.718706
4.97 -0.720959
4.98 -0.727325
4.99 -0.737125
5 -0.750392
5.01 -0.7662
5.02 -0.78386
5.03 -0.802494
5.04 -0.821207
5.05 -0.839072
5.06 -0.855506
5.07 -0.869857
5.08 -0.881783
5.09 -0.891266
5.1 -0.898039
5.11 -0.902615
5.12 -0.904957
5.13 -0.905505
5.14 -0.904401
5.15 -0.901604
5.16 -0.897132
5.17 -0.890198
5.18 -0.880398
5.19 -0.866452
5.2 -0.847007
5.21 -0.82094
5.22 -0.785551
5.23 -0.740477
5.24 -0.682778
5.25 -0.612087
5.26 -0.527311
5.27 -0.42729
5.28 -0.313801
5.29 -0.185609
5.3 -0.0464144
5.31 0.102381
5.32 0.257238
5.33 0.414467
5.34 0.569549
5.35 0.718492
5.36 0.855637
5.37 0.977227
5.38 1.07908
5.39 1.15616
5.4 1.20841
5.41 1.22937
5.42 1.22234
5.43 1.18495
5.44 1.11896
5.45 1.02779
5.46 0.911936
5.47 0.77838
5.48 0.629494
5.49 0.471586
5.5 0.30924
5.51 0.147754
5.52 -0.00877976
5.53 -0.154855
5.54 -0.288505
5.55 -0.406116
5.56 -0.506082
5.57 -0.588544
5.58 -0.651421
5.59 -0.698108
5.6 -0.728036
5.61 -0.744627
5.62 -0.749879
5.63 -0.746005
5.64 -0.736186
5.65 -0.721987
5.66 -0.705913
5.67 -0.689222
5.68 -0.672949
5.69 -0.657451
5.7 -0.642705
5.71 -0.62808
5.72 -0.612628
5.73 -0.595212
5.74 -0.574627
5.75 -0.549371
5.76 -0.519015
5.77 -0.481897
5.78 -0.438651
5.79 -0.38893
5.8 -0.333574
5.81 -0.273939
5.82 -0.211355
5.83 -0.148106
5.84 -0.0864538
5.85 -0.0287465
5.86 0.0227484
5.87 0.0652632
5.88 0.0980248
5.89 0.117707
5.9 0.12512
5.91 0.118807
5.92 0.0991549
5.93 0.0675143
5.94 0.0238376
5.95 -0.0286699
5.96 -0.0890619
5.97 -0.154408
5.98 -0.222625
5.99 -0.291374
6 -0.358749
6.01 -0.422539
6.02 -0.481871
6.03 -0.535461
6.04 -0.582871
6.05 -0.624384
6.06 -0.659678
6.07 -0.690236
6.08 -0.716406
6.09 -0.739643
6.1 -0.760941
6.11 -0.781354
6.12 -0.80177
6.13 -0.822921
6.14 -0.845068
6.15 -0.868358
6.16 -0.892531
6.17 -0.917107
6.18 -0.941364
6.19 -0.964592
6.2 -0.985792
6.21 -1.00433
6.22 -1.01958
6.23 -1.03095
6.24 -1.03871
6.25 -1.04246
6.26 -1.04319
6.27 -1.04134
6.28 -1.03788
6.29 -1.03377
6.3 -1.02996
6.31 -1.0271
6.32 -1.02571
6.33 -1.02565
6.34 -1.02636
6.35 -1.02647
6.36 -1.02431
6.37 -1.01651
6.38 -1.00055
6.39 -0.972017
6.4 -0.926528
6.41 -0.860984
6.42 -0.767882
6.43 -0.647029
6.44 -0.491109
6.45 -0.299992
6.46 -0.0716995
6.47 0.196135
6.48 0.49834
6.49 0.837662
6.5 1.20485
6.51 1.59659
6.52 2.00475
6.53 2.42082
6.54 2.83504
6.55 3.23812
6.56 3.61785
6.57 3.96536
6.58 4.27118
6.59 4.5233
6.6 4.72063
6.61 4.84737
6.62 4.90904
6.63 4.89828
6.64 4.81618
6.65 4.66864
6.66 4.45235
6.67 4.1824
6.68 3.8599
6.69 3.49833
6.7 3.10663
6.71 2.69498
6.72 2.2752
6.73 1.85773
6.74 1.45201
6.75 1.06754
6.76 0.71219
6.77 0.389844
6.78 0.109698
6.79 -0.131338
6.8 -0.327072
6.81 -0.481464
6.82 -0.595844
6.83 -0.671524
6.84 -0.716304
6.85 -0.730401
6.86 -0.723052
6.87 -0.697582
6.88 -0.659727
6.89 -0.61445
6.9 -0.56559
6.91 -0.516945
6.92 -0.471385
6.93 -0.430716
6.94 -0.396117
6.95 -0.368507
6.96 -0.347093
6.97 -0.332338
6.98 -0.322542
6.99 -0.317171
7 -0.315109
7.01 -0.315374
7.02 -0.31748
7.03 -0.320787
7.04 -0.325332
7.05 -0.331215
7.06 -0.338868
7.07 -0.349113
7.08 -0.362376
7.09 -0.380066
7.1 -0.40233
7.11 -0.430101
7.12 -0.463679
7.13 -0.502771
7.14 -0.54772
7.15 -0.597099
7.16 -0.650433
7.17 -0.706067
7.18 -0.762599
7.19 -0.81823
7.2 -0.871531
7.21 -0.920303
7.22 -0.963729
7.23 -1.00027
7.24 -1.02915
7.25 -1.05044
7.26 -1.06324
7.27 -1.06914
7.28 -1.06814
7.29 -1.06199
7.3 -1.05194
7.31 -1.03946
7.32 -1.02617
7.33 -1.01349
7.34 -1.00243
7.35 -0.993854
7.36 -0.988045
7.37 -0.984668
7.38 -0.983202
7.39 -0.982206
7.4 -0.979968
7.41 -0.974407
7.42 -0.963304
7.43 -0.943593
7.44 -0.913992
7.45 -0.870333
7.46 -0.812579
7.47 -0.738227
7.48 -0.646575
7.49 -0.538495
7.5 -0.412608
7.51 -0.272671
7.52 -0.119117
7.53 0.0440764
7.54 0.21379
7.55 0.386054
7.56 0.556809
7.57 0.720959
7.58 0.87513
7.59 1.01463
7.6 1.13568
7.61 1.23654
7.62 1.31184
7.63 1.36344
7.64 1.3874
7.65 1.38565
7.66 1.35865
7.67 1.30661
7.68 1.23412
7.69 1.14082
7.7 1.03255
7.71 0.911406
7.72 0.781378
7.73 0.646216
7.74 0.509263
7.75 0.373911
7.76 0.243505
7.77 0.120486
7.78 0.00705482
7.79 -0.0941517
7.8 -0.183152
7.81 -0.256807
7.82 -0.316552
7.83 -0.361101
7.84 -0.390777
7.85 -0.406885
7.86 -0.40857
7.87 -0.398797
7.88 -0.377431
7.89 -0.346878
7.9 -0.308631
7.91 -0.264287
7.92 -0.216265
7.93 -0.166236
7.94 -0.116533
7.95 -0.0691775
7.96 -0.0263188
7.97 0.0105972
7.98 0.0388405
7.99 0.0581893
8 0.0662876
8.01 0.0630883
8.02 0.0481048
8.03 0.0206439
8.04 -0.0175588
8.05 -0.0673056
8.06 -0.125826
8.07 -0.192246
8.08 -0.264454
8.09 -0.340235
8.1 -0.417577
8.11 -0.49422
8.12 -0.567982
8.13 -0.637198
8.14 -0.700463
8.15 -0.756227
8.16 -0.804729
8.17 -0.844591
8.18 -0.877233
8.19 -0.902774
8.2 -0.922395
8.21 -0.937589
8.22 -0.949353
8.23 -0.95944
8.24 -0.96886
8.25 -0.978573
8.26 -0.988998
8.27 -1.00008
8.28 -1.01113
8.29 -1.02066
8.3 -1.02692
8.31 -1.0272
8.32 -1.01831
8.33 -0.997815
8.34 -0.96021
8.35 -0.904569
8.36 -0.825313
8.37 -0.721314
8.38 -0.590547
8.39 -0.430163
8.4 -0.243283
8.41 -0.0267296
8.42 0.2134
8.43 0.475596
8.44 0.754753
8.45 1.04485
8.46 1.34002
8.47 1.63288
8.48 1.91554
8.49 2.18095
8.5 2.42228
8.51 2.6306
8.52 2.80416
8.53 2.9318
8.54 3.01584
8.55 3.05076
8.56 3.03607
8.57 2.97534
8.58 2.86492
8.59 2.71492
8.6 2.52513
8.61 2.30426
8.62 2.05811
8.63 1.79284
8.64 1.51698
8.65 1.23667
8.66 0.959212
8.67 0.690766
8.68 0.437142
8.69 0.201527
8.7 -0.00967569
8.71 -0.197481
8.72 -0.357503
8.73 -0.491334
8.74 -0.599399
8.75 -0.681747
8.76 -0.743117
8.77 -0.783075
8.78 -0.807417
8.79 -0.818086
8.8 -0.818713
8.81 -0.81276
8.82 -0.802707
8.83 -0.791588
8.84 -0.781528
8.85 -0.774276
8.86 -0.77104
8.87 -0.772983
8.88 -0.779895
8.89 -0.79259
8.9 -0.809994
8.91 -0.831888
8.92 -0.857399
8.93 -0.88549
8.94 -0.915409
8.95 -0.945994
8.96 -0.976401
8.97 -1.0058
8.98 -1.03355
8.99 -1.05893
9 -1.08185
9.01 -1.10161
9.02 -1.1185
9.03 -1.13228
9.04 -1.14306
9.05 -1.15115
9.06 -1.15638
9.07 -1.1593
9.08 -1.15978
9.09 -1.15807
9.1 -1.15422
9.11 -1.14802
9.12 -1.1396
9.13 -1.12836
9.14 -1.11434
9.15 -1.09695
9.16 -1.07575
9.17 -1.05057
9.18 -1.02036
9.19 -0.985441
9.2 -0.944891
9.21 -0.89891
9.22 -0.847457
9.23 -0.79039
9.24 -0.72868
9.25 -0.662278
9.26 -0.59266
9.27 -0.520658
9.28 -0.447712
9.29 -0.375226
9.3 -0.305116
9.31 -0.238669
9.32 -0.178085
9.33 -0.124654
9.34 -0.079763
9.35 -0.0453283
9.36 -0.021058
9.37 -0.0092574
9.38 -0.00852858
9.39 -0.0194628
9.4 -0.0412946
9.41 -0.0723902
9.42 -0.112363
9.43 -0.15833
9.44 -0.209012
9.45 -0.261875
9.46 -0.314921
9.47 -0.365824
9.48 -0.413071
9.49 -0.45422
9.5 -0.48873
9.51 -0.515243
9.52 -0.533296
9.53 -0.543414
9.54 -0.545033
9.55 -0.540148
9.56 -0.529191
9.57 -0.514128
9.58 -0.496495
9.59 -0.478076
9.6 -0.460512
9.61 -0.445714
9.62 -0.434705
9.63 -0.428809
9.64 -0.428829
9.65 -0.434756
9.66 -0.447447
9.67 -0.465692
9.68 -0.489598
9.69 -0.517949
9.7 -0.549871
9.71 -0.584453
9.72 -0.620478
9.73 -0.657128
9.74 -0.693506
9.75 -0.728955
9.76 -0.762938
9.77 -0.79523
9.78 -0.825317
9.79 -0.853306
9.8 -0.878678
9.81 -0.901212
9.82 -0.92034
9.83 -0.934824
9.84 -0.944005
9.85 -0.945109
9.86 -0.936975
9.87 -0.916431
9.88 -0.880311
9.89 -0.826716
9.9 -0.749441
9.91 -0.648621
9.92 -0.51819
9.93 -0.357422
9.94 -0.164496
9.95 0.0638142
9.96 0.323578
9.97 0.618509
9.98 0.941662
9.99 1.29136
10 1.66197
10.01 2.04648
10.02 2.43839
10.03 2.82889
10.04 3.20886
10.05 3.56966
10.06 3.90308
10.07 4.198
10.08 4.45182
10.09 4.65076
10.1 4.79666
10.11 4.88241
10.12 4.90634
10.13 4.87251
10.14 4.77517
10.15 4.62661
10.16 4.42576
10.17 4.18292
10.18 3.90505
10.19 3.59914
10.2 3.27616
10.21 2.94299
10.22 2.60926
10.23 2.28232
10.24 1.96951
10.25 1.67502
10.26 1.40639
10.27 1.16292
10.28 0.949436
10.29 0.764337
10.3 0.606844
10.31 0.476668
10.32 0.368304
10.33 0.28156
10.34 0.210032
10.35 0.151105
10.36 0.100687
10.37 0.0550901
10.38 0.0114869
10.39 -0.0327948
10.4 -0.0797798
10.41 -0.130615
10.42 -0.185901
10.43 -0.246022
10.44 -0.310073
10.45 -0.377802
10.46 -0.447675
10.47 -0.518654
10.48 -0.589343
10.49 -0.658639
10.5 -0.725056
10.51 -0.78808
10.52 -0.846519
10.53 -0.900099
10.54 -0.9485
10.55 -0.991177
10.56 -1.02872
10.57 -1.06035
10.58 -1.08687
10.59 -1.10798
10.6 -1.12372
10.61 -1.13441
10.62 -1.13925
10.63 -1.13891
10.64 -1.13259
10.65 -1.12049
10.66 -1.10252
10.67 -1.07829
10.68 -1.0486
10.69 -1.01296
10.7 -0.972623
10.71 -0.928006
10.72 -0.880177
10.73 -0.830418
10.74 -0.78001
10.75 -0.730458
10.76 -0.683434
10.77 -0.640364
10.78 -0.602565
10.79 -0.5718
10.8 -0.548221
10.81 -0.5338
10.82 -0.527822
10.83 -0.530934
10.84 -0.542831
10.85 -0.562386
10.86 -0.589641
10.87 -0.622432
10.88 -0.660093
10.89 -0.700826
10.9 -0.743286
10.91 -0.786022
10.92 -0.827833
10.93 -0.867342
10.94 -0.903936
10.95 -0.936797
10.96 -0.965499
10.97 -0.990194
10.98 -1.01042
10.99 -1.02709
11 -1.04021
11.01 -1.05061
11.02 -1.05885
11.03 -1.06552
11.04 -1.07133
11.05 -1.07675
11.06 -1.0823
11.07 -1.08829
11.08 -1.095
11.09 -1.10247
11.1 -1.11082
11.11 -1.11984
11.12 -1.12944
11.13 -1.1393
11.14 -1.14911
11.15 -1.15841
11.16 -1.16681
11.17 -1.17353
11.18 -1.17807
11.19 -1.17949
11.2 -1.17676
11.21 -1.16914
11.22 -1.1545
11.23 -1.13244
11.24 -1.10045
11.25 -1.05742
11.26 -1.0018
11.27 -0.930852
11.28 -0.844896
11.29 -0.740077
11.3 -0.617691
11.31 -0.47601
11.32 -0.31497
11.33 -0.136399
11.34 0.0607399
11.35 0.271933
11.36 0.496107
11.37 0.72883
11.38 0.966278
11.39 1.20357
11.4 1.43613
11.41 1.65732
11.42 1.86314
11.43 2.04758
11.44 2.20533
11.45 2.33439
11.46 2.42664
11.47 2.48477
11.48 2.50303
11.49 2.48346
11.5 2.42689
11.51 2.33285
11.52 2.20828
11.53 2.05265
11.54 1.8745
11.55 1.67741
11.56 1.46751
11.57 1.25087
11.58 1.03305
11.59 0.819305
11.6 0.615011
11.61 0.42383
11.62 0.248665
11.63 0.0931518
11.64 -0.0437832
11.65 -0.158891
11.66 -0.255461
11.67 -0.333662
11.68 -0.395744
11.69 -0.445152
11.7 -0.483402
11.71 -0.514955
11.72 -0.541992
11.73 -0.567615
11.74 -0.593954
11.75 -0.623048
11.76 -0.655652
11.77 -0.692892
11.78 -0.734057
11.79 -0.778659
11.8 -0.825261
11.81 -0.872117
11.82 -0.916813
11.83 -0.957392
11.84 -0.990869
11.85 -1.01518
11.86 -1.02834
11.87 -1.02743
11.88 -1.0127
11.89 -0.980805
11.9 -0.93331
11.91 -0.869217
11.92 -0.789072
11.93 -0.694932
11.94 -0.586506
11.95 -0.467628
11.96 -0.339292
11.97 -0.204663
11.98 -0.0662028
11.99 0.0733281
12 0.211341
12.01 0.344693
12.02 0.471439
12.03 0.588957
12.04 0.694989
12.05 0.788762
12.06 0.866856
12.07 0.930427
12.08 0.976952
12.09 1.00706
12.1 1.02082
12.11 1.01743
12.12 0.999461
12.13 0.965721
12.14 0.919397
12.15 0.861157
12.16 0.79286
12.17 0.716917
12.18 0.634508
12.19 0.54849
12.2 0.460445
12.21 0.372479
12.22 0.286183
12.23 0.203354
12.24 0.124712
12.25 0.0519108
12.26 -0.0151818
12.27 -0.0759979
12.28 -0.130645
12.29 -0.179945
12.3 -0.223922
12.31 -0.264195
12.32 -0.301372
12.33 -0.336781
12.34 -0.371411
12.35 -0.406256
12.36 -0.44197
12.37 -0.479212
12.38 -0.517954
12.39 -0.558098
12.4 -0.599038
12.41 -0.6399
12.42 -0.679259
