# xPDFsuite Configuration #
[PDF]
wavelength = 0.1432
dataformat = twotheta
inputfile = 1_1Pd_CeO2_cycle-00038.chi
backgroundfile = background-00000.chi
mode = xray
bgscale = 1.007
composition = CeO2
outputtype = gr
qmaxinst = 28.8974762299
qmin = 0.5
qmax = 27.9
rmax = 50.0
rmin = 0.0
rstep = 0.01
rpoly = 1.8657

[Misc]
inputdir = G:/SankarDec16/1Pd/Chi
savedir = D:/DATA/APS_CeO2/1Pd
backgroundfilefull = G:/SankarDec16/Background/background-00000.chi

#### start data
#S 1
#L r($\AA$)  G($\AA^{-2}$)
0 0
0.01 -0.00717805
0.02 -0.0138165
0.03 -0.0193595
0.04 -0.0233884
0.05 -0.0256699
0.06 -0.0258287
0.07 -0.0241134
0.08 -0.0204023
0.09 -0.0151706
0.1 -0.00874632
0.11 -0.00163264
0.12 0.00562042
0.13 0.0123971
0.14 0.0182585
0.15 0.0226691
0.16 0.0253132
0.17 0.0260634
0.18 0.0246616
0.19 0.021472
0.2 0.0165054
0.21 0.0103152
0.22 0.00330949
0.23 -0.00394717
0.24 -0.0109358
0.25 -0.0169927
0.26 -0.0217999
0.27 -0.0248667
0.28 -0.0259951
0.29 -0.02517
0.3 -0.0222622
0.31 -0.0177352
0.32 -0.0117323
0.33 -0.00486004
0.34 0.00241243
0.35 0.00948432
0.36 0.0158918
0.37 0.0209538
0.38 0.0244878
0.39 0.026071
0.4 0.0256326
0.41 0.0232705
0.42 0.0189913
0.43 0.013337
0.44 0.00657663
0.45 -0.00065701
0.46 -0.00785548
0.47 -0.0144089
0.48 -0.0199304
0.49 -0.0237528
0.5 -0.0258382
0.51 -0.0258512
0.52 -0.0238523
0.53 -0.0200486
0.54 -0.0145829
0.55 -0.00805099
0.56 -0.000836286
0.57 0.00643131
0.58 0.0132274
0.59 0.0189607
0.6 0.0233398
0.61 0.0257425
0.62 0.0262776
0.63 0.0247138
0.64 0.0212405
0.65 0.0161655
0.66 0.00976216
0.67 0.00265291
0.68 -0.00468146
0.69 -0.0116425
0.7 -0.0177141
0.71 -0.0223506
0.72 -0.0253702
0.73 -0.026224
0.74 -0.0251635
0.75 -0.0220721
0.76 -0.01726
0.77 -0.0111212
0.78 -0.00404715
0.79 0.00334191
0.8 0.0104912
0.81 0.0168614
0.82 0.02197
0.83 0.0253428
0.84 0.0269163
0.85 0.0262419
0.86 0.0237009
0.87 0.0192965
0.88 0.0134436
0.89 0.00660104
0.9 -0.000744057
0.91 -0.00800714
0.92 -0.0145939
0.93 -0.0200559
0.94 -0.0239764
0.95 -0.0259874
0.96 -0.0261519
0.97 -0.0241645
0.98 -0.0205182
0.99 -0.0153529
1 -0.00917442
1.01 -0.00248683
1.02 0.00413712
1.03 0.0101918
1.04 0.0150653
1.05 0.0184426
1.06 0.0200071
1.07 0.0195388
1.08 0.0172556
1.09 0.0130503
1.1 0.00754198
1.11 0.00105425
1.12 -0.00578754
1.13 -0.0124154
1.14 -0.0181111
1.15 -0.0224593
1.16 -0.02476
1.17 -0.0248361
1.18 -0.0224366
1.19 -0.0174498
1.2 -0.010275
1.21 -0.000918561
1.22 0.00980405
1.23 0.0214194
1.24 0.0331439
1.25 0.0442947
1.26 0.0539792
1.27 0.0617572
1.28 0.0667654
1.29 0.0688275
1.3 0.0676284
1.31 0.0629889
1.32 0.0553713
1.33 0.0446224
1.34 0.0316848
1.35 0.0169389
1.36 0.00118765
1.37 -0.0148518
1.38 -0.0303685
1.39 -0.04478
1.4 -0.0572902
1.41 -0.0675732
1.42 -0.0752438
1.43 -0.0800002
1.44 -0.0821047
1.45 -0.081228
1.46 -0.078056
1.47 -0.0726984
1.48 -0.0656632
1.49 -0.0574251
1.5 -0.0483658
1.51 -0.0389832
1.52 -0.0296182
1.53 -0.0205679
1.54 -0.0120357
1.55 -0.00417663
1.56 0.00303568
1.57 0.00950957
1.58 0.0154173
1.59 0.0207865
1.6 0.0257229
1.61 0.0303007
1.62 0.0345068
1.63 0.0383609
1.64 0.041722
1.65 0.0444881
1.66 0.0464662
1.67 0.0473879
1.68 0.0471583
1.69 0.0453367
1.7 0.0419934
1.71 0.0368739
1.72 0.0300038
1.73 0.0215164
1.74 0.0114301
1.75 0.000200056
1.76 -0.0119598
1.77 -0.0245372
1.78 -0.0371161
1.79 -0.0491874
1.8 -0.0604144
1.81 -0.0702196
1.82 -0.0785323
1.83 -0.0850351
1.84 -0.0897273
1.85 -0.0927565
1.86 -0.0941793
1.87 -0.0945012
1.88 -0.0939978
1.89 -0.0932119
1.9 -0.0925761
1.91 -0.0925809
1.92 -0.0934931
1.93 -0.0957748
1.94 -0.0993511
1.95 -0.104326
1.96 -0.110463
1.97 -0.11741
1.98 -0.124715
1.99 -0.131783
2 -0.137885
2.01 -0.142402
2.02 -0.144665
2.03 -0.143923
2.04 -0.140039
2.05 -0.132063
2.06 -0.120416
2.07 -0.104727
2.08 -0.0852801
2.09 -0.0625115
2.1 -0.0365552
2.11 -0.00831111
2.12 0.021943
2.13 0.0534604
2.14 0.0858095
2.15 0.118584
2.16 0.151498
2.17 0.184437
2.18 0.217422
2.19 0.250618
2.2 0.2843
2.21 0.318744
2.22 0.354403
2.23 0.391376
2.24 0.429999
2.25 0.470093
2.26 0.511452
2.27 0.553545
2.28 0.595585
2.29 0.636332
2.3 0.674669
2.31 0.708878
2.32 0.737323
2.33 0.758735
2.34 0.770546
2.35 0.772685
2.36 0.762654
2.37 0.740784
2.38 0.706528
2.39 0.659676
2.4 0.602196
2.41 0.533759
2.42 0.457757
2.43 0.375634
2.44 0.290271
2.45 0.204275
2.46 0.120714
2.47 0.0417601
2.48 -0.029425
2.49 -0.0914602
2.5 -0.142709
2.51 -0.181732
2.52 -0.209518
2.53 -0.224557
2.54 -0.2297
2.55 -0.225514
2.56 -0.214382
2.57 -0.198697
2.58 -0.180757
2.59 -0.163167
2.6 -0.148405
2.61 -0.138275
2.62 -0.134348
2.63 -0.138008
2.64 -0.148877
2.65 -0.168006
2.66 -0.193441
2.67 -0.224547
2.68 -0.259384
2.69 -0.296023
2.7 -0.332311
2.71 -0.36638
2.72 -0.395977
2.73 -0.419925
2.74 -0.437078
2.75 -0.446547
2.76 -0.449115
2.77 -0.444249
2.78 -0.434115
2.79 -0.41971
2.8 -0.403125
2.81 -0.38629
2.82 -0.371493
2.83 -0.360248
2.84 -0.354728
2.85 -0.355651
2.86 -0.363791
2.87 -0.37954
2.88 -0.401679
2.89 -0.430093
2.9 -0.462331
2.91 -0.496865
2.92 -0.531318
2.93 -0.563663
2.94 -0.591243
2.95 -0.612926
2.96 -0.626385
2.97 -0.631394
2.98 -0.627479
2.99 -0.614658
3 -0.594713
3.01 -0.568198
3.02 -0.538071
3.03 -0.506287
3.04 -0.475572
3.05 -0.448124
3.06 -0.426868
3.07 -0.412743
3.08 -0.408109
3.09 -0.412842
3.1 -0.427134
3.11 -0.450573
3.12 -0.480987
3.13 -0.517346
3.14 -0.556444
3.15 -0.595986
3.16 -0.633117
3.17 -0.665686
3.18 -0.690777
3.19 -0.707889
3.2 -0.715005
3.21 -0.712863
3.22 -0.701889
3.23 -0.683298
3.24 -0.659742
3.25 -0.633363
3.26 -0.607487
3.27 -0.585147
3.28 -0.569391
3.29 -0.562245
3.3 -0.566908
3.31 -0.582953
3.32 -0.612228
3.33 -0.652903
3.34 -0.703717
3.35 -0.762362
3.36 -0.825202
3.37 -0.888767
3.38 -0.949095
3.39 -1.00212
3.4 -1.04428
3.41 -1.07343
3.42 -1.08586
3.43 -1.08288
3.44 -1.06271
3.45 -1.02837
3.46 -0.982021
3.47 -0.927184
3.48 -0.868648
3.49 -0.811274
3.5 -0.759723
3.51 -0.718968
3.52 -0.692836
3.53 -0.683105
3.54 -0.693034
3.55 -0.719587
3.56 -0.762531
3.57 -0.816066
3.58 -0.874731
3.59 -0.930288
3.6 -0.975122
3.61 -0.996374
3.62 -0.987586
3.63 -0.936568
3.64 -0.834918
3.65 -0.678378
3.66 -0.454784
3.67 -0.170402
3.68 0.182781
3.69 0.595578
3.7 1.06331
3.71 1.57807
3.72 2.12433
3.73 2.69125
3.74 3.2601
3.75 3.81452
3.76 4.33629
3.77 4.81168
3.78 5.21772
3.79 5.55072
3.8 5.78929
3.81 5.93327
3.82 5.97648
3.83 5.91355
3.84 5.75783
3.85 5.50059
3.86 5.16561
3.87 4.75748
3.88 4.29302
3.89 3.7889
3.9 3.25902
3.91 2.72195
3.92 2.19293
3.93 1.68581
3.94 1.21243
3.95 0.785168
3.96 0.405778
3.97 0.0875336
3.98 -0.176537
3.99 -0.382287
4 -0.534309
4.01 -0.639655
4.02 -0.700303
4.03 -0.72916
4.04 -0.730307
4.05 -0.714304
4.06 -0.687866
4.07 -0.657976
4.08 -0.630036
4.09 -0.609291
4.1 -0.597585
4.11 -0.597188
4.12 -0.608056
4.13 -0.628781
4.14 -0.658334
4.15 -0.693101
4.16 -0.730615
4.17 -0.767377
4.18 -0.800511
4.19 -0.826822
4.2 -0.845004
4.21 -0.85181
4.22 -0.847887
4.23 -0.831959
4.24 -0.804583
4.25 -0.767023
4.26 -0.719444
4.27 -0.664527
4.28 -0.602921
4.29 -0.536775
4.3 -0.467321
4.31 -0.395736
4.32 -0.323076
4.33 -0.249898
4.34 -0.176657
4.35 -0.103514
4.36 -0.0305074
4.37 0.0423833
4.38 0.115113
4.39 0.187556
4.4 0.259293
4.41 0.32974
4.42 0.398028
4.43 0.462749
4.44 0.523005
4.45 0.576225
4.46 0.621735
4.47 0.657218
4.48 0.681234
4.49 0.693168
4.5 0.690546
4.51 0.674825
4.52 0.644266
4.53 0.600655
4.54 0.544748
4.55 0.477691
4.56 0.402398
4.57 0.320053
4.58 0.234091
4.59 0.146646
4.6 0.0603819
4.61 -0.022725
4.62 -0.100115
4.63 -0.171125
4.64 -0.233827
4.65 -0.288366
4.66 -0.334578
4.67 -0.372569
4.68 -0.403951
4.69 -0.428916
4.7 -0.449707
4.71 -0.467357
4.72 -0.483444
4.73 -0.4992
4.74 -0.515779
4.75 -0.533781
4.76 -0.553829
4.77 -0.575828
4.78 -0.599567
4.79 -0.624526
4.8 -0.649895
4.81 -0.674721
4.82 -0.698139
4.83 -0.719142
4.84 -0.736942
4.85 -0.751168
4.86 -0.761024
4.87 -0.767045
4.88 -0.768974
4.89 -0.767671
4.9 -0.763764
4.91 -0.75812
4.92 -0.751801
4.93 -0.745819
4.94 -0.741037
4.95 -0.738316
4.96 -0.738234
4.97 -0.740967
4.98 -0.746933
4.99 -0.755531
5 -0.766677
5.01 -0.779544
5.02 -0.793486
5.03 -0.807695
5.04 -0.821468
5.05 -0.833979
5.06 -0.844894
5.07 -0.853758
5.08 -0.860484
5.09 -0.865255
5.1 -0.868132
5.11 -0.869732
5.12 -0.870343
5.13 -0.870468
5.14 -0.870369
5.15 -0.87013
5.16 -0.869588
5.17 -0.868085
5.18 -0.864845
5.19 -0.858462
5.2 -0.847245
5.21 -0.829724
5.22 -0.802803
5.23 -0.76575
5.24 -0.715148
5.25 -0.650316
5.26 -0.569832
5.27 -0.472165
5.28 -0.359132
5.29 -0.229083
5.3 -0.086063
5.31 0.0685664
5.32 0.230973
5.33 0.397076
5.34 0.56204
5.35 0.721285
5.36 0.868672
5.37 0.999906
5.38 1.11033
5.39 1.19436
5.4 1.25178
5.41 1.27551
5.42 1.26905
5.43 1.22983
5.44 1.15976
5.45 1.06259
5.46 0.939
5.47 0.796616
5.48 0.638205
5.49 0.470699
5.5 0.299199
5.51 0.129601
5.52 -0.0337009
5.53 -0.184559
5.54 -0.321034
5.55 -0.439225
5.56 -0.53758
5.57 -0.616487
5.58 -0.673938
5.59 -0.713934
5.6 -0.736217
5.61 -0.744808
5.62 -0.74219
5.63 -0.731138
5.64 -0.715165
5.65 -0.696425
5.66 -0.677459
5.67 -0.659803
5.68 -0.644473
5.69 -0.631623
5.7 -0.621173
5.71 -0.611957
5.72 -0.602752
5.73 -0.591888
5.74 -0.577732
5.75 -0.558291
5.76 -0.532852
5.77 -0.499263
5.78 -0.45815
5.79 -0.408965
5.8 -0.352614
5.81 -0.290667
5.82 -0.224582
5.83 -0.157118
5.84 -0.0908491
5.85 -0.0285835
5.86 0.0270343
5.87 0.0728137
5.88 0.107811
5.89 0.12831
5.9 0.135235
5.91 0.127058
5.92 0.104355
5.93 0.06878
5.94 0.0205784
5.95 -0.0365732
5.96 -0.101281
5.97 -0.170186
5.98 -0.240824
5.99 -0.310437
6 -0.377091
6.01 -0.4382
6.02 -0.493209
6.03 -0.540873
6.04 -0.581125
6.05 -0.614702
6.06 -0.641777
6.07 -0.664409
6.08 -0.683595
6.09 -0.701286
6.1 -0.718948
6.11 -0.738146
6.12 -0.759721
6.13 -0.784881
6.14 -0.813396
6.15 -0.845338
6.16 -0.879944
6.17 -0.916123
6.18 -0.952531
6.19 -0.98769
6.2 -1.0198
6.21 -1.04757
6.22 -1.06979
6.23 -1.08518
6.24 -1.09405
6.25 -1.09534
6.26 -1.09063
6.27 -1.08034
6.28 -1.06601
6.29 -1.04928
6.3 -1.03174
6.31 -1.01496
6.32 -1.00035
6.33 -0.988553
6.34 -0.979711
6.35 -0.973255
6.36 -0.967575
6.37 -0.960076
6.38 -0.947734
6.39 -0.926205
6.4 -0.890602
6.41 -0.837136
6.42 -0.757729
6.43 -0.651182
6.44 -0.509345
6.45 -0.331205
6.46 -0.114035
6.47 0.14538
6.48 0.442038
6.49 0.779513
6.5 1.14815
6.51 1.54478
6.52 1.96087
6.53 2.38726
6.54 2.81375
6.55 3.23005
6.56 3.62321
6.57 3.98349
6.58 4.30071
6.59 4.56202
6.6 4.76612
6.61 4.89643
6.62 4.95873
6.63 4.94552
6.64 4.8582
6.65 4.7032
6.66 4.47758
6.67 4.19731
6.68 3.86413
6.69 3.49227
6.7 3.09131
6.71 2.67213
6.72 2.24676
6.73 1.82628
6.74 1.41989
6.75 1.03724
6.76 0.685894
6.77 0.369277
6.78 0.0962414
6.79 -0.13703
6.8 -0.324886
6.81 -0.471912
6.82 -0.579941
6.83 -0.650834
6.84 -0.69251
6.85 -0.70566
6.86 -0.699247
6.87 -0.676612
6.88 -0.643166
6.89 -0.603427
6.9 -0.560828
6.91 -0.518568
6.92 -0.478977
6.93 -0.443373
6.94 -0.412528
6.95 -0.38693
6.96 -0.365803
6.97 -0.349273
6.98 -0.336022
6.99 -0.325622
7 -0.317376
7.01 -0.310787
7.02 -0.305888
7.03 -0.302579
7.04 -0.3015
7.05 -0.303167
7.06 -0.308376
7.07 -0.318332
7.08 -0.333325
7.09 -0.355049
7.1 -0.383143
7.11 -0.418354
7.12 -0.460467
7.13 -0.508634
7.14 -0.56259
7.15 -0.620342
7.16 -0.680743
7.17 -0.741721
7.18 -0.801498
7.19 -0.857882
7.2 -0.909627
7.21 -0.954231
7.22 -0.99146
7.23 -1.01998
7.24 -1.03956
7.25 -1.0509
7.26 -1.05372
7.27 -1.05023
7.28 -1.04114
7.29 -1.02863
7.3 -1.01437
7.31 -1.00027
7.32 -0.987772
7.33 -0.978631
7.34 -0.973296
7.35 -0.97244
7.36 -0.975813
7.37 -0.982476
7.38 -0.991303
7.39 -1.00021
7.4 -1.0068
7.41 -1.00852
7.42 -1.00272
7.43 -0.985889
7.44 -0.956861
7.45 -0.911096
7.46 -0.849072
7.47 -0.76841
7.48 -0.668893
7.49 -0.551949
7.5 -0.416731
7.51 -0.267621
7.52 -0.105671
7.53 0.0646618
7.54 0.239848
7.55 0.415477
7.56 0.587557
7.57 0.750621
7.58 0.901726
7.59 1.03626
7.6 1.15086
7.61 1.24428
7.62 1.31159
7.63 1.35526
7.64 1.37185
7.65 1.36379
7.66 1.33192
7.67 1.27684
7.68 1.20316
7.69 1.11087
7.7 1.00546
7.71 0.889005
7.72 0.765154
7.73 0.63724
7.74 0.508255
7.75 0.381051
7.76 0.25852
7.77 0.142671
7.78 0.0353434
7.79 -0.0612262
7.8 -0.14709
7.81 -0.219482
7.82 -0.279594
7.83 -0.326176
7.84 -0.359335
7.85 -0.380059
7.86 -0.387279
7.87 -0.383505
7.88 -0.368293
7.89 -0.343682
7.9 -0.310876
7.91 -0.271158
7.92 -0.226865
7.93 -0.17939
7.94 -0.131184
7.95 -0.0842212
7.96 -0.0407752
7.97 -0.00249295
7.98 0.0277671
7.99 0.0494806
8 0.0600959
8.01 0.0593245
8.02 0.0464973
8.03 0.0207318
8.04 -0.0162837
8.05 -0.0654937
8.06 -0.124038
8.07 -0.191032
8.08 -0.264246
8.09 -0.341316
8.1 -0.420078
8.11 -0.498091
8.12 -0.572989
8.13 -0.642968
8.14 -0.706506
8.15 -0.761937
8.16 -0.809534
8.17 -0.847845
8.18 -0.878445
8.19 -0.901529
8.2 -0.918448
8.21 -0.930877
8.22 -0.940037
8.23 -0.947856
8.24 -0.955586
8.25 -0.964324
8.26 -0.974615
8.27 -0.986549
8.28 -0.999354
8.29 -1.01166
8.3 -1.02147
8.31 -1.026
8.32 -1.02185
8.33 -1.00631
8.34 -0.973606
8.35 -0.922542
8.36 -0.84721
8.37 -0.746254
8.38 -0.617435
8.39 -0.457643
8.4 -0.270045
8.41 -0.0512084
8.42 0.192526
8.43 0.459634
8.44 0.744791
8.45 1.04167
8.46 1.34415
8.47 1.64444
8.48 1.93425
8.49 2.20617
8.5 2.45302
8.51 2.66545
8.52 2.84161
8.53 2.9699
8.54 3.05278
8.55 3.08461
8.56 3.06501
8.57 2.99783
8.58 2.87958
8.59 2.7209
8.6 2.52192
8.61 2.29189
8.62 2.03706
8.63 1.76418
8.64 1.48204
8.65 1.19746
8.66 0.917742
8.67 0.649403
8.68 0.398305
8.69 0.167438
8.7 -0.0367144
8.71 -0.215775
8.72 -0.365573
8.73 -0.488332
8.74 -0.585002
8.75 -0.656284
8.76 -0.707424
8.77 -0.73876
8.78 -0.756386
8.79 -0.762779
8.8 -0.761868
8.81 -0.757086
8.82 -0.751273
8.83 -0.746898
8.84 -0.746093
8.85 -0.74998
8.86 -0.759268
8.87 -0.774506
8.88 -0.794787
8.89 -0.820165
8.9 -0.848994
8.91 -0.880381
8.92 -0.912921
8.93 -0.945388
8.94 -0.976411
8.95 -1.00522
8.96 -1.03069
8.97 -1.0525
8.98 -1.07036
8.99 -1.084
9 -1.09409
9.01 -1.10051
9.02 -1.10432
9.03 -1.10594
9.04 -1.10616
9.05 -1.10564
9.06 -1.10494
9.07 -1.1045
9.08 -1.1046
9.09 -1.10525
9.1 -1.10628
9.11 -1.10728
9.12 -1.10771
9.13 -1.1066
9.14 -1.10324
9.15 -1.09649
9.16 -1.08527
9.17 -1.06896
9.18 -1.04587
9.19 -1.01623
9.2 -0.978696
9.21 -0.933541
9.22 -0.880785
9.23 -0.820374
9.24 -0.753783
9.25 -0.681159
9.26 -0.604607
9.27 -0.525373
9.28 -0.445426
9.29 -0.366558
9.3 -0.291212
9.31 -0.220803
9.32 -0.157898
9.33 -0.103765
9.34 -0.0597732
9.35 -0.0277909
9.36 -0.00714771
9.37 2.19218e-06
9.38 -0.00445113
9.39 -0.0207617
9.4 -0.0477387
9.41 -0.0834312
9.42 -0.127014
9.43 -0.175499
9.44 -0.227298
9.45 -0.279893
9.46 -0.331298
9.47 -0.379219
9.48 -0.422466
9.49 -0.458715
9.5 -0.487846
9.51 -0.508791
9.52 -0.521451
9.53 -0.526638
9.54 -0.524181
9.55 -0.516186
9.56 -0.503388
9.57 -0.487775
9.58 -0.470915
9.59 -0.454627
9.6 -0.440302
9.61 -0.429839
9.62 -0.423906
9.63 -0.423642
9.64 -0.42956
9.65 -0.441393
9.66 -0.459708
9.67 -0.483113
9.68 -0.511453
9.69 -0.543394
9.7 -0.577954
9.71 -0.614082
9.72 -0.650656
9.73 -0.686713
9.74 -0.721547
9.75 -0.754512
9.76 -0.785187
9.77 -0.813512
9.78 -0.839043
9.79 -0.862112
9.8 -0.882319
9.81 -0.89963
9.82 -0.913636
9.83 -0.923294
9.84 -0.928065
9.85 -0.925427
9.86 -0.914293
9.87 -0.891685
9.88 -0.85457
9.89 -0.801073
9.9 -0.725216
9.91 -0.626978
9.92 -0.500417
9.93 -0.344644
9.94 -0.157718
9.95 0.0637353
9.96 0.316102
9.97 0.603338
9.98 0.918874
9.99 1.26139
10 1.62565
10.01 2.00492
10.02 2.39323
10.03 2.78181
10.04 3.16197
10.05 3.52506
10.06 3.86288
10.07 4.16436
10.08 4.42646
10.09 4.63534
10.1 4.79221
10.11 4.88959
10.12 4.92519
10.13 4.90256
10.14 4.81525
10.15 4.67519
10.16 4.48068
10.17 4.24175
10.18 3.96518
10.19 3.65765
10.2 3.33051
10.21 2.99046
10.22 2.64783
10.23 2.31027
10.24 1.98575
10.25 1.67911
10.26 1.39859
10.27 1.14407
10.28 0.921112
10.29 0.728541
10.3 0.565945
10.31 0.433461
10.32 0.325351
10.33 0.241735
10.34 0.175596
10.35 0.124092
10.36 0.082559
10.37 0.0466642
10.38 0.0129371
10.39 -0.0219545
10.4 -0.0607375
10.41 -0.105053
10.42 -0.155899
10.43 -0.214113
10.44 -0.278615
10.45 -0.349465
10.46 -0.424565
10.47 -0.502654
10.48 -0.581771
10.49 -0.660178
10.5 -0.735726
10.51 -0.807258
10.52 -0.872855
10.53 -0.931759
10.54 -0.983255
10.55 -1.02634
10.56 -1.06183
10.57 -1.08862
10.58 -1.10813
10.59 -1.12034
10.6 -1.12587
10.61 -1.12575
10.62 -1.1199
10.63 -1.10966
10.64 -1.09502
10.65 -1.0767
10.66 -1.05503
10.67 -1.03009
10.68 -1.00249
10.69 -0.972027
10.7 -0.939325
10.71 -0.904518
10.72 -0.868025
10.73 -0.830393
10.74 -0.792144
10.75 -0.754041
10.76 -0.716927
10.77 -0.681665
10.78 -0.649112
10.79 -0.620498
10.8 -0.596196
10.81 -0.5778
10.82 -0.56527
10.83 -0.55951
10.84 -0.560871
10.85 -0.568979
10.86 -0.584636
10.87 -0.606451
10.88 -0.634596
10.89 -0.667858
10.9 -0.705363
10.91 -0.746207
10.92 -0.788976
10.93 -0.832668
10.94 -0.876001
10.95 -0.917886
10.96 -0.957233
10.97 -0.993431
10.98 -1.02523
10.99 -1.05277
11 -1.0752
11.01 -1.09273
11.02 -1.10548
11.03 -1.11343
11.04 -1.11756
11.05 -1.11794
11.06 -1.11577
11.07 -1.11167
11.08 -1.10657
11.09 -1.10135
11.1 -1.09692
11.11 -1.0939
11.12 -1.0931
11.13 -1.09484
11.14 -1.09932
11.15 -1.10671
11.16 -1.11639
11.17 -1.12803
11.18 -1.14043
11.19 -1.1524
11.2 -1.16221
11.21 -1.16831
11.22 -1.16773
11.23 -1.15921
11.24 -1.1393
11.25 -1.10616
11.26 -1.05768
11.27 -0.990416
11.28 -0.904839
11.29 -0.796529
11.3 -0.667444
11.31 -0.516021
11.32 -0.342816
11.33 -0.150473
11.34 0.0613352
11.35 0.287138
11.36 0.52498
11.37 0.769652
11.38 1.0167
11.39 1.26049
11.4 1.49647
11.41 1.71738
11.42 1.91973
11.43 2.09757
11.44 2.24608
11.45 2.36398
11.46 2.44372
11.47 2.48892
11.48 2.4946
11.49 2.46356
11.5 2.39726
11.51 2.29596
11.52 2.16667
11.53 2.0095
11.54 1.8326
11.55 1.6396
11.56 1.43623
11.57 1.22799
11.58 1.01998
11.59 0.816655
11.6 0.622731
11.61 0.441176
11.62 0.274337
11.63 0.125191
11.64 -0.00745148
11.65 -0.12091
11.66 -0.218204
11.67 -0.299548
11.68 -0.366906
11.69 -0.423221
11.7 -0.469667
11.71 -0.509981
11.72 -0.545806
11.73 -0.579634
11.74 -0.613108
11.75 -0.647693
11.76 -0.684034
11.77 -0.722766
11.78 -0.763406
11.79 -0.80543
11.8 -0.847655
11.81 -0.88878
11.82 -0.926708
11.83 -0.960118
11.84 -0.986518
11.85 -1.00439
11.86 -1.01217
11.87 -1.00749
11.88 -0.990631
11.89 -0.958729
11.9 -0.913099
11.91 -0.852753
11.92 -0.777973
11.93 -0.690381
11.94 -0.589338
11.95 -0.478071
11.96 -0.357054
11.97 -0.228918
11.98 -0.0956849
11.99 0.0404268
12 0.176894
12.01 0.311055
12.02 0.440711
12.03 0.563264
12.04 0.67619
12.05 0.778248
12.06 0.865671
12.07 0.938938
12.08 0.994972
12.09 1.03379
12.1 1.05494
12.11 1.05699
12.12 1.04238
12.13 1.00928
12.14 0.961104
12.15 0.898393
12.16 0.823205
12.17 0.738429
12.18 0.645498
12.19 0.548053
12.2 0.448224
12.21 0.348845
12.22 0.252128
12.23 0.160642
12.24 0.0754054
12.25 -0.00112679
12.26 -0.069139
12.27 -0.12776
12.28 -0.177125
12.29 -0.218464
12.3 -0.25183
12.31 -0.27971
12.32 -0.303133
12.33 -0.324252
12.34 -0.344756
12.35 -0.366496
12.36 -0.390662
12.37 -0.418862
12.38 -0.451292
12.39 -0.488388
12.4 -0.529788
