# xPDFsuite Configuration #
[PDF]
wavelength = 0.1432
dataformat = twotheta
inputfile = 1_1Pd_CeO2_cycle-00474.chi
backgroundfile = background-00000.chi
mode = xray
bgscale = 1.007
composition = CeO2
outputtype = gr
qmaxinst = 28.8974762299
qmin = 0.5
qmax = 27.9
rmax = 50.0
rmin = 0.0
rstep = 0.01
rpoly = 1.8657

[Misc]
inputdir = G:/SankarDec16/1Pd/Chi
savedir = D:/DATA/APS_CeO2/1Pd
backgroundfilefull = G:/SankarDec16/Background/background-00000.chi

#### start data
#S 1
#L r($\AA$)  G($\AA^{-2}$)
0 0
0.01 -0.00482315
0.02 -0.00928301
0.03 -0.0130055
0.04 -0.015709
0.05 -0.0172365
0.06 -0.0173361
0.07 -0.0161755
0.08 -0.0136737
0.09 -0.0101508
0.1 -0.0058286
0.11 -0.0010462
0.12 0.0038263
0.13 0.00837387
0.14 0.0123022
0.15 0.0152513
0.16 0.01701
0.17 0.0174941
0.18 0.0165315
0.19 0.0143689
0.2 0.0110159
0.21 0.00684571
0.22 0.0021342
0.23 -0.00273785
0.24 -0.00742207
0.25 -0.0114714
0.26 -0.0146746
0.27 -0.0167028
0.28 -0.0174256
0.29 -0.0168354
0.3 -0.0148488
0.31 -0.0117795
0.32 -0.00772733
0.33 -0.00310122
0.34 0.00178205
0.35 0.00651791
0.36 0.0107965
0.37 0.01416
0.38 0.01649
0.39 0.0175049
0.4 0.0171615
0.41 0.0155292
0.42 0.0126172
0.43 0.00879194
0.44 0.00423862
0.45 -0.000617359
0.46 -0.00543344
0.47 -0.00980029
0.48 -0.0134614
0.49 -0.0159704
0.5 -0.0173074
0.51 -0.0172516
0.52 -0.0158492
0.53 -0.0132438
0.54 -0.00953728
0.55 -0.00513108
0.56 -0.000287443
0.57 0.0045719
0.58 0.00909506
0.59 0.0128872
0.6 0.0157579
0.61 0.0172932
0.62 0.0175734
0.63 0.0164492
0.64 0.0140544
0.65 0.0106002
0.66 0.00627669
0.67 0.00150159
0.68 -0.00339814
0.69 -0.00802414
0.7 -0.0120319
0.71 -0.0150594
0.72 -0.0169915
0.73 -0.0174658
0.74 -0.0166587
0.75 -0.0144992
0.76 -0.0112017
0.77 -0.00703435
0.78 -0.00226541
0.79 0.00269118
0.8 0.00746102
0.81 0.0116879
0.82 0.015052
0.83 0.0172415
0.84 0.0182208
0.85 0.0176964
0.86 0.0159294
0.87 0.0129275
0.88 0.00897109
0.89 0.00436745
0.9 -0.000558476
0.91 -0.00542201
0.92 -0.00983275
0.93 -0.0135012
0.94 -0.0161597
0.95 -0.0175769
0.96 -0.0178023
0.97 -0.016651
0.98 -0.0144512
0.99 -0.0113063
1 -0.00755095
1.01 -0.0035132
1.02 0.000433216
1.03 0.00397534
1.04 0.00672894
1.05 0.00851656
1.06 0.00916234
1.07 0.00856599
1.08 0.00689843
1.09 0.00415962
1.1 0.000768326
1.11 -0.00300525
1.12 -0.00672503
1.13 -0.0100088
1.14 -0.0123416
1.15 -0.0134971
1.16 -0.0129945
1.17 -0.0107821
1.18 -0.00673608
1.19 -0.000850175
1.2 0.00652659
1.21 0.0152905
1.22 0.0248096
1.23 0.0346491
1.24 0.0441802
1.25 0.0528665
1.26 0.0599522
1.27 0.0651409
1.28 0.0676928
1.29 0.0675074
1.3 0.0643231
1.31 0.0579857
1.32 0.0489099
1.33 0.0369245
1.34 0.022865
1.35 0.00703753
1.36 -0.00984966
1.37 -0.027147
1.38 -0.0441171
1.39 -0.0601718
1.4 -0.0745215
1.41 -0.0867593
1.42 -0.0964062
1.43 -0.103007
1.44 -0.106687
1.45 -0.106858
1.46 -0.104103
1.47 -0.0982988
1.48 -0.0898272
1.49 -0.0791138
1.5 -0.0663856
1.51 -0.0523207
1.52 -0.037227
1.53 -0.0216751
1.54 -0.0060725
1.55 0.00912088
1.56 0.0236068
1.57 0.0368735
1.58 0.0488136
1.59 0.0590515
1.6 0.0674161
1.61 0.0738319
1.62 0.0779498
1.63 0.0799871
1.64 0.0796118
1.65 0.0770453
1.66 0.0722734
1.67 0.065325
1.68 0.0565545
1.69 0.0458857
1.7 0.0338629
1.71 0.0206656
1.72 0.00672095
1.73 -0.00757309
1.74 -0.0217689
1.75 -0.0354735
1.76 -0.0481759
1.77 -0.0595732
1.78 -0.0693257
1.79 -0.0771012
1.8 -0.0829647
1.81 -0.0865386
1.82 -0.088239
1.83 -0.0880709
1.84 -0.0864089
1.85 -0.0836696
1.86 -0.0802596
1.87 -0.0767347
1.88 -0.0736175
1.89 -0.0713666
1.9 -0.0703987
1.91 -0.0711202
1.92 -0.0735429
1.93 -0.0780313
1.94 -0.0841862
1.95 -0.0919266
1.96 -0.100786
1.97 -0.110247
1.98 -0.119676
1.99 -0.128438
2 -0.135701
2.01 -0.140894
2.02 -0.143378
2.03 -0.142468
2.04 -0.138149
2.05 -0.129542
2.06 -0.117191
2.07 -0.100799
2.08 -0.0807049
2.09 -0.0573676
2.1 -0.0309219
2.11 -0.00222439
2.12 0.0285029
2.13 0.0605839
2.14 0.0936558
2.15 0.127383
2.16 0.161488
2.17 0.195892
2.18 0.230533
2.19 0.265499
2.2 0.300909
2.21 0.33687
2.22 0.373568
2.23 0.41094
2.24 0.44899
2.25 0.487404
2.26 0.525787
2.27 0.563442
2.28 0.599705
2.29 0.63318
2.3 0.663137
2.31 0.688017
2.32 0.706597
2.33 0.718035
2.34 0.720317
2.35 0.713813
2.36 0.696704
2.37 0.669691
2.38 0.632676
2.39 0.5859
2.4 0.531221
2.41 0.46884
2.42 0.40156
2.43 0.330821
2.44 0.258976
2.45 0.188042
2.46 0.120502
2.47 0.0577179
2.48 0.00206687
2.49 -0.0457861
2.5 -0.0848866
2.51 -0.114531
2.52 -0.135835
2.53 -0.14812
2.54 -0.153797
2.55 -0.153665
2.56 -0.149726
2.57 -0.143839
2.58 -0.137928
2.59 -0.133662
2.6 -0.132899
2.61 -0.136584
2.62 -0.145585
2.63 -0.160506
2.64 -0.180642
2.65 -0.206227
2.66 -0.235486
2.67 -0.267471
2.68 -0.300449
2.69 -0.332865
2.7 -0.36279
2.71 -0.38914
2.72 -0.410119
2.73 -0.425287
2.74 -0.434078
2.75 -0.436242
2.76 -0.432875
2.77 -0.424072
2.78 -0.411904
2.79 -0.397592
2.8 -0.383057
2.81 -0.369925
2.82 -0.360259
2.83 -0.35497
2.84 -0.355821
2.85 -0.362971
2.86 -0.37674
2.87 -0.397036
2.88 -0.422457
2.89 -0.452429
2.9 -0.48467
2.91 -0.517551
2.92 -0.548916
2.93 -0.577047
2.94 -0.599563
2.95 -0.615822
2.96 -0.623892
2.97 -0.62396
2.98 -0.615894
2.99 -0.600053
3 -0.578267
3.01 -0.551373
3.02 -0.522072
3.03 -0.492288
3.04 -0.464459
3.05 -0.440463
3.06 -0.42289
3.07 -0.412313
3.08 -0.410719
3.09 -0.417736
3.1 -0.433347
3.11 -0.456981
3.12 -0.486579
3.13 -0.52106
3.14 -0.557576
3.15 -0.594049
3.16 -0.628007
3.17 -0.657641
3.18 -0.680475
3.19 -0.696223
3.2 -0.703252
3.21 -0.702346
3.22 -0.693993
3.23 -0.679366
3.24 -0.660794
3.25 -0.640225
3.26 -0.62046
3.27 -0.604106
3.28 -0.593695
3.29 -0.59086
3.3 -0.598231
3.31 -0.61531
3.32 -0.643542
3.33 -0.681262
3.34 -0.727305
3.35 -0.77963
3.36 -0.835157
3.37 -0.890892
3.38 -0.943573
3.39 -0.989806
3.4 -1.02666
3.41 -1.05246
3.42 -1.06415
3.43 -1.06294
3.44 -1.04739
3.45 -1.02005
3.46 -0.982731
3.47 -0.938296
3.48 -0.890642
3.49 -0.843604
3.5 -0.800887
3.51 -0.766311
3.52 -0.742741
3.53 -0.731397
3.54 -0.734425
3.55 -0.749232
3.56 -0.775007
3.57 -0.806865
3.58 -0.840002
3.59 -0.867275
3.6 -0.882632
3.61 -0.874898
3.62 -0.839316
3.63 -0.765678
3.64 -0.647367
3.65 -0.481269
3.66 -0.257474
3.67 0.0181491
3.68 0.351965
3.69 0.735781
3.7 1.1653
3.71 1.63348
3.72 2.1271
3.73 2.6366
3.74 3.14627
3.75 3.64207
3.76 4.10858
3.77 4.53424
3.78 4.89939
3.79 5.20108
3.8 5.42088
3.81 5.55861
3.82 5.6088
3.83 5.56647
3.84 5.44289
3.85 5.22975
3.86 4.9473
3.87 4.59872
3.88 4.19795
3.89 3.75905
3.9 3.29303
3.91 2.81626
3.92 2.34108
3.93 1.87989
3.94 1.44298
3.95 1.04128
3.96 0.677289
3.97 0.362695
3.98 0.0928429
3.99 -0.127907
4 -0.302376
4.01 -0.435697
4.02 -0.528342
4.03 -0.590875
4.04 -0.625658
4.05 -0.64151
4.06 -0.64377
4.07 -0.638051
4.08 -0.629545
4.09 -0.622267
4.1 -0.618909
4.11 -0.621605
4.12 -0.631089
4.13 -0.646929
4.14 -0.668808
4.15 -0.694469
4.16 -0.722339
4.17 -0.74995
4.18 -0.775191
4.19 -0.795609
4.2 -0.810051
4.21 -0.815829
4.22 -0.813154
4.23 -0.800712
4.24 -0.778575
4.25 -0.747453
4.26 -0.706997
4.27 -0.659248
4.28 -0.6043
4.29 -0.543887
4.3 -0.478925
4.31 -0.410341
4.32 -0.339331
4.33 -0.266369
4.34 -0.192374
4.35 -0.117773
4.36 -0.0430763
4.37 0.0313201
4.38 0.104868
4.39 0.177194
4.4 0.247479
4.41 0.315113
4.42 0.379204
4.43 0.438448
4.44 0.492333
4.45 0.53859
4.46 0.577109
4.47 0.60609
4.48 0.624659
4.49 0.632606
4.5 0.628108
4.51 0.612633
4.52 0.584903
4.53 0.546496
4.54 0.498072
4.55 0.440542
4.56 0.376208
4.57 0.305875
4.58 0.232211
4.59 0.156743
4.6 0.0814577
4.61 0.0078573
4.62 -0.0622173
4.63 -0.128142
4.64 -0.188492
4.65 -0.243223
4.66 -0.292095
4.67 -0.33502
4.68 -0.373006
4.69 -0.405952
4.7 -0.435346
4.71 -0.4617
4.72 -0.485981
4.73 -0.508983
4.74 -0.531273
4.75 -0.553371
4.76 -0.575514
4.77 -0.59774
4.78 -0.61991
4.79 -0.641671
4.8 -0.662673
4.81 -0.68221
4.82 -0.699969
4.83 -0.715326
4.84 -0.727914
4.85 -0.737645
4.86 -0.744089
4.87 -0.747779
4.88 -0.748646
4.89 -0.747388
4.9 -0.744515
4.91 -0.740702
4.92 -0.736692
4.93 -0.733258
4.94 -0.730964
4.95 -0.730435
4.96 -0.732069
4.97 -0.735969
4.98 -0.742466
4.99 -0.751104
5 -0.761873
5.01 -0.774183
5.02 -0.787599
5.03 -0.801579
5.04 -0.815583
5.05 -0.829059
5.06 -0.841667
5.07 -0.853027
5.08 -0.862936
5.09 -0.871372
5.1 -0.878133
5.11 -0.883468
5.12 -0.887221
5.13 -0.889509
5.14 -0.890209
5.15 -0.888964
5.16 -0.885594
5.17 -0.879013
5.18 -0.868815
5.19 -0.853647
5.2 -0.832274
5.21 -0.803793
5.22 -0.765786
5.23 -0.718273
5.24 -0.658781
5.25 -0.587349
5.26 -0.503297
5.27 -0.405943
5.28 -0.297105
5.29 -0.176054
5.3 -0.0461489
5.31 0.0911713
5.32 0.232746
5.33 0.375401
5.34 0.515144
5.35 0.64875
5.36 0.771366
5.37 0.879987
5.38 0.971171
5.39 1.04075
5.4 1.08885
5.41 1.11002
5.42 1.10718
5.43 1.0783
5.44 1.02483
5.45 0.949606
5.46 0.852856
5.47 0.740412
5.48 0.613995
5.49 0.478819
5.5 0.338575
5.51 0.19751
5.52 0.0591481
5.53 -0.0721572
5.54 -0.194475
5.55 -0.304785
5.56 -0.401511
5.57 -0.484478
5.58 -0.551691
5.59 -0.605563
5.6 -0.645238
5.61 -0.673174
5.62 -0.69067
5.63 -0.699128
5.64 -0.701076
5.65 -0.697294
5.66 -0.69
5.67 -0.68001
5.68 -0.668247
5.69 -0.655219
5.7 -0.640895
5.71 -0.625254
5.72 -0.607652
5.73 -0.587605
5.74 -0.56444
5.75 -0.537277
5.76 -0.506067
5.77 -0.469779
5.78 -0.429082
5.79 -0.383888
5.8 -0.334956
5.81 -0.283359
5.82 -0.230221
5.83 -0.177182
5.84 -0.126008
5.85 -0.0783758
5.86 -0.0359512
5.87 -0.000781067
5.88 0.026654
5.89 0.0438336
5.9 0.051449
5.91 0.048378
5.92 0.0348893
5.93 0.0119731
5.94 -0.0205462
5.95 -0.0602805
5.96 -0.106717
5.97 -0.157726
5.98 -0.211873
5.99 -0.267583
6 -0.323393
6.01 -0.377914
6.02 -0.430335
6.03 -0.47979
6.04 -0.525874
6.05 -0.568641
6.06 -0.607818
6.07 -0.644189
6.08 -0.677877
6.09 -0.709655
6.1 -0.740014
6.11 -0.769432
6.12 -0.798355
6.13 -0.826957
6.14 -0.855329
6.15 -0.883314
6.16 -0.91059
6.17 -0.936789
6.18 -0.961168
6.19 -0.983427
6.2 -1.00271
6.21 -1.01878
6.22 -1.03128
6.23 -1.03988
6.24 -1.04503
6.25 -1.04648
6.26 -1.04519
6.27 -1.0415
6.28 -1.0362
6.29 -1.02999
6.3 -1.0234
6.31 -1.01685
6.32 -1.01042
6.33 -1.00375
6.34 -0.996107
6.35 -0.985975
6.36 -0.971964
6.37 -0.950761
6.38 -0.920525
6.39 -0.877391
6.4 -0.817838
6.41 -0.739573
6.42 -0.636398
6.43 -0.508737
6.44 -0.350724
6.45 -0.162785
6.46 0.0563219
6.47 0.308102
6.48 0.587918
6.49 0.897576
6.5 1.22925
6.51 1.5799
6.52 1.94269
6.53 2.3106
6.54 2.6754
6.55 3.02973
6.56 3.36346
6.57 3.66953
6.58 3.94026
6.59 4.16584
6.6 4.34554
6.61 4.46627
6.62 4.5326
6.63 4.53827
6.64 4.48394
6.65 4.37422
6.66 4.20572
6.67 3.9907
6.68 3.72922
6.69 3.43206
6.7 3.10606
6.71 2.75886
6.72 2.40036
6.73 2.03811
6.74 1.68055
6.75 1.33515
6.76 1.00874
6.77 0.705164
6.78 0.432175
6.79 0.188531
6.8 -0.0200813
6.81 -0.195677
6.82 -0.338337
6.83 -0.4479
6.84 -0.529938
6.85 -0.583144
6.86 -0.614717
6.87 -0.626363
6.88 -0.622288
6.89 -0.60659
6.9 -0.581627
6.91 -0.551502
6.92 -0.518251
6.93 -0.484358
6.94 -0.451407
6.95 -0.420865
6.96 -0.393266
6.97 -0.369705
6.98 -0.34991
6.99 -0.334264
7 -0.322679
7.01 -0.31485
7.02 -0.311159
7.03 -0.311009
7.04 -0.314887
7.05 -0.322588
7.06 -0.334293
7.07 -0.350425
7.08 -0.370672
7.09 -0.395865
7.1 -0.425387
7.11 -0.459508
7.12 -0.49791
7.13 -0.53997
7.14 -0.585452
7.15 -0.633138
7.16 -0.68232
7.17 -0.731765
7.18 -0.780405
7.19 -0.826902
7.2 -0.870482
7.21 -0.909544
7.22 -0.943872
7.23 -0.972506
7.24 -0.995146
7.25 -1.01207
7.26 -1.02281
7.27 -1.02866
7.28 -1.02972
7.29 -1.02727
7.3 -1.02219
7.31 -1.01547
7.32 -1.00814
7.33 -1.00102
7.34 -0.994657
7.35 -0.989416
7.36 -0.985255
7.37 -0.981771
7.38 -0.978194
7.39 -0.973495
7.4 -0.966075
7.41 -0.954425
7.42 -0.936833
7.43 -0.910909
7.44 -0.875934
7.45 -0.828597
7.46 -0.769206
7.47 -0.695877
7.48 -0.608232
7.49 -0.507119
7.5 -0.391513
7.51 -0.264515
7.52 -0.126493
7.53 0.0193498
7.54 0.17052
7.55 0.323852
7.56 0.476083
7.57 0.623123
7.58 0.762199
7.59 0.889458
7.6 1.00172
7.61 1.09743
7.62 1.17197
7.63 1.22666
7.64 1.2579
7.65 1.26705
7.66 1.25416
7.67 1.21899
7.68 1.16525
7.69 1.0921
7.7 1.0045
7.71 0.90391
7.72 0.793649
7.73 0.67702
7.74 0.556702
7.75 0.436028
7.76 0.317864
7.77 0.20471
7.78 0.098728
7.79 0.00247989
7.8 -0.0836803
7.81 -0.156793
7.82 -0.217822
7.83 -0.265462
7.84 -0.299849
7.85 -0.322067
7.86 -0.331311
7.87 -0.330251
7.88 -0.318807
7.89 -0.299201
7.9 -0.272828
7.91 -0.24118
7.92 -0.20642
7.93 -0.170044
7.94 -0.134035
7.95 -0.100079
7.96 -0.0698957
7.97 -0.0445818
7.98 -0.0262199
7.99 -0.0148542
8 -0.0121916
8.01 -0.0181266
8.02 -0.0329148
8.03 -0.0569618
8.04 -0.08891
8.05 -0.129301
8.06 -0.176103
8.07 -0.228719
8.08 -0.285701
8.09 -0.345538
8.1 -0.406974
8.11 -0.468467
8.12 -0.52868
8.13 -0.586512
8.14 -0.641064
8.15 -0.691359
8.16 -0.737451
8.17 -0.778446
8.18 -0.815076
8.19 -0.847272
8.2 -0.875546
8.21 -0.900614
8.22 -0.92269
8.23 -0.942648
8.24 -0.960569
8.25 -0.976719
8.26 -0.990917
8.27 -1.00246
8.28 -1.01082
8.29 -1.01402
8.3 -1.01108
8.31 -0.999581
8.32 -0.977196
8.33 -0.942428
8.34 -0.890915
8.35 -0.822771
8.36 -0.733783
8.37 -0.623745
8.38 -0.491517
8.39 -0.335323
8.4 -0.15808
8.41 0.0423264
8.42 0.260824
8.43 0.495973
8.44 0.743594
8.45 0.998919
8.46 1.25716
8.47 1.51267
8.48 1.7591
8.49 1.99098
8.5 2.20291
8.51 2.38774
8.52 2.54407
8.53 2.66275
8.54 2.74556
8.55 2.78775
8.56 2.78854
8.57 2.75058
8.58 2.67021
8.59 2.5555
8.6 2.40555
8.61 2.22722
8.62 2.02488
8.63 1.80309
8.64 1.56907
8.65 1.32723
8.66 1.08417
8.67 0.844854
8.68 0.614439
8.69 0.396123
8.7 0.195397
8.71 0.0123117
8.72 -0.149103
8.73 -0.289432
8.74 -0.408482
8.75 -0.505683
8.76 -0.58458
8.77 -0.644213
8.78 -0.689275
8.79 -0.721045
8.8 -0.742417
8.81 -0.756356
8.82 -0.764698
8.83 -0.770351
8.84 -0.774988
8.85 -0.780355
8.86 -0.78759
8.87 -0.797737
8.88 -0.810886
8.89 -0.827635
8.9 -0.84731
8.91 -0.869689
8.92 -0.89406
8.93 -0.919621
8.94 -0.945608
8.95 -0.971207
8.96 -0.995618
8.97 -1.01828
8.98 -1.03873
8.99 -1.05647
9 -1.07165
9.01 -1.08386
9.02 -1.09359
9.03 -1.1009
9.04 -1.10614
9.05 -1.10973
9.06 -1.11186
9.07 -1.11298
9.08 -1.11319
9.09 -1.11265
9.1 -1.11132
9.11 -1.10897
9.12 -1.1054
9.13 -1.09993
9.14 -1.09223
9.15 -1.08152
9.16 -1.06707
9.17 -1.04849
9.18 -1.0245
9.19 -0.995334
9.2 -0.959928
9.21 -0.918496
9.22 -0.871022
9.23 -0.817417
9.24 -0.758819
9.25 -0.695278
9.26 -0.628445
9.27 -0.559274
9.28 -0.48931
9.29 -0.419995
9.3 -0.353261
9.31 -0.290294
9.32 -0.233166
9.33 -0.182957
9.34 -0.140822
9.35 -0.108335
9.36 -0.0850284
9.37 -0.0727401
9.38 -0.0700184
9.39 -0.0771745
9.4 -0.093351
9.41 -0.117036
9.42 -0.147737
9.43 -0.183042
9.44 -0.221839
9.45 -0.262121
9.46 -0.302345
9.47 -0.340773
9.48 -0.376355
9.49 -0.407373
9.5 -0.433572
9.51 -0.45411
9.52 -0.468822
9.53 -0.478216
9.54 -0.482106
9.55 -0.481958
9.56 -0.47825
9.57 -0.472387
9.58 -0.465474
9.59 -0.458791
9.6 -0.453354
9.61 -0.450504
9.62 -0.450757
9.63 -0.454939
9.64 -0.463452
9.65 -0.476147
9.66 -0.493473
9.67 -0.514479
9.68 -0.53911
9.69 -0.566449
9.7 -0.595826
9.71 -0.626519
9.72 -0.657699
9.73 -0.688668
9.74 -0.718833
9.75 -0.747631
9.76 -0.774593
9.77 -0.799512
9.78 -0.821738
9.79 -0.841329
9.8 -0.85755
9.81 -0.870088
9.82 -0.878292
9.83 -0.88085
9.84 -0.877304
9.85 -0.86501
9.86 -0.843284
9.87 -0.809462
9.88 -0.761125
9.89 -0.697034
9.9 -0.612242
9.91 -0.507362
9.92 -0.377691
9.93 -0.22304
9.94 -0.042215
9.95 0.167123
9.96 0.401645
9.97 0.664212
9.98 0.949272
9.99 1.25556
10 1.57873
10.01 1.91339
10.02 2.25471
10.03 2.59582
10.04 2.92983
10.05 3.24997
10.06 3.5498
10.07 3.82054
10.08 4.05978
10.09 4.25637
10.1 4.41109
10.11 4.51765
10.12 4.57376
10.13 4.58184
10.14 4.53578
10.15 4.44475
10.16 4.30624
10.17 4.12772
10.18 3.91387
10.19 3.66896
10.2 3.40223
10.21 3.11764
10.22 2.82416
10.23 2.52748
10.24 2.23426
10.25 1.94927
10.26 1.67911
10.27 1.42544
10.28 1.19331
10.29 0.983344
10.3 0.796452
10.31 0.634203
10.32 0.493142
10.33 0.374989
10.34 0.274783
10.35 0.191352
10.36 0.12163
10.37 0.0620973
10.38 0.0108565
10.39 -0.0358533
10.4 -0.0799919
10.41 -0.123942
10.42 -0.169284
10.43 -0.217523
10.44 -0.269071
10.45 -0.324863
10.46 -0.384322
10.47 -0.447309
10.48 -0.513051
10.49 -0.580522
10.5 -0.648698
10.51 -0.716333
10.52 -0.7821
10.53 -0.844861
10.54 -0.903574
10.55 -0.956842
10.56 -1.00449
10.57 -1.04485
10.58 -1.07832
10.59 -1.1041
10.6 -1.12204
10.61 -1.13267
10.62 -1.13517
10.63 -1.13098
10.64 -1.11973
10.65 -1.10244
10.66 -1.07973
10.67 -1.05202
10.68 -1.02058
10.69 -0.985726
10.7 -0.948719
10.71 -0.91023
10.72 -0.871185
10.73 -0.832365
10.74 -0.794715
10.75 -0.758791
10.76 -0.725513
10.77 -0.695363
10.78 -0.668838
10.79 -0.64669
10.8 -0.628753
10.81 -0.615989
10.82 -0.607916
10.83 -0.604918
10.84 -0.606954
10.85 -0.613582
10.86 -0.62521
10.87 -0.640875
10.88 -0.660728
10.89 -0.684085
10.9 -0.710527
10.91 -0.739724
10.92 -0.770898
10.93 -0.803771
10.94 -0.837579
10.95 -0.871847
10.96 -0.905963
10.97 -0.939442
10.98 -0.971581
10.99 -1.00208
11 -1.03027
11.01 -1.05587
11.02 -1.07856
11.03 -1.09786
11.04 -1.114
11.05 -1.12643
11.06 -1.13566
11.07 -1.14165
11.08 -1.1447
11.09 -1.14536
11.1 -1.14382
11.11 -1.14088
11.12 -1.13691
11.13 -1.13248
11.14 -1.12802
11.15 -1.12385
11.16 -1.12008
11.17 -1.11668
11.18 -1.11327
11.19 -1.10928
11.2 -1.10371
11.21 -1.09562
11.22 -1.08297
11.23 -1.06476
11.24 -1.03841
11.25 -1.00233
11.26 -0.954721
11.27 -0.892634
11.28 -0.816141
11.29 -0.721391
11.3 -0.609612
11.31 -0.47919
11.32 -0.330205
11.33 -0.164577
11.34 0.0184335
11.35 0.214375
11.36 0.422012
11.37 0.637081
11.38 0.855965
11.39 1.07414
11.4 1.28754
11.41 1.49028
11.42 1.67905
11.43 1.84872
11.44 1.99496
11.45 2.11631
11.46 2.20607
11.47 2.2668
11.48 2.29382
11.49 2.28902
11.5 2.25311
11.51 2.18567
11.52 2.09237
11.53 1.97243
11.54 1.83268
11.55 1.67562
11.56 1.5058
11.57 1.32796
11.58 1.14575
11.59 0.963599
11.6 0.785176
11.61 0.613525
11.62 0.450991
11.63 0.300396
11.64 0.161594
11.65 0.0372155
11.66 -0.0743851
11.67 -0.172769
11.68 -0.258833
11.69 -0.334495
11.7 -0.399896
11.71 -0.457954
11.72 -0.509355
11.73 -0.556053
11.74 -0.599271
11.75 -0.639957
11.76 -0.679102
11.77 -0.716967
11.78 -0.753824
11.79 -0.78941
11.8 -0.82318
11.81 -0.854584
11.82 -0.882181
11.83 -0.905442
11.84 -0.92262
11.85 -0.932812
11.86 -0.934968
11.87 -0.927322
11.88 -0.910152
11.89 -0.881167
11.9 -0.841311
11.91 -0.78967
11.92 -0.726273
11.93 -0.652253
11.94 -0.566804
11.95 -0.472411
11.96 -0.369183
11.97 -0.259144
11.98 -0.143838
11.99 -0.0249194
12 0.0954179
12.01 0.215128
12.02 0.332161
12.03 0.444316
12.04 0.549328
12.05 0.645939
12.06 0.730865
12.07 0.804226
12.08 0.863259
12.09 0.907749
12.1 0.937135
12.11 0.949979
12.12 0.948221
12.13 0.930066
12.14 0.898324
12.15 0.853264
12.16 0.79647
12.17 0.730346
12.18 0.655782
12.19 0.575954
12.2 0.492371
12.21 0.407429
12.22 0.322929
12.23 0.240856
12.24 0.162279
12.25 0.0890213
12.26 0.0212492
12.27 -0.0402813
12.28 -0.0954808
12.29 -0.145052
12.3 -0.188853
12.31 -0.228498
12.32 -0.264507
12.33 -0.298245
12.34 -0.330739
12.35 -0.363032
12.36 -0.395917
12.37 -0.430153
12.38 -0.465889
12.39 -0.503191
