# xPDFsuite Configuration #
[PDF]
wavelength = 0.1432
dataformat = twotheta
inputfile = 1_1Pd_CeO2_cycle-00324.chi
backgroundfile = background-00000.chi
mode = xray
bgscale = 1.007
composition = CeO2
outputtype = gr
qmaxinst = 28.8974762299
qmin = 0.5
qmax = 27.9
rmax = 50.0
rmin = 0.0
rstep = 0.01
rpoly = 1.8657

[Misc]
inputdir = G:/SankarDec16/1Pd/Chi
savedir = D:/DATA/APS_CeO2/1Pd
backgroundfilefull = G:/SankarDec16/Background/background-00000.chi

#### start data
#S 1
#L r($\AA$)  G($\AA^{-2}$)
0 0
0.01 -0.0071534
0.02 -0.0137693
0.03 -0.0192942
0.04 -0.0233108
0.05 -0.0255866
0.06 -0.0257478
0.07 -0.0240417
0.08 -0.0203468
0.09 -0.0151359
0.1 -0.00873588
0.11 -0.00164737
0.12 0.00558164
0.13 0.0123381
0.14 0.0181844
0.15 0.0225868
0.16 0.0252305
0.17 0.0259878
0.18 0.0246009
0.19 0.0214319
0.2 0.0164907
0.21 0.0103278
0.22 0.00334922
0.23 -0.00388315
0.24 -0.0108521
0.25 -0.0168968
0.26 -0.0216994
0.27 -0.0247707
0.28 -0.0259122
0.29 -0.0251077
0.3 -0.022227
0.31 -0.0177309
0.32 -0.0117602
0.33 -0.00491882
0.34 0.00232688
0.35 0.00937886
0.36 0.0157743
0.37 0.0208351
0.38 0.0243775
0.39 0.0259792
0.4 0.0255679
0.41 0.0232394
0.42 0.0189978
0.43 0.0133819
0.44 0.00665764
0.45 -0.000545372
0.46 -0.00772134
0.47 -0.014263
0.48 -0.0197836
0.49 -0.0236184
0.5 -0.0257269
0.51 -0.0257733
0.52 -0.023815
0.53 -0.0200564
0.54 -0.0146364
0.55 -0.00814742
0.56 -0.00096864
0.57 0.00627259
0.58 0.0130544
0.59 0.0187878
0.6 0.0231802
0.61 0.0256109
0.62 0.0261848
0.63 0.024669
0.64 0.0212487
0.65 0.0162278
0.66 0.00987497
0.67 0.00280924
0.68 -0.00449347
0.69 -0.0114365
0.7 -0.0175059
0.71 -0.0221571
0.72 -0.0252059
0.73 -0.0261038
0.74 -0.0250969
0.75 -0.0220655
0.76 -0.0173146
0.77 -0.0112336
0.78 -0.00420807
0.79 0.00314443
0.8 0.0102744
0.81 0.0166432
0.82 0.0217694
0.83 0.0251786
0.84 0.0268034
0.85 0.0261935
0.86 0.0237234
0.87 0.0193913
0.88 0.0136054
0.89 0.00681949
0.9 -0.000486905
0.91 -0.00773117
0.92 -0.0143252
0.93 -0.0198198
0.94 -0.0237985
0.95 -0.0258921
0.96 -0.0261578
0.97 -0.0242869
0.98 -0.0207636
0.99 -0.015721
1 -0.0096564
1.01 -0.00306709
1.02 0.00348389
1.03 0.00949337
1.04 0.0143581
1.05 0.0177626
1.06 0.0193922
1.07 0.0190271
1.08 0.016879
1.09 0.0128411
1.1 0.00752192
1.11 0.00124096
1.12 -0.00538468
1.13 -0.0117941
1.14 -0.0172764
1.15 -0.021422
1.16 -0.0235381
1.17 -0.0234508
1.18 -0.0209132
1.19 -0.0158179
1.2 -0.00856327
1.21 0.000837413
1.22 0.0115723
1.23 0.0231633
1.24 0.0348259
1.25 0.0458765
1.26 0.0554159
1.27 0.0630068
1.28 0.0677772
1.29 0.0695529
1.3 0.0680155
1.31 0.0629837
1.32 0.0549261
1.33 0.0436855
1.34 0.0302186
1.35 0.0149111
1.36 -0.00141905
1.37 -0.0180396
1.38 -0.0341184
1.39 -0.0490554
1.4 -0.0620248
1.41 -0.0726821
1.42 -0.0806175
1.43 -0.085501
1.44 -0.0875912
1.45 -0.0865165
1.46 -0.0829803
1.47 -0.0770716
1.48 -0.0693064
1.49 -0.0601752
1.5 -0.0500613
1.51 -0.0395053
1.52 -0.0288633
1.53 -0.0184781
1.54 -0.00858851
1.55 0.000604835
1.56 0.00909222
1.57 0.0167227
1.58 0.0236464
1.59 0.0298405
1.6 0.0353825
1.61 0.0403314
1.62 0.0446276
1.63 0.0483166
1.64 0.0512184
1.65 0.0532628
1.66 0.0542617
1.67 0.0539591
1.68 0.0523089
1.69 0.0488742
1.7 0.0437918
1.71 0.0368371
1.72 0.0280882
1.73 0.0177247
1.74 0.00582288
1.75 -0.00712222
1.76 -0.0208296
1.77 -0.0347524
1.78 -0.0484268
1.79 -0.0612901
1.8 -0.0730057
1.81 -0.0829134
1.82 -0.0909835
1.83 -0.0968588
1.84 -0.100557
1.85 -0.102257
1.86 -0.102019
1.87 -0.100435
1.88 -0.097811
1.89 -0.0947858
1.9 -0.0918671
1.91 -0.0896451
1.92 -0.088466
1.93 -0.088925
1.94 -0.090997
1.95 -0.0948965
1.96 -0.100448
1.97 -0.107321
1.98 -0.115147
1.99 -0.123252
2 -0.130944
2.01 -0.13749
2.02 -0.142149
2.03 -0.144053
2.04 -0.142915
2.05 -0.137624
2.06 -0.12845
2.07 -0.114839
2.08 -0.0969162
2.09 -0.0750176
2.1 -0.0490799
2.11 -0.0200433
2.12 0.0119587
2.13 0.0460767
2.14 0.0818379
2.15 0.118736
2.16 0.15627
2.17 0.194169
2.18 0.232172
2.19 0.27019
2.2 0.308218
2.21 0.346309
2.22 0.384565
2.23 0.423024
2.24 0.461705
2.25 0.500455
2.26 0.539006
2.27 0.576821
2.28 0.613372
2.29 0.647433
2.3 0.678324
2.31 0.704566
2.32 0.724922
2.33 0.738479
2.34 0.743134
2.35 0.739074
2.36 0.724288
2.37 0.699266
2.38 0.663697
2.39 0.617574
2.4 0.562688
2.41 0.498947
2.42 0.429266
2.43 0.354994
2.44 0.278603
2.45 0.202289
2.46 0.128689
2.47 0.0595039
2.48 -0.00262104
2.49 -0.05669
2.5 -0.101454
2.51 -0.135878
2.52 -0.16096
2.53 -0.175656
2.54 -0.18249
2.55 -0.18213
2.56 -0.176694
2.57 -0.168235
2.58 -0.158807
2.59 -0.150456
2.6 -0.145282
2.61 -0.144583
2.62 -0.149512
2.63 -0.160981
2.64 -0.178418
2.65 -0.202358
2.66 -0.230943
2.67 -0.263311
2.68 -0.29761
2.69 -0.332105
2.7 -0.364712
2.71 -0.394033
2.72 -0.418029
2.73 -0.435985
2.74 -0.447101
2.75 -0.450891
2.76 -0.448395
2.77 -0.439498
2.78 -0.426411
2.79 -0.410349
2.8 -0.393404
2.81 -0.377399
2.82 -0.364601
2.83 -0.356177
2.84 -0.354137
2.85 -0.358833
2.86 -0.370749
2.87 -0.389935
2.88 -0.41495
2.89 -0.445307
2.9 -0.478512
2.91 -0.512838
2.92 -0.545904
2.93 -0.575777
2.94 -0.599819
2.95 -0.61722
2.96 -0.625815
2.97 -0.625728
2.98 -0.616773
2.99 -0.599317
3 -0.575365
3.01 -0.545877
3.02 -0.513863
3.03 -0.481517
3.04 -0.451601
3.05 -0.426242
3.06 -0.408403
3.07 -0.398694
3.08 -0.399368
3.09 -0.409935
3.1 -0.430301
3.11 -0.459699
3.12 -0.495678
3.13 -0.536791
3.14 -0.579692
3.15 -0.621792
3.16 -0.660115
3.17 -0.692513
3.18 -0.715926
3.19 -0.730139
3.2 -0.733138
3.21 -0.726002
3.22 -0.709398
3.23 -0.684861
3.24 -0.655372
3.25 -0.623454
3.26 -0.592686
3.27 -0.566435
3.28 -0.547974
3.29 -0.539431
3.3 -0.544267
3.31 -0.561876
3.32 -0.594243
3.33 -0.639281
3.34 -0.695579
3.35 -0.760607
3.36 -0.830377
3.37 -0.901151
3.38 -0.968595
3.39 -1.02832
3.4 -1.07642
3.41 -1.11055
3.42 -1.1266
3.43 -1.12592
3.44 -1.10641
3.45 -1.07119
3.46 -1.02242
3.47 -0.963672
3.48 -0.900028
3.49 -0.836404
3.5 -0.777889
3.51 -0.729687
3.52 -0.695985
3.53 -0.678862
3.54 -0.681957
3.55 -0.702435
3.56 -0.740427
3.57 -0.790238
3.58 -0.846565
3.59 -0.901299
3.6 -0.946668
3.61 -0.969952
3.62 -0.964334
3.63 -0.917521
3.64 -0.820808
3.65 -0.669628
3.66 -0.451493
3.67 -0.172344
3.68 0.176206
3.69 0.585223
3.7 1.05028
3.71 1.56375
3.72 2.11007
3.73 2.67869
3.74 3.25062
3.75 3.8095
3.76 4.33688
3.77 4.81875
3.78 5.23187
3.79 5.57216
3.8 5.81786
3.81 5.96841
3.82 6.01733
3.83 5.95885
3.84 5.80623
3.85 5.55031
3.86 5.21502
3.87 4.80483
3.88 4.33668
3.89 3.82752
3.9 3.29134
3.91 2.74723
3.92 2.2107
3.93 1.69605
3.94 1.2155
3.95 0.781858
3.96 0.397093
3.97 0.0749499
3.98 -0.191579
3.99 -0.398134
4 -0.549365
4.01 -0.652503
4.02 -0.7096
4.03 -0.734014
4.04 -0.730076
4.05 -0.708802
4.06 -0.677283
4.07 -0.642943
4.08 -0.611433
4.09 -0.588474
4.1 -0.575918
4.11 -0.576259
4.12 -0.589417
4.13 -0.613811
4.14 -0.648332
4.15 -0.688911
4.16 -0.732805
4.17 -0.776036
4.18 -0.815323
4.19 -0.846991
4.2 -0.869474
4.21 -0.87899
4.22 -0.876196
4.23 -0.859564
4.24 -0.829698
4.25 -0.788063
4.26 -0.734914
4.27 -0.673452
4.28 -0.604636
4.29 -0.53116
4.3 -0.454719
4.31 -0.377034
4.32 -0.29946
4.33 -0.223159
4.34 -0.148581
4.35 -0.076171
4.36 -0.0059157
4.37 0.0624326
4.38 0.128934
4.39 0.194054
4.4 0.257733
4.41 0.320012
4.42 0.380553
4.43 0.438582
4.44 0.493543
4.45 0.543577
4.46 0.588004
4.47 0.624848
4.48 0.652621
4.49 0.670452
4.5 0.675765
4.51 0.66933
4.52 0.649008
4.53 0.615855
4.54 0.570008
4.55 0.511871
4.56 0.443931
4.57 0.366528
4.58 0.283057
4.59 0.19521
4.6 0.105649
4.61 0.0165999
4.62 -0.0693531
4.63 -0.150773
4.64 -0.225368
4.65 -0.292459
4.66 -0.351214
4.67 -0.400922
4.68 -0.442661
4.69 -0.475705
4.7 -0.502145
4.71 -0.522486
4.72 -0.538209
4.73 -0.550735
4.74 -0.561139
4.75 -0.570786
4.76 -0.580577
4.77 -0.591243
4.78 -0.603225
4.79 -0.616795
4.8 -0.631733
4.81 -0.647957
4.82 -0.664846
4.83 -0.681923
4.84 -0.698546
4.85 -0.714214
4.86 -0.728236
4.87 -0.740461
4.88 -0.750393
4.89 -0.758131
4.9 -0.763705
4.91 -0.767259
4.92 -0.769307
4.93 -0.770076
4.94 -0.770209
4.95 -0.770111
4.96 -0.770256
4.97 -0.77097
4.98 -0.772643
4.99 -0.77532
5 -0.779219
5.01 -0.784229
5.02 -0.790289
5.03 -0.797297
5.04 -0.805013
5.05 -0.813375
5.06 -0.822156
5.07 -0.831292
5.08 -0.840701
5.09 -0.850329
5.1 -0.860156
5.11 -0.87009
5.12 -0.880003
5.13 -0.889641
5.14 -0.898623
5.15 -0.906258
5.16 -0.911961
5.17 -0.914222
5.18 -0.912255
5.19 -0.904253
5.2 -0.888576
5.21 -0.86407
5.22 -0.827753
5.23 -0.779715
5.24 -0.717007
5.25 -0.639795
5.26 -0.547366
5.27 -0.439033
5.28 -0.317079
5.29 -0.180774
5.3 -0.0341827
5.31 0.120894
5.32 0.280665
5.33 0.441372
5.34 0.598269
5.35 0.747638
5.36 0.883791
5.37 1.00331
5.38 1.10226
5.39 1.17587
5.4 1.22446
5.41 1.24182
5.42 1.2315
5.43 1.19135
5.44 1.12324
5.45 1.03061
5.46 0.914021
5.47 0.780272
5.48 0.631664
5.49 0.47428
5.5 0.312524
5.51 0.151473
5.52 -0.00492953
5.53 -0.151398
5.54 -0.285994
5.55 -0.405192
5.56 -0.507355
5.57 -0.592519
5.58 -0.658507
5.59 -0.708481
5.6 -0.741669
5.61 -0.761246
5.62 -0.768987
5.63 -0.766838
5.64 -0.757898
5.65 -0.743442
5.66 -0.726066
5.67 -0.706941
5.68 -0.687201
5.69 -0.667382
5.7 -0.64759
5.71 -0.627529
5.72 -0.606499
5.73 -0.583688
5.74 -0.558175
5.75 -0.528792
5.76 -0.495243
5.77 -0.456237
5.78 -0.412351
5.79 -0.363389
5.8 -0.310144
5.81 -0.253809
5.82 -0.19567
5.83 -0.137642
5.84 -0.0818069
5.85 -0.0301531
5.86 0.0153409
5.87 0.0522513
5.88 0.0800189
5.89 0.0956979
5.9 0.100156
5.91 0.0921559
5.92 0.0721357
5.93 0.0413777
5.94 -9.0334e-05
5.95 -0.0493638
5.96 -0.105554
5.97 -0.166041
5.98 -0.228975
5.99 -0.292297
6 -0.354367
6.01 -0.413291
6.02 -0.468375
6.03 -0.518587
6.04 -0.563651
6.05 -0.603897
6.06 -0.639205
6.07 -0.67089
6.08 -0.699398
6.09 -0.725987
6.1 -0.751533
6.11 -0.77694
6.12 -0.802828
6.13 -0.829757
6.14 -0.857713
6.15 -0.886615
6.16 -0.915962
6.17 -0.94511
6.18 -0.973054
6.19 -0.999058
6.2 -1.02189
6.21 -1.04093
6.22 -1.05552
6.23 -1.06502
6.24 -1.06989
6.25 -1.06969
6.26 -1.0657
6.27 -1.05846
6.28 -1.0492
6.29 -1.03908
6.3 -1.02932
6.31 -1.02077
6.32 -1.01424
6.33 -1.00975
6.34 -1.00691
6.35 -1.00457
6.36 -1.001
6.37 -0.993075
6.38 -0.978078
6.39 -0.951623
6.4 -0.909176
6.41 -0.847436
6.42 -0.758758
6.43 -0.642639
6.44 -0.491539
6.45 -0.305043
6.46 -0.0809365
6.47 0.183433
6.48 0.482999
6.49 0.82082
6.5 1.18759
6.51 1.58014
6.52 1.99029
6.53 2.40939
6.54 2.82766
6.55 3.23551
6.56 3.62058
6.57 3.97371
6.58 4.28518
6.59 4.5427
6.6 4.745
6.61 4.87599
6.62 4.94109
6.63 4.93279
6.64 4.85215
6.65 4.70512
6.66 4.48833
6.67 4.21713
6.68 3.89268
6.69 3.52872
6.7 3.13435
6.71 2.71998
6.72 2.2976
6.73 1.87784
6.74 1.47023
6.75 1.08437
6.76 0.728152
6.77 0.405401
6.78 0.125281
6.79 -0.115475
6.8 -0.310809
6.81 -0.464878
6.82 -0.579188
6.83 -0.655261
6.84 -0.700989
6.85 -0.716812
6.86 -0.711929
6.87 -0.689729
6.88 -0.655882
6.89 -0.615205
6.9 -0.571414
6.91 -0.528031
6.92 -0.487682
6.93 -0.451887
6.94 -0.421557
6.95 -0.397282
6.96 -0.37816
6.97 -0.364277
6.98 -0.354011
6.99 -0.346685
7 -0.341246
7.01 -0.336906
7.02 -0.333258
7.03 -0.330077
7.04 -0.327647
7.05 -0.326484
7.06 -0.327377
7.07 -0.331584
7.08 -0.339765
7.09 -0.353826
7.1 -0.373946
7.11 -0.401324
7.12 -0.436295
7.13 -0.478429
7.14 -0.528121
7.15 -0.583495
7.16 -0.64392
7.17 -0.707277
7.18 -0.771791
7.19 -0.835203
7.2 -0.895728
7.21 -0.950639
7.22 -0.998931
7.23 -1.03871
7.24 -1.06902
7.25 -1.08997
7.26 -1.10044
7.27 -1.10242
7.28 -1.0959
7.29 -1.08305
7.3 -1.06543
7.31 -1.04491
7.32 -1.02352
7.33 -1.00313
7.34 -0.98507
7.35 -0.970581
7.36 -0.960233
7.37 -0.953784
7.38 -0.951025
7.39 -0.950292
7.4 -0.950003
7.41 -0.947798
7.42 -0.941268
7.43 -0.927111
7.44 -0.903661
7.45 -0.866479
7.46 -0.815157
7.47 -0.746887
7.48 -0.660673
7.49 -0.557214
7.5 -0.434834
7.51 -0.297336
7.52 -0.144972
7.53 0.0181657
7.54 0.188894
7.55 0.363159
7.56 0.536646
7.57 0.704163
7.58 0.862045
7.59 1.00543
7.6 1.13033
7.61 1.23486
7.62 1.31346
7.63 1.36795
7.64 1.39424
7.65 1.39431
7.66 1.3686
7.67 1.31731
7.68 1.24518
7.69 1.15183
7.7 1.04324
7.71 0.921571
7.72 0.79088
7.73 0.654983
7.74 0.517266
7.75 0.381151
7.76 0.249994
7.77 0.126234
7.78 0.012058
7.79 -0.0899171
7.8 -0.179725
7.81 -0.25425
7.82 -0.314925
7.83 -0.360462
7.84 -0.39116
7.85 -0.408289
7.86 -0.410936
7.87 -0.402013
7.88 -0.381302
7.89 -0.351151
7.9 -0.312993
7.91 -0.268349
7.92 -0.219652
7.93 -0.168505
7.94 -0.117318
7.95 -0.0681355
7.96 -0.0231968
7.97 0.0159397
7.98 0.0464133
7.99 0.0678622
8 0.0777559
8.01 0.0759139
8.02 0.0617199
8.03 0.0343236
8.04 -0.00453226
8.05 -0.05581
8.06 -0.116615
8.07 -0.186075
8.08 -0.261959
8.09 -0.34188
8.1 -0.423671
8.11 -0.504827
8.12 -0.582933
8.13 -0.656093
8.14 -0.722695
8.15 -0.780934
8.16 -0.831
8.17 -0.871247
8.18 -0.903202
8.19 -0.926917
8.2 -0.943668
8.21 -0.955135
8.22 -0.962425
8.23 -0.967618
8.24 -0.971946
8.25 -0.976675
8.26 -0.982481
8.27 -0.989615
8.28 -0.997513
8.29 -1.005
8.3 -1.01028
8.31 -1.01076
8.32 -1.0032
8.33 -0.984983
8.34 -0.950527
8.35 -0.898561
8.36 -0.823293
8.37 -0.723264
8.38 -0.596167
8.39 -0.438822
8.4 -0.254196
8.41 -0.038771
8.42 0.201332
8.43 0.46473
8.44 0.746266
8.45 1.03974
8.46 1.33918
8.47 1.63685
8.48 1.92459
8.49 2.19498
8.5 2.44087
8.51 2.65293
8.52 2.82923
8.53 2.95819
8.54 3.04217
8.55 3.0755
8.56 3.05771
8.57 2.99261
8.58 2.87664
8.59 2.72037
8.6 2.52389
8.61 2.29639
8.62 2.04407
8.63 1.7736
8.64 1.49375
8.65 1.21123
8.66 0.933331
8.67 0.666478
8.68 0.41647
8.69 0.186268
8.7 -0.0177564
8.71 -0.197192
8.72 -0.347955
8.73 -0.472228
8.74 -0.570947
8.75 -0.644789
8.76 -0.698878
8.77 -0.733501
8.78 -0.754581
8.79 -0.764466
8.8 -0.766914
8.81 -0.765216
8.82 -0.76199
8.83 -0.759633
8.84 -0.760075
8.85 -0.764395
8.86 -0.773247
8.87 -0.787118
8.88 -0.805238
8.89 -0.827635
8.9 -0.852906
8.91 -0.880291
8.92 -0.90862
8.93 -0.936895
8.94 -0.964038
8.95 -0.989466
8.96 -1.01238
8.97 -1.03258
8.98 -1.04995
8.99 -1.06441
9 -1.07651
9.01 -1.08633
9.02 -1.09463
9.03 -1.10178
9.04 -1.10832
9.05 -1.11463
9.06 -1.121
9.07 -1.1275
9.08 -1.13408
9.09 -1.14044
9.1 -1.14614
9.11 -1.15042
9.12 -1.15271
9.13 -1.15168
9.14 -1.14681
9.15 -1.13687
9.16 -1.1209
9.17 -1.09855
9.18 -1.06823
9.19 -1.03063
9.2 -0.984671
9.21 -0.931046
9.22 -0.870123
9.23 -0.802271
9.24 -0.72919
9.25 -0.651504
9.26 -0.571362
9.27 -0.490275
9.28 -0.410287
9.29 -0.333077
9.3 -0.261221
9.31 -0.195727
9.32 -0.139099
9.33 -0.0922054
9.34 -0.0561025
9.35 -0.0322858
9.36 -0.0197074
9.37 -0.0200845
9.38 -0.0312421
9.39 -0.0530726
9.4 -0.0841125
9.41 -0.122331
9.42 -0.16657
9.43 -0.214072
9.44 -0.263104
9.45 -0.311418
9.46 -0.357225
9.47 -0.39847
9.48 -0.434384
9.49 -0.462957
9.5 -0.484505
9.51 -0.498342
9.52 -0.504768
9.53 -0.504832
9.54 -0.498824
9.55 -0.488817
9.56 -0.47585
9.57 -0.461806
9.58 -0.448185
9.59 -0.436721
9.6 -0.428403
9.61 -0.424957
9.62 -0.426542
9.63 -0.43393
9.64 -0.447168
9.65 -0.465635
9.66 -0.489363
9.67 -0.516819
9.68 -0.547419
9.69 -0.579784
9.7 -0.612879
9.71 -0.645591
9.72 -0.677161
9.73 -0.706659
9.74 -0.733927
9.75 -0.758648
9.76 -0.780905
9.77 -0.801081
9.78 -0.819307
9.79 -0.83621
9.8 -0.851909
9.81 -0.866547
9.82 -0.879877
9.83 -0.891041
9.84 -0.899189
9.85 -0.901881
9.86 -0.897466
9.87 -0.88267
9.88 -0.85393
9.89 -0.808856
9.9 -0.740855
9.91 -0.649483
9.92 -0.52819
9.93 -0.375785
9.94 -0.190066
9.95 0.0326506
9.96 0.288489
9.97 0.581613
9.98 0.904873
9.99 1.2567
10 1.6313
10.01 2.02137
10.02 2.4203
10.03 2.81876
10.04 3.20737
10.05 3.57705
10.06 3.91922
10.07 4.22236
10.08 4.48364
10.09 4.68885
10.1 4.83976
10.11 4.92906
10.12 4.95497
10.13 4.92169
10.14 4.82334
10.15 4.67255
10.16 4.46831
10.17 4.22121
10.18 3.9385
10.19 3.62741
10.2 3.2992
10.21 2.96104
10.22 2.62277
10.23 2.29197
10.24 1.97615
10.25 1.67953
10.26 1.40982
10.27 1.16616
10.28 0.953428
10.29 0.76982
10.3 0.614408
10.31 0.486717
10.32 0.380994
10.33 0.296813
10.34 0.227551
10.35 0.170365
10.36 0.120964
10.37 0.0755796
10.38 0.0311608
10.39 -0.0148594
10.4 -0.0646012
10.41 -0.119065
10.42 -0.178726
10.43 -0.243818
10.44 -0.313165
10.45 -0.386289
10.46 -0.461378
10.47 -0.537126
10.48 -0.611863
10.49 -0.684336
10.5 -0.752732
10.51 -0.816586
10.52 -0.8745
10.53 -0.926293
10.54 -0.971717
10.55 -1.01031
10.56 -1.04296
10.57 -1.06904
10.58 -1.08974
10.59 -1.10502
10.6 -1.11528
10.61 -1.12108
10.62 -1.12202
10.63 -1.11886
10.64 -1.11108
10.65 -1.09891
10.66 -1.08228
10.67 -1.06082
10.68 -1.03506
10.69 -1.00446
10.7 -0.969871
10.71 -0.931469
10.72 -0.889957
10.73 -0.846301
10.74 -0.801374
10.75 -0.756478
10.76 -0.712925
10.77 -0.672016
10.78 -0.634961
10.79 -0.603387
10.8 -0.57766
10.81 -0.559681
10.82 -0.549111
10.83 -0.546779
10.84 -0.552716
10.85 -0.566133
10.86 -0.587444
10.87 -0.614777
10.88 -0.647839
10.89 -0.685044
10.9 -0.72522
10.91 -0.767133
10.92 -0.809453
10.93 -0.850958
10.94 -0.890727
10.95 -0.927828
10.96 -0.961555
10.97 -0.991737
10.98 -1.01761
10.99 -1.03972
11 -1.05777
11.01 -1.07228
11.02 -1.08364
11.03 -1.09214
11.04 -1.09857
11.05 -1.10318
11.06 -1.10673
11.07 -1.10959
11.08 -1.11224
11.09 -1.11503
11.1 -1.11832
11.11 -1.12226
11.12 -1.12705
11.13 -1.13266
11.14 -1.13903
11.15 -1.14596
11.16 -1.15308
11.17 -1.15982
11.18 -1.16553
11.19 -1.16926
11.2 -1.1698
11.21 -1.16618
11.22 -1.15605
11.23 -1.13867
11.24 -1.11127
11.25 -1.07242
11.26 -1.02035
11.27 -0.952027
11.28 -0.867727
11.29 -0.76333
11.3 -0.640254
11.31 -0.496738
11.32 -0.332832
11.33 -0.150587
11.34 0.0509028
11.35 0.266789
11.36 0.495767
11.37 0.733117
11.38 0.974782
11.39 1.21561
11.4 1.45093
11.41 1.67387
11.42 1.88051
11.43 2.06476
11.44 2.22141
11.45 2.34864
11.46 2.43844
11.47 2.4938
11.48 2.50918
11.49 2.48688
11.5 2.42794
11.51 2.33216
11.52 2.20654
11.53 2.05081
11.54 1.87342
11.55 1.67799
11.56 1.47057
11.57 1.25705
11.58 1.04284
11.59 0.832909
11.6 0.632394
11.61 0.444681
11.62 0.272441
11.63 0.119016
11.64 -0.0167399
11.65 -0.131861
11.66 -0.229552
11.67 -0.310046
11.68 -0.375504
11.69 -0.429163
11.7 -0.472425
11.71 -0.509399
11.72 -0.542021
11.73 -0.573072
11.74 -0.604408
11.75 -0.637736
11.76 -0.673695
11.77 -0.713085
11.78 -0.755247
11.79 -0.7996
11.8 -0.844772
11.81 -0.889226
11.82 -0.930645
11.83 -0.967451
11.84 -0.996908
11.85 -1.01731
11.86 -1.02697
11.87 -1.02334
11.88 -1.00679
11.89 -0.974351
11.9 -0.927533
11.91 -0.865435
11.92 -0.788523
11.93 -0.698618
11.94 -0.59528
11.95 -0.481911
11.96 -0.359168
11.97 -0.229783
11.98 -0.0958375
11.99 0.0403963
12 0.176501
12.01 0.309843
12.02 0.438419
12.03 0.559776
12.04 0.671596
12.05 0.772803
12.06 0.859869
12.07 0.933344
12.08 0.990323
12.09 1.03083
12.1 1.0544
12.11 1.05957
12.12 1.04857
12.13 1.01947
12.14 0.975395
12.15 0.916648
12.16 0.845007
12.17 0.76316
12.18 0.67219
12.19 0.575698
12.2 0.475559
12.21 0.374618
12.22 0.275102
12.23 0.179586
12.24 0.0893691
12.25 0.00699559
12.26 -0.0673461
12.27 -0.132525
12.28 -0.188331
12.29 -0.235713
12.3 -0.274328
12.31 -0.306524
12.32 -0.333007
12.33 -0.355854
12.34 -0.376696
12.35 -0.397286
12.36 -0.419055
12.37 -0.443572
12.38 -0.471391
12.39 -0.503127
12.4 -0.538715
