# xPDFsuite Configuration #
[PDF]
wavelength = 0.1432
dataformat = twotheta
inputfile = 1_1Pd_CeO2_cycle-00387.chi
backgroundfile = background-00000.chi
mode = xray
bgscale = 1.007
composition = CeO2
outputtype = gr
qmaxinst = 28.8974762299
qmin = 0.5
qmax = 27.9
rmax = 50.0
rmin = 0.0
rstep = 0.01
rpoly = 1.8657

[Misc]
inputdir = G:/SankarDec16/1Pd/Chi
savedir = D:/DATA/APS_CeO2/1Pd
backgroundfilefull = G:/SankarDec16/Background/background-00000.chi

#### start data
#S 1
#L r($\AA$)  G($\AA^{-2}$)
0 0
0.01 -0.00532278
0.02 -0.0102464
0.03 -0.0143597
0.04 -0.0173526
0.05 -0.0190522
0.06 -0.0191803
0.07 -0.01792
0.08 -0.0151802
0.09 -0.0113115
0.1 -0.00655585
0.11 -0.0012844
0.12 0.0040957
0.13 0.00912984
0.14 0.0134919
0.15 0.0167849
0.16 0.0187737
0.17 0.0193619
0.18 0.018356
0.19 0.0160233
0.2 0.0123687
0.21 0.00779995
0.22 0.00261704
0.23 -0.00276374
0.24 -0.00795737
0.25 -0.0124739
0.26 -0.0160745
0.27 -0.0183943
0.28 -0.0192832
0.29 -0.0187261
0.3 -0.0166226
0.31 -0.0133128
0.32 -0.00889742
0.33 -0.0038236
0.34 0.00156381
0.35 0.00682147
0.36 0.0116037
0.37 0.0154069
0.38 0.0180901
0.39 0.0193369
0.4 0.019089
0.41 0.0174135
0.42 0.0143083
0.43 0.0101709
0.44 0.00519394
0.45 -0.000155524
0.46 -0.00550313
0.47 -0.0103978
0.48 -0.0145487
0.49 -0.017461
0.5 -0.019098
0.51 -0.0192061
0.52 -0.0178219
0.53 -0.015092
0.54 -0.0111129
0.55 -0.00632276
0.56 -0.000997535
0.57 0.00439608
0.58 0.00947085
0.59 0.0137877
0.6 0.0171239
0.61 0.0190153
0.62 0.0195318
0.63 0.0184941
0.64 0.0160326
0.65 0.0123674
0.66 0.00769031
0.67 0.00246048
0.68 -0.00297407
0.69 -0.00816745
0.7 -0.0127366
0.71 -0.0162733
0.72 -0.0186334
0.73 -0.0194031
0.74 -0.0187563
0.75 -0.0165954
0.76 -0.0131389
0.77 -0.00867041
0.78 -0.00346803
0.79 0.00200822
0.8 0.00735496
0.81 0.0121665
0.82 0.0160814
0.83 0.0187404
0.84 0.0200832
0.85 0.0197648
0.86 0.0180526
0.87 0.0149329
0.88 0.0106988
0.89 0.00568052
0.9 0.000222544
0.91 -0.0052392
0.92 -0.0102757
0.93 -0.0145455
0.94 -0.0177358
0.95 -0.0195649
0.96 -0.0200622
0.97 -0.0189889
0.98 -0.016689
0.99 -0.0132479
1 -0.00902105
1.01 -0.00436694
1.02 0.000313294
1.03 0.0046484
1.04 0.00820721
1.05 0.0107556
1.06 0.0120668
1.07 0.0119848
1.08 0.0106607
1.09 0.0080318
1.1 0.00453673
1.11 0.000422319
1.12 -0.00385562
1.13 -0.00788445
1.14 -0.011129
1.15 -0.0133008
1.16 -0.0138809
1.17 -0.0127585
1.18 -0.00976177
1.19 -0.00483077
1.2 0.00171276
1.21 0.00982435
1.22 0.0188681
1.23 0.0284407
1.24 0.0379121
1.25 0.0467345
1.26 0.0541611
1.27 0.059855
1.28 0.0630798
1.29 0.0636997
1.3 0.0614394
1.31 0.0561298
1.32 0.0481619
1.33 0.0373631
1.34 0.0245455
1.35 0.0100087
1.36 -0.00555616
1.37 -0.0215174
1.38 -0.0371638
1.39 -0.0519355
1.4 -0.0650914
1.41 -0.0762667
1.42 -0.0850396
1.43 -0.0910302
1.44 -0.0943958
1.45 -0.0946731
1.46 -0.092437
1.47 -0.0876516
1.48 -0.080715
1.49 -0.0720389
1.5 -0.0618825
1.51 -0.0508103
1.52 -0.0391047
1.53 -0.0271886
1.54 -0.0153481
1.55 -0.00387251
1.56 0.00709033
1.57 0.0172706
1.58 0.0266713
1.59 0.0351326
1.6 0.0426111
1.61 0.0490926
1.62 0.0544004
1.63 0.058618
1.64 0.0615047
1.65 0.0630807
1.66 0.0632117
1.67 0.0617323
1.68 0.058726
1.69 0.0538607
1.7 0.0473985
1.71 0.039222
1.72 0.0294962
1.73 0.0184463
1.74 0.00621564
1.75 -0.00674498
1.76 -0.0201397
1.77 -0.0335038
1.78 -0.0464323
1.79 -0.0584437
1.8 -0.0692858
1.81 -0.0783824
1.82 -0.0857563
1.83 -0.0911043
1.84 -0.0944604
1.85 -0.0959929
1.86 -0.0957469
1.87 -0.0942489
1.88 -0.0917515
1.89 -0.0888173
1.9 -0.0858898
1.91 -0.0834926
1.92 -0.0819548
1.93 -0.0818254
1.94 -0.0831312
1.95 -0.086118
1.96 -0.0906991
1.97 -0.0966415
1.98 -0.103718
1.99 -0.111352
2 -0.119022
2.01 -0.126062
2.02 -0.131816
2.03 -0.135481
2.04 -0.136692
2.05 -0.134365
2.06 -0.12856
2.07 -0.118595
2.08 -0.104364
2.09 -0.0859823
2.1 -0.0630805
2.11 -0.0364305
2.12 -0.00584317
2.13 0.0279262
2.14 0.0645392
2.15 0.103578
2.16 0.144369
2.17 0.186682
2.18 0.229865
2.19 0.273612
2.2 0.317516
2.21 0.361264
2.22 0.404465
2.23 0.446877
2.24 0.488005
2.25 0.527539
2.26 0.564986
2.27 0.599653
2.28 0.631256
2.29 0.658461
2.3 0.681164
2.31 0.698161
2.32 0.708779
2.33 0.712635
2.34 0.708296
2.35 0.696397
2.36 0.675638
2.37 0.646797
2.38 0.609918
2.39 0.565294
2.4 0.514449
2.41 0.457566
2.42 0.396844
2.43 0.333387
2.44 0.269004
2.45 0.205238
2.46 0.143981
2.47 0.0862904
2.48 0.0339905
2.49 -0.0123775
2.5 -0.0520482
2.51 -0.0844278
2.52 -0.110321
2.53 -0.129109
2.54 -0.142594
2.55 -0.151284
2.56 -0.156635
2.57 -0.160016
2.58 -0.162766
2.59 -0.166179
2.6 -0.171534
2.61 -0.179569
2.62 -0.190897
2.63 -0.20592
2.64 -0.224171
2.65 -0.245701
2.66 -0.269295
2.67 -0.294191
2.68 -0.319137
2.69 -0.34304
2.7 -0.364458
2.71 -0.382745
2.72 -0.396611
2.73 -0.405905
2.74 -0.410346
2.75 -0.409939
2.76 -0.405659
2.77 -0.39784
2.78 -0.388134
2.79 -0.377673
2.8 -0.368016
2.81 -0.360418
2.82 -0.356581
2.83 -0.357015
2.84 -0.363088
2.85 -0.374673
2.86 -0.391834
2.87 -0.414236
2.88 -0.440527
2.89 -0.469912
2.9 -0.500401
2.91 -0.530409
2.92 -0.558046
2.93 -0.581876
2.94 -0.599791
2.95 -0.611478
2.96 -0.61532
2.97 -0.61175
2.98 -0.60086
2.99 -0.583227
3 -0.560666
3.01 -0.534226
3.02 -0.506394
3.03 -0.479092
3.04 -0.454568
3.05 -0.434483
3.06 -0.421238
3.07 -0.415122
3.08 -0.417885
3.09 -0.428928
3.1 -0.448036
3.11 -0.474432
3.12 -0.506025
3.13 -0.541519
3.14 -0.57819
3.15 -0.613909
3.16 -0.646309
3.17 -0.67372
3.18 -0.693757
3.19 -0.706368
3.2 -0.710061
3.21 -0.705825
3.22 -0.69431
3.23 -0.676869
3.24 -0.655912
3.25 -0.633574
3.26 -0.612635
3.27 -0.595782
3.28 -0.585522
3.29 -0.583417
3.3 -0.592072
3.31 -0.610816
3.32 -0.641004
3.33 -0.680794
3.34 -0.728873
3.35 -0.783021
3.36 -0.840045
3.37 -0.89674
3.38 -0.949815
3.39 -0.995744
3.4 -1.03158
3.41 -1.05568
3.42 -1.06498
3.43 -1.06087
3.44 -1.04204
3.45 -1.01126
3.46 -0.970579
3.47 -0.92317
3.48 -0.873149
3.49 -0.824791
3.5 -0.781927
3.51 -0.748725
3.52 -0.728223
3.53 -0.721675
3.54 -0.731465
3.55 -0.754684
3.56 -0.79056
3.57 -0.833768
3.58 -0.879159
3.59 -0.919076
3.6 -0.946905
3.61 -0.950701
3.62 -0.925164
3.63 -0.859279
3.64 -0.745771
3.65 -0.581132
3.66 -0.35452
3.67 -0.0720474
3.68 0.273369
3.69 0.673101
3.7 1.12272
3.71 1.61487
3.72 2.13534
3.73 2.67411
3.74 3.21413
3.75 3.74036
3.76 4.23611
3.77 4.68878
3.78 5.07711
3.79 5.39768
3.8 5.63048
3.81 5.77514
3.82 5.82563
3.83 5.77646
3.84 5.63974
3.85 5.40656
3.86 5.09881
3.87 4.72013
3.88 4.28577
3.89 3.81116
3.9 3.30861
3.91 2.79595
3.92 2.28702
3.93 1.79535
3.94 1.33231
3.95 0.909965
3.96 0.530767
3.97 0.207684
3.98 -0.064902
3.99 -0.282394
4 -0.448344
4.01 -0.568844
4.02 -0.644968
4.03 -0.688787
4.04 -0.703558
4.05 -0.699376
4.06 -0.682561
4.07 -0.659787
4.08 -0.636698
4.09 -0.618325
4.1 -0.607147
4.11 -0.605635
4.12 -0.614249
4.13 -0.632045
4.14 -0.658403
4.15 -0.690092
4.16 -0.724964
4.17 -0.759678
4.18 -0.791452
4.19 -0.817108
4.2 -0.835178
4.21 -0.842324
4.22 -0.838929
4.23 -0.823526
4.24 -0.796469
4.25 -0.758897
4.26 -0.710843
4.27 -0.655047
4.28 -0.592185
4.29 -0.524602
4.3 -0.453736
4.31 -0.38106
4.32 -0.307853
4.33 -0.235076
4.34 -0.163279
4.35 -0.0928757
4.36 -0.0239514
4.37 0.0436141
4.38 0.109809
4.39 0.174923
4.4 0.238824
4.41 0.301441
4.42 0.362378
4.43 0.420828
4.44 0.476223
4.45 0.52672
4.46 0.571666
4.47 0.609126
4.48 0.637647
4.49 0.65638
4.5 0.662781
4.51 0.657591
4.52 0.638663
4.53 0.606991
4.54 0.562657
4.55 0.505979
4.56 0.439383
4.57 0.363103
4.58 0.280506
4.59 0.193224
4.6 0.10391
4.61 0.0148212
4.62 -0.0714361
4.63 -0.153316
4.64 -0.22844
4.65 -0.295998
4.66 -0.355037
4.67 -0.404703
4.68 -0.446006
4.69 -0.478059
4.7 -0.502982
4.71 -0.521224
4.72 -0.534318
4.73 -0.543783
4.74 -0.550784
4.75 -0.556882
4.76 -0.56315
4.77 -0.570526
4.78 -0.579641
4.79 -0.590993
4.8 -0.604439
4.81 -0.620156
4.82 -0.63746
4.83 -0.655974
4.84 -0.674998
4.85 -0.693904
4.86 -0.711943
4.87 -0.728694
4.88 -0.743515
4.89 -0.756247
4.9 -0.766717
4.91 -0.774832
4.92 -0.780981
4.93 -0.785147
4.94 -0.787974
4.95 -0.789749
4.96 -0.790958
4.97 -0.791999
4.98 -0.793261
4.99 -0.794981
5 -0.797429
5.01 -0.800661
5.02 -0.804721
5.03 -0.809609
5.04 -0.815162
5.05 -0.821364
5.06 -0.828004
5.07 -0.835002
5.08 -0.842236
5.09 -0.849603
5.1 -0.857005
5.11 -0.864323
5.12 -0.871364
5.13 -0.877886
5.14 -0.883533
5.15 -0.887682
5.16 -0.889865
5.17 -0.888744
5.18 -0.883704
5.19 -0.873176
5.2 -0.855753
5.21 -0.830443
5.22 -0.794604
5.23 -0.748303
5.24 -0.688867
5.25 -0.616374
5.26 -0.53009
5.27 -0.429258
5.28 -0.31583
5.29 -0.18893
5.3 -0.0521551
5.31 0.0930405
5.32 0.243317
5.33 0.395279
5.34 0.544725
5.35 0.6881
5.36 0.820207
5.37 0.937682
5.38 1.03672
5.39 1.11266
5.4 1.16549
5.41 1.1891
5.42 1.18647
5.43 1.15523
5.44 1.09681
5.45 1.01419
5.46 0.907523
5.47 0.783235
5.48 0.643211
5.49 0.493321
5.5 0.337771
5.51 0.181465
5.52 0.0284884
5.53 -0.116005
5.54 -0.249724
5.55 -0.369032
5.56 -0.472006
5.57 -0.558403
5.58 -0.625799
5.59 -0.677112
5.6 -0.711366
5.61 -0.731626
5.62 -0.739611
5.63 -0.737263
5.64 -0.727807
5.65 -0.712639
5.66 -0.694581
5.67 -0.675032
5.68 -0.655381
5.69 -0.63635
5.7 -0.618355
5.71 -0.6011
5.72 -0.584102
5.73 -0.56645
5.74 -0.547163
5.75 -0.524942
5.76 -0.499177
5.77 -0.468342
5.78 -0.432617
5.79 -0.391451
5.8 -0.345247
5.81 -0.294931
5.82 -0.24133
5.83 -0.186343
5.84 -0.131706
5.85 -0.0795008
5.86 -0.031721
5.87 0.00914561
5.88 0.0421658
5.89 0.0642836
5.9 0.0758655
5.91 0.0753748
5.92 0.0628404
5.93 0.0392242
5.94 0.00415287
5.95 -0.0396112
5.96 -0.0914859
5.97 -0.148863
5.98 -0.209926
5.99 -0.272606
6 -0.335012
6.01 -0.395192
6.02 -0.452093
6.03 -0.504479
6.04 -0.551789
6.05 -0.594136
6.06 -0.63115
6.07 -0.664062
6.08 -0.693164
6.09 -0.719748
6.1 -0.744726
6.11 -0.769097
6.12 -0.793676
6.13 -0.819198
6.14 -0.845877
6.15 -0.873848
6.16 -0.902815
6.17 -0.932242
6.18 -0.96132
6.19 -0.989232
6.2 -1.0148
6.21 -1.03724
6.22 -1.05571
6.23 -1.06934
6.24 -1.07832
6.25 -1.08182
6.26 -1.08087
6.27 -1.07566
6.28 -1.06712
6.29 -1.05631
6.3 -1.04407
6.31 -1.03146
6.32 -1.01911
6.33 -1.00732
6.34 -0.995894
6.35 -0.983965
6.36 -0.970275
6.37 -0.952108
6.38 -0.927267
6.39 -0.891891
6.4 -0.841973
6.41 -0.774567
6.42 -0.682725
6.43 -0.565941
6.44 -0.417263
6.45 -0.236197
6.46 -0.0206006
6.47 0.232104
6.48 0.517363
6.49 0.838143
6.5 1.18592
6.51 1.55786
6.52 1.94642
6.53 2.3436
6.54 2.74033
6.55 3.12761
6.56 3.49392
6.57 3.83063
6.58 4.1286
6.59 4.37626
6.6 4.57233
6.61 4.70165
6.62 4.76922
6.63 4.76791
6.64 4.69859
6.65 4.56676
6.66 4.36913
6.67 4.12001
6.68 3.82031
6.69 3.4828
6.7 3.11589
6.71 2.7291
6.72 2.33364
6.73 1.93911
6.74 1.5545
6.75 1.18856
6.76 0.848587
6.77 0.538208
6.78 0.265778
6.79 0.0285539
6.8 -0.167881
6.81 -0.32709
6.82 -0.45025
6.83 -0.538486
6.84 -0.598744
6.85 -0.631023
6.86 -0.643478
6.87 -0.638804
6.88 -0.621845
6.89 -0.596827
6.9 -0.566644
6.91 -0.534666
6.92 -0.502925
6.93 -0.473015
6.94 -0.445848
6.95 -0.422081
6.96 -0.401394
6.97 -0.384034
6.98 -0.369162
6.99 -0.356563
7 -0.345813
7.01 -0.336613
7.02 -0.329146
7.03 -0.323388
7.04 -0.320023
7.05 -0.319536
7.06 -0.322676
7.07 -0.330566
7.08 -0.343419
7.09 -0.362824
7.1 -0.388382
7.11 -0.42079
7.12 -0.45984
7.13 -0.50474
7.14 -0.555295
7.15 -0.609651
7.16 -0.666823
7.17 -0.724911
7.18 -0.782309
7.19 -0.83705
7.2 -0.887946
7.21 -0.932758
7.22 -0.971171
7.23 -1.00193
7.24 -1.02475
7.25 -1.04012
7.26 -1.04767
7.27 -1.04927
7.28 -1.04535
7.29 -1.03778
7.3 -1.02789
7.31 -1.0172
7.32 -1.007
7.33 -0.998589
7.34 -0.992466
7.35 -0.98911
7.36 -0.988315
7.37 -0.989352
7.38 -0.991169
7.39 -0.992179
7.4 -0.990293
7.41 -0.983477
7.42 -0.969559
7.43 -0.945616
7.44 -0.910823
7.45 -0.861355
7.46 -0.797779
7.47 -0.718139
7.48 -0.622339
7.49 -0.511659
7.5 -0.385421
7.51 -0.247381
7.52 -0.0984389
7.53 0.057625
7.54 0.217827
7.55 0.378444
7.56 0.536096
7.57 0.68615
7.58 0.82608
7.59 0.951924
7.6 1.06073
7.61 1.15134
7.62 1.21935
7.63 1.26671
7.64 1.29017
7.65 1.29157
7.66 1.27135
7.67 1.22962
7.68 1.17023
7.69 1.09259
7.7 1.00151
7.71 0.898436
7.72 0.786465
7.73 0.668627
7.74 0.547332
7.75 0.425598
7.76 0.306
7.77 0.190844
7.78 0.0821635
7.79 -0.0175554
7.8 -0.107807
7.81 -0.185525
7.82 -0.251319
7.83 -0.303542
7.84 -0.341876
7.85 -0.367046
7.86 -0.377632
7.87 -0.376173
7.88 -0.362074
7.89 -0.337552
7.9 -0.303968
7.91 -0.262832
7.92 -0.21682
7.93 -0.167635
7.94 -0.118039
7.95 -0.0703059
7.96 -0.0269475
7.97 0.0103012
7.98 0.0383851
7.99 0.0569631
8 0.0634861
8.01 0.0579467
8.02 0.0399227
8.03 0.0088587
8.04 -0.0332409
8.05 -0.0869132
8.06 -0.149079
8.07 -0.218552
8.08 -0.292928
8.09 -0.369842
8.1 -0.446973
8.11 -0.52218
8.12 -0.593149
8.13 -0.65843
8.14 -0.716788
8.15 -0.766905
8.16 -0.809373
8.17 -0.843115
8.18 -0.869882
8.19 -0.890095
8.2 -0.905188
8.21 -0.916761
8.22 -0.926034
8.23 -0.93461
8.24 -0.943539
8.25 -0.953547
8.26 -0.964861
8.27 -0.977184
8.28 -0.989553
8.29 -1.00022
8.3 -1.00724
8.31 -1.00776
8.32 -0.998513
8.33 -0.977117
8.34 -0.938144
8.35 -0.880927
8.36 -0.800162
8.37 -0.695075
8.38 -0.563992
8.39 -0.404529
8.4 -0.219982
8.41 -0.00771711
8.42 0.226239
8.43 0.480168
8.44 0.749054
8.45 1.02718
8.46 1.30885
8.47 1.58735
8.48 1.85528
8.49 2.10631
8.5 2.33428
8.51 2.5311
8.52 2.69543
8.53 2.81714
8.54 2.8986
8.55 2.93487
8.56 2.92556
8.57 2.874
8.58 2.77679
8.59 2.6431
8.6 2.47253
8.61 2.27287
8.62 2.04918
8.63 1.80676
8.64 1.55332
8.65 1.29401
8.66 1.03554
8.67 0.78332
8.68 0.542614
8.69 0.316498
8.7 0.110721
8.71 -0.0751766
8.72 -0.237092
8.73 -0.37603
8.74 -0.492034
8.75 -0.584743
8.76 -0.658106
8.77 -0.711279
8.78 -0.749307
8.79 -0.773629
8.8 -0.787342
8.81 -0.793573
8.82 -0.794321
8.83 -0.792606
8.84 -0.790258
8.85 -0.789122
8.86 -0.790446
8.87 -0.795432
8.88 -0.804183
8.89 -0.817526
8.9 -0.834736
8.91 -0.855714
8.92 -0.879772
8.93 -0.906036
8.94 -0.933827
8.95 -0.962103
8.96 -0.990047
8.97 -1.01687
8.98 -1.04195
8.99 -1.06458
9 -1.08469
9.01 -1.1016
9.02 -1.11566
9.03 -1.12671
9.04 -1.13494
9.05 -1.14073
9.06 -1.14408
9.07 -1.14559
9.08 -1.14528
9.09 -1.14347
9.1 -1.14022
9.11 -1.13541
9.12 -1.12907
9.13 -1.12061
9.14 -1.10989
9.15 -1.09623
9.16 -1.07899
9.17 -1.05782
9.18 -1.03147
9.19 -1.0001
9.2 -0.962617
9.21 -0.919111
9.22 -0.869471
9.23 -0.813477
9.24 -0.752202
9.25 -0.685569
9.26 -0.615248
9.27 -0.542172
9.28 -0.467958
9.29 -0.39417
9.3 -0.322898
9.31 -0.255532
9.32 -0.194401
9.33 -0.140818
9.34 -0.0961665
9.35 -0.0623242
9.36 -0.038862
9.37 -0.0279529
9.38 -0.0280071
9.39 -0.0394183
9.4 -0.0612112
9.41 -0.0916256
9.42 -0.130029
9.43 -0.173575
9.44 -0.220853
9.45 -0.269442
9.46 -0.317449
9.47 -0.362707
9.48 -0.403995
9.49 -0.439144
9.5 -0.467942
9.51 -0.489373
9.52 -0.503313
9.53 -0.510486
9.54 -0.510748
9.55 -0.506025
9.56 -0.497016
9.57 -0.485546
9.58 -0.473053
9.59 -0.461198
9.6 -0.451215
9.61 -0.444798
9.62 -0.442485
9.63 -0.445235
9.64 -0.453411
9.65 -0.466694
9.66 -0.485448
9.67 -0.508384
9.68 -0.53523
9.69 -0.564768
9.7 -0.596091
9.71 -0.628229
9.72 -0.66028
9.73 -0.691386
9.74 -0.72108
9.75 -0.748874
9.76 -0.774535
9.77 -0.798125
9.78 -0.819376
9.79 -0.838635
9.8 -0.855608
9.81 -0.870225
9.82 -0.882055
9.83 -0.890024
9.84 -0.893475
9.85 -0.88986
9.86 -0.877981
9.87 -0.854831
9.88 -0.81736
9.89 -0.763705
9.9 -0.688
9.91 -0.590298
9.92 -0.464877
9.93 -0.311019
9.94 -0.126996
9.95 0.0902421
9.96 0.337031
9.97 0.616903
9.98 0.923392
9.99 1.25501
10 1.6066
10.01 1.97168
10.02 2.34439
10.03 2.71653
10.04 3.07983
10.05 3.42628
10.06 3.7483
10.07 4.03566
10.08 4.28577
10.09 4.48589
10.1 4.63741
10.11 4.73358
10.12 4.77247
10.13 4.75751
10.14 4.68284
10.15 4.5595
10.16 4.38589
10.17 4.17115
10.18 3.92136
10.19 3.64238
10.2 3.34448
10.21 3.03333
10.22 2.71825
10.23 2.40588
10.24 2.10324
10.25 1.8147
10.26 1.54734
10.27 1.3014
10.28 1.08169
10.29 0.887481
10.3 0.71863
10.31 0.575517
10.32 0.453486
10.33 0.353003
10.34 0.268297
10.35 0.197289
10.36 0.136305
10.37 0.0817808
10.38 0.0312349
10.39 -0.018309
10.4 -0.0688166
10.41 -0.121796
10.42 -0.178123
10.43 -0.238474
10.44 -0.302325
10.45 -0.369675
10.46 -0.439243
10.47 -0.510144
10.48 -0.581055
10.49 -0.650839
10.5 -0.71794
10.51 -0.781668
10.52 -0.840631
10.53 -0.894348
10.54 -0.942316
10.55 -0.983779
10.56 -1.01933
10.57 -1.04807
10.58 -1.07098
10.59 -1.08791
10.6 -1.09918
10.61 -1.10547
10.62 -1.10642
10.63 -1.10305
10.64 -1.09506
10.65 -1.08298
10.66 -1.06695
10.67 -1.04692
10.68 -1.02348
10.69 -0.996325
10.7 -0.966192
10.71 -0.933216
10.72 -0.897896
10.73 -0.860892
10.74 -0.82274
10.75 -0.784342
10.76 -0.746548
10.77 -0.710282
10.78 -0.676417
10.79 -0.646163
10.8 -0.61992
10.81 -0.599212
10.82 -0.584029
10.83 -0.575241
10.84 -0.573204
10.85 -0.577589
10.86 -0.589205
10.87 -0.606775
10.88 -0.630545
10.89 -0.659434
10.9 -0.692694
10.91 -0.729597
10.92 -0.768832
10.93 -0.809629
10.94 -0.850761
10.95 -0.891302
10.96 -0.930256
10.97 -0.967001
10.98 -1.00045
10.99 -1.03056
11 -1.05653
11.01 -1.07844
11.02 -1.09625
11.03 -1.10984
11.04 -1.11993
11.05 -1.12643
11.06 -1.1303
11.07 -1.13193
11.08 -1.13204
11.09 -1.13131
11.1 -1.13036
11.11 -1.12978
11.12 -1.13009
11.13 -1.13158
11.14 -1.13441
11.15 -1.13859
11.16 -1.14372
11.17 -1.14935
11.18 -1.15459
11.19 -1.15836
11.2 -1.1592
11.21 -1.1559
11.22 -1.14584
11.23 -1.12812
11.24 -1.09977
11.25 -1.05937
11.26 -1.00517
11.27 -0.934295
11.28 -0.847301
11.29 -0.740428
11.3 -0.615485
11.31 -0.471175
11.32 -0.30803
11.33 -0.128352
11.34 0.0681514
11.35 0.276785
11.36 0.495921
11.37 0.721131
11.38 0.948642
11.39 1.1737
11.4 1.39238
11.41 1.59852
11.42 1.78905
11.43 1.95881
11.44 2.10353
11.45 2.22192
11.46 2.30719
11.47 2.36219
11.48 2.38216
11.49 2.36916
11.5 2.32399
11.51 2.24622
11.52 2.14175
11.53 2.00979
11.54 1.8574
11.55 1.68721
11.56 1.50397
11.57 1.31265
11.58 1.11721
11.59 0.922311
11.6 0.731999
11.61 0.549599
11.62 0.37774
11.63 0.219668
11.64 0.0752582
11.65 -0.0523455
11.66 -0.164947
11.67 -0.261917
11.68 -0.344193
11.69 -0.413979
11.7 -0.471385
11.71 -0.519936
11.72 -0.560546
11.73 -0.595736
11.74 -0.627206
11.75 -0.656481
11.76 -0.684999
11.77 -0.713686
11.78 -0.743082
11.79 -0.773375
11.8 -0.804299
11.81 -0.835255
11.82 -0.865151
11.83 -0.892944
11.84 -0.916895
11.85 -0.935566
11.86 -0.947448
11.87 -0.950237
11.88 -0.943567
11.89 -0.924456
11.9 -0.893294
11.91 -0.848534
11.92 -0.789655
11.93 -0.717591
11.94 -0.630857
11.95 -0.532269
11.96 -0.421606
11.97 -0.301274
11.98 -0.17313
11.99 -0.0391571
12 0.0976829
12.01 0.234854
12.02 0.369482
12.03 0.498682
12.04 0.619423
12.05 0.729949
12.06 0.826065
12.07 0.907833
12.08 0.971821
12.09 1.01783
12.1 1.0453
12.11 1.05267
12.12 1.04254
12.13 1.01309
12.14 0.967982
12.15 0.907918
12.16 0.83516
12.17 0.75276
12.18 0.66229
12.19 0.567439
12.2 0.470348
12.21 0.37377
12.22 0.279787
12.23 0.190758
12.24 0.107532
12.25 0.0322398
12.26 -0.0354263
12.27 -0.0948217
12.28 -0.146214
12.29 -0.190774
12.3 -0.228672
12.31 -0.262061
12.32 -0.29184
12.33 -0.319769
12.34 -0.347172
12.35 -0.375424
12.36 -0.405359
12.37 -0.438006
12.38 -0.473353
