# xPDFsuite Configuration #
[PDF]
wavelength = 0.1432
dataformat = twotheta
inputfile = 1_1Pd_CeO2_cycle-00026.chi
backgroundfile = background-00000.chi
mode = xray
bgscale = 1.007
composition = CeO2
outputtype = gr
qmaxinst = 28.8974762299
qmin = 0.5
qmax = 27.9
rmax = 50.0
rmin = 0.0
rstep = 0.01
rpoly = 1.8657

[Misc]
inputdir = G:/SankarDec16/1Pd/Chi
savedir = D:/DATA/APS_CeO2/1Pd
backgroundfilefull = G:/SankarDec16/Background/background-00000.chi

#### start data
#S 1
#L r($\AA$)  G($\AA^{-2}$)
0 0
0.01 -0.00802258
0.02 -0.015441
0.03 -0.0216332
0.04 -0.0261306
0.05 -0.0286723
0.06 -0.0288391
0.07 -0.0269097
0.08 -0.0227493
0.09 -0.0168903
0.1 -0.00970107
0.11 -0.00174574
0.12 0.0063602
0.13 0.0139265
0.14 0.0204635
0.15 0.025372
0.16 0.0283008
0.17 0.0291091
0.18 0.0275104
0.19 0.0239146
0.2 0.0183369
0.21 0.0113982
0.22 0.00355701
0.23 -0.00455333
0.24 -0.012353
0.25 -0.0190984
0.26 -0.024437
0.27 -0.0278214
0.28 -0.0290339
0.29 -0.028061
0.3 -0.0247629
0.31 -0.0196612
0.32 -0.0129211
0.33 -0.00522284
0.34 0.00290662
0.35 0.010794
0.36 0.017923
0.37 0.0235313
0.38 0.0274209
0.39 0.0291218
0.4 0.028561
0.41 0.0258531
0.42 0.021012
0.43 0.0146472
0.44 0.00706601
0.45 -0.00102327
0.46 -0.00905036
0.47 -0.0163333
0.48 -0.0224441
0.49 -0.0266382
0.5 -0.0288814
0.51 -0.0288044
0.52 -0.0264825
0.53 -0.0221539
0.54 -0.0159864
0.55 -0.00864881
0.56 -0.000576722
0.57 0.0075267
0.58 0.0150749
0.59 0.0214092
0.6 0.0262107
0.61 0.0287882
0.62 0.0292738
0.63 0.0274168
0.64 0.0234384
0.65 0.0176893
0.66 0.0104847
0.67 0.00252109
0.68 -0.0056577
0.69 -0.0133867
0.7 -0.020091
0.71 -0.0251662
0.72 -0.0284186
0.73 -0.0292429
0.74 -0.0279319
0.75 -0.0243657
0.76 -0.0189008
0.77 -0.0119842
0.78 -0.0040626
0.79 0.00417329
0.8 0.012099
0.81 0.01912
0.82 0.0247028
0.83 0.0283278
0.84 0.0299367
0.85 0.0290425
0.86 0.0260838
0.87 0.0210788
0.88 0.0145018
0.89 0.00687154
0.9 -0.00125689
0.91 -0.00923778
0.92 -0.0164032
0.93 -0.0222662
0.94 -0.0263709
0.95 -0.0283224
0.96 -0.0282091
0.97 -0.025712
0.98 -0.0213987
0.99 -0.015448
1 -0.00844179
1.01 -0.0009532
1.02 0.00635687
1.03 0.0129317
1.04 0.0180727
1.05 0.0214424
1.06 0.0226924
1.07 0.0215878
1.08 0.0183953
1.09 0.0130072
1.1 0.0061438
1.11 -0.00181224
1.12 -0.0101368
1.13 -0.0181747
1.14 -0.025092
1.15 -0.0304149
1.16 -0.0333272
1.17 -0.0336237
1.18 -0.0310053
1.19 -0.0253274
1.2 -0.0170438
1.21 -0.00612543
1.22 0.0064898
1.23 0.0202884
1.24 0.0343821
1.25 0.0479889
1.26 0.0601061
1.27 0.0701973
1.28 0.0772757
1.29 0.0810933
1.3 0.0812524
1.31 0.077491
1.32 0.0702799
1.33 0.0593551
1.34 0.0457413
1.35 0.029782
1.36 0.0123302
1.37 -0.00583466
1.38 -0.0238759
1.39 -0.0410896
1.4 -0.056627
1.41 -0.0700439
1.42 -0.0808623
1.43 -0.0886634
1.44 -0.0936223
1.45 -0.0952508
1.46 -0.0941817
1.47 -0.0903852
1.48 -0.0842868
1.49 -0.0763137
1.5 -0.0667067
1.51 -0.0560315
1.52 -0.0445127
1.53 -0.0325448
1.54 -0.0203587
1.55 -0.00817894
1.56 0.0038449
1.57 0.0155257
1.58 0.0267908
1.59 0.0374727
1.6 0.0474305
1.61 0.0565317
1.62 0.0644421
1.63 0.0710806
1.64 0.0759763
1.65 0.0789861
1.66 0.0797898
1.67 0.0780264
1.68 0.0737804
1.69 0.0664979
1.7 0.056636
1.71 0.0440719
1.72 0.0291765
1.73 0.0124174
1.74 -0.0057937
1.75 -0.0246653
1.76 -0.0435267
1.77 -0.0616038
1.78 -0.07818
1.79 -0.0924512
1.8 -0.104142
1.81 -0.11233
1.82 -0.117314
1.83 -0.118763
1.84 -0.116995
1.85 -0.112516
1.86 -0.105714
1.87 -0.0975932
1.88 -0.0888745
1.89 -0.0805339
1.9 -0.0734018
1.91 -0.0683901
1.92 -0.0658527
1.93 -0.0667149
1.94 -0.070658
1.95 -0.0779069
1.96 -0.0879979
1.97 -0.10027
1.98 -0.114027
1.99 -0.128145
2 -0.141505
2.01 -0.153001
2.02 -0.161544
2.03 -0.165926
2.04 -0.165841
2.05 -0.159848
2.06 -0.148516
2.07 -0.131305
2.08 -0.108658
2.09 -0.0812714
2.1 -0.049465
2.11 -0.0146459
2.12 0.0225654
2.13 0.0609369
2.14 0.0996317
2.15 0.137791
2.16 0.174933
2.17 0.210459
2.18 0.244489
2.19 0.277001
2.2 0.308389
2.21 0.339149
2.22 0.369877
2.23 0.401138
2.24 0.433559
2.25 0.467411
2.26 0.502851
2.27 0.539753
2.28 0.577524
2.29 0.615335
2.3 0.652005
2.31 0.685973
2.32 0.715497
2.33 0.739119
2.34 0.754136
2.35 0.760086
2.36 0.754214
2.37 0.736485
2.38 0.706056
2.39 0.662401
2.4 0.607361
2.41 0.540314
2.42 0.46475
2.43 0.382057
2.44 0.295264
2.45 0.207189
2.46 0.121107
2.47 0.039515
2.48 -0.0341269
2.49 -0.0981572
2.5 -0.15069
2.51 -0.19004
2.52 -0.217183
2.53 -0.230393
2.54 -0.232748
2.55 -0.22486
2.56 -0.209372
2.57 -0.18896
2.58 -0.166254
2.59 -0.144191
2.6 -0.125651
2.61 -0.112694
2.62 -0.107156
2.63 -0.110661
2.64 -0.122763
2.65 -0.144731
2.66 -0.174259
2.67 -0.210617
2.68 -0.251515
2.69 -0.294658
2.7 -0.337482
2.71 -0.377727
2.72 -0.41267
2.73 -0.440846
2.74 -0.460818
2.75 -0.471431
2.76 -0.473568
2.77 -0.46646
2.78 -0.452684
2.79 -0.433349
2.8 -0.410943
2.81 -0.3878
2.82 -0.366654
2.83 -0.349444
2.84 -0.338839
2.85 -0.335856
2.86 -0.341564
2.87 -0.356614
2.88 -0.379671
2.89 -0.410831
2.9 -0.447203
2.91 -0.487115
2.92 -0.527758
2.93 -0.566677
2.94 -0.600727
2.95 -0.628356
2.96 -0.64671
2.97 -0.655281
2.98 -0.653306
2.99 -0.640557
3 -0.618974
3.01 -0.58892
3.02 -0.55384
3.03 -0.515875
3.04 -0.478219
3.05 -0.44353
3.06 -0.41526
3.07 -0.394775
3.08 -0.38499
3.09 -0.386054
3.1 -0.398441
3.11 -0.421974
3.12 -0.45429
3.13 -0.49453
3.14 -0.538955
3.15 -0.585054
3.16 -0.629467
3.17 -0.669556
3.18 -0.70184
3.19 -0.725388
3.2 -0.737606
3.21 -0.738966
3.22 -0.729616
3.23 -0.710552
3.24 -0.68465
3.25 -0.653901
3.26 -0.622205
3.27 -0.592845
3.28 -0.569414
3.29 -0.554452
3.3 -0.551764
3.31 -0.56136
3.32 -0.5857
3.33 -0.623212
3.34 -0.672914
3.35 -0.732714
3.36 -0.798718
3.37 -0.867598
3.38 -0.934766
3.39 -0.995882
3.4 -1.04677
3.41 -1.08476
3.42 -1.10546
3.43 -1.10973
3.44 -1.09511
3.45 -1.06432
3.46 -1.01925
3.47 -0.963142
3.48 -0.901065
3.49 -0.837689
3.5 -0.778347
3.51 -0.728284
3.52 -0.691952
3.53 -0.671725
3.54 -0.671553
3.55 -0.688935
3.56 -0.72436
3.57 -0.772378
3.58 -0.827905
3.59 -0.883037
3.6 -0.92993
3.61 -0.956026
3.62 -0.954207
3.63 -0.912086
3.64 -0.820669
3.65 -0.675099
3.66 -0.462574
3.67 -0.188747
3.68 0.155096
3.69 0.560212
3.7 1.02236
3.71 1.53405
3.72 2.07963
3.73 2.64869
3.74 3.22195
3.75 3.78296
3.76 4.31303
3.77 4.79792
3.78 5.21415
3.79 5.55742
3.8 5.80577
3.81 5.95851
3.82 6.00907
3.83 5.9516
3.84 5.79947
3.85 5.54349
3.86 5.20781
3.87 4.79698
3.88 4.32813
3.89 3.81832
3.9 3.28174
3.91 2.73751
3.92 2.20125
3.93 1.68725
3.94 1.20768
3.95 0.775296
3.96 0.391923
3.97 0.0711666
3.98 -0.194133
3.99 -0.399777
4 -0.550547
4.01 -0.653738
4.02 -0.711521
4.03 -0.737164
4.04 -0.735006
4.05 -0.715895
4.06 -0.686772
4.07 -0.654847
4.08 -0.625567
4.09 -0.60436
4.1 -0.592935
4.11 -0.593551
4.12 -0.60601
4.13 -0.628717
4.14 -0.660457
4.15 -0.697388
4.16 -0.736818
4.17 -0.775075
4.18 -0.80913
4.19 -0.835647
4.2 -0.853343
4.21 -0.858857
4.22 -0.853011
4.23 -0.834576
4.24 -0.804285
4.25 -0.763587
4.26 -0.712849
4.27 -0.654943
4.28 -0.590743
4.29 -0.522537
4.3 -0.451692
4.31 -0.37951
4.32 -0.306999
4.33 -0.234829
4.34 -0.163269
4.35 -0.0924351
4.36 -0.0221969
4.37 0.047644
4.38 0.117222
4.39 0.186603
4.4 0.255569
4.41 0.323675
4.42 0.390181
4.43 0.453807
4.44 0.513626
4.45 0.567187
4.46 0.613667
4.47 0.650732
4.48 0.676808
4.49 0.69114
4.5 0.691119
4.51 0.678033
4.52 0.649988
4.53 0.608637
4.54 0.554623
4.55 0.488976
4.56 0.414605
4.57 0.332581
4.58 0.24643
4.59 0.15827
4.6 0.0708367
4.61 -0.0138007
4.62 -0.0930259
4.63 -0.166047
4.64 -0.230863
4.65 -0.287524
4.66 -0.335797
4.67 -0.375724
4.68 -0.408893
4.69 -0.435447
4.7 -0.457653
4.71 -0.476535
4.72 -0.493695
4.73 -0.510395
4.74 -0.527801
4.75 -0.546545
4.76 -0.567253
4.77 -0.589833
4.78 -0.614062
4.79 -0.639382
4.8 -0.664959
4.81 -0.689757
4.82 -0.712885
4.83 -0.733257
4.84 -0.750031
4.85 -0.762816
4.86 -0.770735
4.87 -0.774385
4.88 -0.773472
4.89 -0.768946
4.9 -0.761506
4.91 -0.752123
4.92 -0.742003
4.93 -0.732321
4.94 -0.724095
4.95 -0.718376
4.96 -0.715917
4.97 -0.717003
4.98 -0.722287
4.99 -0.731131
5 -0.74363
5.01 -0.758877
5.02 -0.776201
5.03 -0.794736
5.04 -0.81355
5.05 -0.831722
5.06 -0.848605
5.07 -0.863523
5.08 -0.876096
5.09 -0.88627
5.1 -0.89376
5.11 -0.899066
5.12 -0.902157
5.13 -0.903485
5.14 -0.903217
5.15 -0.901349
5.16 -0.897919
5.17 -0.892189
5.18 -0.88375
5.19 -0.871341
5.2 -0.853582
5.21 -0.829308
5.22 -0.795757
5.23 -0.752476
5.24 -0.696409
5.25 -0.627076
5.26 -0.543261
5.27 -0.443652
5.28 -0.329985
5.29 -0.20083
5.3 -0.0599484
5.31 0.0913281
5.32 0.249405
5.33 0.410476
5.34 0.569942
5.35 0.723567
5.36 0.865507
5.37 0.991743
5.38 1.09786
5.39 1.17851
5.4 1.23354
5.41 1.25609
5.42 1.24951
5.43 1.21126
5.44 1.1431
5.45 1.04859
5.46 0.928251
5.47 0.789415
5.48 0.634636
5.49 0.470599
5.5 0.302208
5.51 0.135152
5.52 -0.0262264
5.53 -0.175961
5.54 -0.312012
5.55 -0.430495
5.56 -0.529743
5.57 -0.609987
5.58 -0.669086
5.59 -0.710826
5.6 -0.734775
5.61 -0.744788
5.62 -0.743216
5.63 -0.73271
5.64 -0.716794
5.65 -0.697548
5.66 -0.677653
5.67 -0.658714
5.68 -0.641918
5.69 -0.627589
5.7 -0.615867
5.71 -0.605739
5.72 -0.596205
5.73 -0.585686
5.74 -0.57264
5.75 -0.555137
5.76 -0.532338
5.77 -0.502082
5.78 -0.464724
5.79 -0.419527
5.8 -0.367096
5.81 -0.30874
5.82 -0.245534
5.83 -0.180067
5.84 -0.114552
5.85 -0.0517111
5.86 0.00592116
5.87 0.0552339
5.88 0.0950421
5.89 0.121629
5.9 0.135464
5.91 0.134741
5.92 0.119578
5.93 0.0912167
5.94 0.0493411
5.95 -0.00266354
5.96 -0.0639553
5.97 -0.131351
5.98 -0.202599
5.99 -0.275136
6 -0.346736
6.01 -0.414943
6.02 -0.478595
6.03 -0.536167
6.04 -0.587017
6.05 -0.631327
6.06 -0.668603
6.07 -0.700418
6.08 -0.727066
6.09 -0.750155
6.1 -0.770795
6.11 -0.790187
6.12 -0.80941
6.13 -0.829359
6.14 -0.850449
6.15 -0.872955
6.16 -0.896707
6.17 -0.921244
6.18 -0.945889
6.19 -0.969828
6.2 -0.992018
6.21 -1.01168
6.22 -1.02807
6.23 -1.04043
6.24 -1.04894
6.25 -1.05302
6.26 -1.05363
6.27 -1.05113
6.28 -1.0465
6.29 -1.04074
6.3 -1.03484
6.31 -1.02961
6.32 -1.0257
6.33 -1.02313
6.34 -1.02148
6.35 -1.01957
6.36 -1.0158
6.37 -1.00698
6.38 -0.990587
6.39 -0.962252
6.4 -0.917547
6.41 -0.853275
6.42 -0.761864
6.43 -0.642928
6.44 -0.489012
6.45 -0.299804
6.46 -0.0731775
6.47 0.193405
6.48 0.494824
6.49 0.83398
6.5 1.20156
6.51 1.59426
6.52 2.00387
6.53 2.42173
6.54 2.83796
6.55 3.24309
6.56 3.62471
6.57 3.97379
6.58 4.28071
6.59 4.5333
6.6 4.73049
6.61 4.85633
6.62 4.91648
6.63 4.90361
6.64 4.81899
6.65 4.66869
6.66 4.44961
6.67 4.17706
6.68 3.85239
6.69 3.48928
6.7 3.0968
6.71 2.68534
6.72 2.26664
6.73 1.85128
6.74 1.44851
6.75 1.06773
6.76 0.716595
6.77 0.398725
6.78 0.123034
6.79 -0.113846
6.8 -0.30606
6.81 -0.457792
6.82 -0.570583
6.83 -0.645976
6.84 -0.691708
6.85 -0.708203
6.86 -0.704421
6.87 -0.683624
6.88 -0.65128
6.89 -0.61204
6.9 -0.569429
6.91 -0.526877
6.92 -0.486864
6.93 -0.450894
6.94 -0.419868
6.95 -0.394395
6.96 -0.373703
6.97 -0.357956
6.98 -0.345723
6.99 -0.336479
7 -0.329355
7.01 -0.323694
7.02 -0.319294
7.03 -0.31595
7.04 -0.31409
7.05 -0.314189
7.06 -0.317008
7.07 -0.323749
7.08 -0.334892
7.09 -0.352225
7.1 -0.375699
7.11 -0.406319
7.12 -0.444203
7.13 -0.488769
7.14 -0.540163
7.15 -0.596493
7.16 -0.656948
7.17 -0.719456
7.18 -0.78226
7.19 -0.843145
7.2 -0.900535
7.21 -0.951796
7.22 -0.996195
7.23 -1.03203
7.24 -1.05859
7.25 -1.07618
7.26 -1.08393
7.27 -1.0839
7.28 -1.07631
7.29 -1.06331
7.3 -1.04651
7.31 -1.02777
7.32 -1.00897
7.33 -0.991936
7.34 -0.977772
7.35 -0.967567
7.36 -0.961678
7.37 -0.959677
7.38 -0.961139
7.39 -0.964268
7.4 -0.967289
7.41 -0.967764
7.42 -0.963204
7.43 -0.950221
7.44 -0.927225
7.45 -0.889681
7.46 -0.837336
7.47 -0.767397
7.48 -0.67896
7.49 -0.572841
7.5 -0.447412
7.51 -0.306619
7.52 -0.150773
7.53 0.0159309
7.54 0.190239
7.55 0.368016
7.56 0.544894
7.57 0.715584
7.58 0.876387
7.59 1.02235
7.6 1.14942
7.61 1.25567
7.62 1.3354
7.63 1.39046
7.64 1.41662
7.65 1.41586
7.66 1.3886
7.67 1.33501
7.68 1.25992
7.69 1.16293
7.7 1.05021
7.71 0.924012
7.72 0.788574
7.73 0.647901
7.74 0.50562
7.75 0.365331
7.76 0.230666
7.77 0.104222
7.78 -0.0116475
7.79 -0.114129
7.8 -0.203319
7.81 -0.275904
7.82 -0.333546
7.83 -0.374992
7.84 -0.400757
7.85 -0.412379
7.86 -0.409201
7.87 -0.394483
7.88 -0.368351
7.89 -0.333463
7.9 -0.291527
7.91 -0.244396
7.92 -0.194524
7.93 -0.14384
7.94 -0.0945494
7.95 -0.048726
7.96 -0.00840874
7.97 0.0251494
7.98 0.0493363
7.99 0.0642457
8 0.0677357
8.01 0.060044
8.02 0.0409207
8.03 0.00994861
8.04 -0.0310314
8.05 -0.0825422
8.06 -0.141863
8.07 -0.208027
8.08 -0.27898
8.09 -0.352663
8.1 -0.427136
8.11 -0.500444
8.12 -0.570591
8.13 -0.636199
8.14 -0.696104
8.15 -0.749038
8.16 -0.795373
8.17 -0.834025
8.18 -0.866397
8.19 -0.892725
8.2 -0.914159
8.21 -0.932054
8.22 -0.947357
8.23 -0.961518
8.24 -0.975369
8.25 -0.98957
8.26 -1.00428
8.27 -1.01915
8.28 -1.03331
8.29 -1.04495
8.3 -1.05228
8.31 -1.05243
8.32 -1.0422
8.33 -1.01923
8.34 -0.978005
8.35 -0.9179
8.36 -0.833441
8.37 -0.723809
8.38 -0.58722
8.39 -0.421118
8.4 -0.22885
8.41 -0.00756513
8.42 0.236519
8.43 0.501676
8.44 0.782691
8.45 1.07356
8.46 1.36826
8.47 1.65966
8.48 1.93983
8.49 2.20195
8.5 2.43936
8.51 2.64332
8.52 2.8123
8.53 2.93536
8.54 3.01504
8.55 3.04599
8.56 3.0279
8.57 2.96443
8.58 2.85212
8.59 2.70104
8.6 2.51109
8.61 2.29091
8.62 2.04627
8.63 1.78332
8.64 1.51041
8.65 1.23367
8.66 0.96018
8.67 0.696004
8.68 0.446781
8.69 0.21555
8.7 0.0085247
8.71 -0.175436
8.72 -0.332153
8.73 -0.463338
8.74 -0.569551
8.75 -0.651024
8.76 -0.712477
8.77 -0.753707
8.78 -0.780391
8.79 -0.79454
8.8 -0.799723
8.81 -0.799245
8.82 -0.795536
8.83 -0.791325
8.84 -0.788563
8.85 -0.788688
8.86 -0.79263
8.87 -0.801196
8.88 -0.813959
8.89 -0.831286
8.9 -0.852008
8.91 -0.875615
8.92 -0.901093
8.93 -0.927461
8.94 -0.953768
8.95 -0.979224
8.96 -1.003
8.97 -1.02466
8.98 -1.0439
8.99 -1.0604
9 -1.0745
9.01 -1.08601
9.02 -1.09558
9.03 -1.10343
9.04 -1.10999
9.05 -1.11568
9.06 -1.12072
9.07 -1.12539
9.08 -1.12968
9.09 -1.13349
9.1 -1.13655
9.11 -1.13829
9.12 -1.1383
9.13 -1.13547
9.14 -1.12933
9.15 -1.11877
9.16 -1.10289
9.17 -1.08128
9.18 -1.05239
9.19 -1.01674
9.2 -0.973192
9.21 -0.922265
9.22 -0.864191
9.23 -0.79918
9.24 -0.728807
9.25 -0.653534
9.26 -0.575452
9.27 -0.495979
9.28 -0.41712
9.29 -0.34058
9.3 -0.268898
9.31 -0.203195
9.32 -0.145999
9.33 -0.098283
9.34 -0.0611804
9.35 -0.0362674
9.36 -0.022574
9.37 -0.0218836
9.38 -0.0320611
9.39 -0.0530335
9.4 -0.08335
9.41 -0.12097
9.42 -0.164733
9.43 -0.211845
9.44 -0.260554
9.45 -0.308577
9.46 -0.354105
9.47 -0.39506
9.48 -0.430667
9.49 -0.458908
9.5 -0.480109
9.51 -0.493591
9.52 -0.499671
9.53 -0.499409
9.54 -0.49311
9.55 -0.482847
9.56 -0.469663
9.57 -0.455424
9.58 -0.441615
9.59 -0.429939
9.6 -0.421361
9.61 -0.417565
9.62 -0.418695
9.63 -0.425498
9.64 -0.438019
9.65 -0.455657
9.66 -0.478466
9.67 -0.504978
9.68 -0.534683
9.69 -0.566294
9.7 -0.598872
9.71 -0.63144
9.72 -0.663292
9.73 -0.69367
9.74 -0.722413
9.75 -0.749281
9.76 -0.77436
9.77 -0.797953
9.78 -0.820174
9.79 -0.841445
9.8 -0.861755
9.81 -0.881018
9.82 -0.898774
9.83 -0.913884
9.84 -0.92534
9.85 -0.930358
9.86 -0.927233
9.87 -0.912488
9.88 -0.882488
9.89 -0.834924
9.9 -0.763114
9.91 -0.666932
9.92 -0.539918
9.93 -0.381221
9.94 -0.188925
9.95 0.0402968
9.96 0.302265
9.97 0.600716
9.98 0.928309
9.99 1.28317
10 1.65933
10.01 2.04948
10.02 2.44682
10.03 2.84232
10.04 3.22662
10.05 3.59095
10.06 3.92704
10.07 4.22368
10.08 4.4784
10.09 4.67739
10.1 4.82268
10.11 4.90727
10.12 4.9296
10.13 4.8939
10.14 4.79451
10.15 4.6438
10.16 4.44077
10.17 4.19573
10.18 3.91566
10.19 3.60752
10.2 3.28226
10.21 2.9467
10.22 2.61048
10.23 2.28093
10.24 1.96541
10.25 1.66817
10.26 1.39685
10.27 1.15083
10.28 0.935124
10.29 0.748247
10.3 0.589567
10.31 0.458989
10.32 0.351021
10.33 0.26568
10.34 0.196454
10.35 0.140752
10.36 0.0943663
10.37 0.0534073
10.38 0.0148745
10.39 -0.0242221
10.4 -0.0662008
10.41 -0.112524
10.42 -0.164071
10.43 -0.221583
10.44 -0.284229
10.45 -0.352114
10.46 -0.423575
10.47 -0.497646
10.48 -0.572792
10.49 -0.647628
10.5 -0.720475
10.51 -0.79035
10.52 -0.855695
10.53 -0.91579
10.54 -0.969931
10.55 -1.01711
10.56 -1.05776
10.57 -1.09066
10.58 -1.1167
10.59 -1.13548
10.6 -1.14716
10.61 -1.15238
10.62 -1.15053
10.63 -1.14285
10.64 -1.12889
10.65 -1.10942
10.66 -1.08477
10.67 -1.05505
10.68 -1.0213
10.69 -0.983502
10.7 -0.942835
10.71 -0.899848
10.72 -0.855488
10.73 -0.810703
10.74 -0.766597
10.75 -0.724082
10.76 -0.684432
10.77 -0.64853
10.78 -0.617244
10.79 -0.591807
10.8 -0.572178
10.81 -0.559835
10.82 -0.55417
10.83 -0.555717
10.84 -0.564326
10.85 -0.57922
10.86 -0.600672
10.87 -0.627102
10.88 -0.658282
10.89 -0.692943
10.9 -0.730179
10.91 -0.769055
10.92 -0.808504
10.93 -0.847605
10.94 -0.885564
10.95 -0.921603
10.96 -0.955061
10.97 -0.985676
10.98 -1.01265
10.99 -1.03629
11 -1.05608
11.01 -1.07231
11.02 -1.08512
11.03 -1.09454
11.04 -1.10125
11.05 -1.10528
11.06 -1.10743
11.07 -1.1081
11.08 -1.10787
11.09 -1.10734
11.1 -1.1071
11.11 -1.10763
11.12 -1.10947
11.13 -1.11291
11.14 -1.11814
11.15 -1.12529
11.16 -1.13395
11.17 -1.14382
11.18 -1.15398
11.19 -1.16341
11.2 -1.17056
11.21 -1.17408
11.22 -1.17119
11.23 -1.16068
11.24 -1.13922
11.25 -1.10496
11.26 -1.05577
11.27 -0.988153
11.28 -0.902457
11.29 -0.794171
11.3 -0.665114
11.31 -0.513616
11.32 -0.340135
11.33 -0.147273
11.34 0.0653584
11.35 0.292229
11.36 0.531353
11.37 0.777407
11.38 1.02583
11.39 1.27082
11.4 1.50771
11.41 1.72906
11.42 1.93132
11.43 2.10842
11.44 2.25552
11.45 2.3714
11.46 2.44849
11.47 2.49064
11.48 2.49295
11.49 2.45849
11.5 2.3889
11.51 2.28471
11.52 2.15306
11.53 1.99437
11.54 1.81682
11.55 1.62417
11.56 1.42219
11.57 1.21625
11.58 1.01147
11.59 0.811984
11.6 0.622358
11.61 0.445257
11.62 0.282764
11.63 0.137535
11.64 0.00819089
11.65 -0.102929
11.66 -0.198894
11.67 -0.280078
11.68 -0.348471
11.69 -0.406879
11.7 -0.456479
11.71 -0.500664
11.72 -0.540903
11.73 -0.579348
11.74 -0.617353
11.75 -0.656035
11.76 -0.695831
11.77 -0.737014
11.78 -0.779051
11.79 -0.821254
11.8 -0.862421
11.81 -0.901397
11.82 -0.936101
11.83 -0.965571
11.84 -0.98751
11.85 -1.00076
11.86 -1.00407
11.87 -0.995412
11.88 -0.975313
11.89 -0.94127
11.9 -0.894646
11.91 -0.834621
11.92 -0.761492
11.93 -0.676719
11.94 -0.57965
11.95 -0.473127
11.96 -0.35742
11.97 -0.234781
11.98 -0.106912
11.99 0.0243591
12 0.156735
12.01 0.287964
12.02 0.415906
12.03 0.538156
12.04 0.652233
12.05 0.756749
12.06 0.847968
12.07 0.925982
12.08 0.987551
12.09 1.03232
12.1 1.05952
12.11 1.06737
12.12 1.05802
12.13 1.02928
12.14 0.984431
12.15 0.923813
12.16 0.849388
12.17 0.764134
12.18 0.669386
12.19 0.569108
12.2 0.465503
12.21 0.361713
12.22 0.260193
12.23 0.163788
12.24 0.0737687
12.25 -0.00712923
12.26 -0.0789399
12.27 -0.140611
12.28 -0.192172
12.29 -0.234872
12.3 -0.268661
12.31 -0.296216
12.32 -0.318582
12.33 -0.338097
12.34 -0.356589
12.35 -0.37606
12.36 -0.397866
12.37 -0.42375
12.38 -0.454015
12.39 -0.489183
12.4 -0.528948
12.41 -0.57221
12.42 -0.61788
12.43 -0.66383
