# xPDFsuite Configuration #
[PDF]
wavelength = 0.1432
dataformat = twotheta
inputfile = 1_1Pd_CeO2_cycle-00338.chi
backgroundfile = background-00000.chi
mode = xray
bgscale = 1.007
composition = CeO2
outputtype = gr
qmaxinst = 28.8974762299
qmin = 0.5
qmax = 27.9
rmax = 50.0
rmin = 0.0
rstep = 0.01
rpoly = 1.8657

[Misc]
inputdir = G:/SankarDec16/1Pd/Chi
savedir = D:/DATA/APS_CeO2/1Pd
backgroundfilefull = G:/SankarDec16/Background/background-00000.chi

#### start data
#S 1
#L r($\AA$)  G($\AA^{-2}$)
0 0
0.01 -0.00903288
0.02 -0.0173869
0.03 -0.0243628
0.04 -0.0294338
0.05 -0.0323063
0.06 -0.0325081
0.07 -0.0303519
0.08 -0.0256844
0.09 -0.019103
0.1 -0.0110206
0.11 -0.00206989
0.12 0.00705719
0.13 0.0155861
0.14 0.0229645
0.15 0.0285184
0.16 0.0318506
0.17 0.0328003
0.18 0.0310424
0.19 0.0270347
0.2 0.0207903
0.21 0.0130049
0.22 0.00419163
0.23 -0.00493965
0.24 -0.0137359
0.25 -0.0213625
0.26 -0.0274189
0.27 -0.0312873
0.28 -0.0327184
0.29 -0.0316921
0.3 -0.0280453
0.31 -0.0223603
0.32 -0.0148164
0.33 -0.00617609
0.34 0.00297103
0.35 0.0118696
0.36 0.0199359
0.37 0.0263135
0.38 0.0307718
0.39 0.0327785
0.4 0.0322433
0.41 0.0292887
0.42 0.0239212
0.43 0.0168218
0.44 0.00832756
0.45 -0.000766215
0.46 -0.00982069
0.47 -0.0180693
0.48 -0.0250247
0.49 -0.0298481
0.5 -0.0324902
0.51 -0.0325286
0.52 -0.0300374
0.53 -0.025276
0.54 -0.0184219
0.55 -0.0102232
0.56 -0.00116041
0.57 0.0079749
0.58 0.016524
0.59 0.0237437
0.6 0.0292665
0.61 0.0323099
0.62 0.0330087
0.63 0.0310707
0.64 0.026732
0.65 0.0203775
0.66 0.0123485
0.67 0.00342663
0.68 -0.0057861
0.69 -0.0145376
0.7 -0.0221796
0.71 -0.0280263
0.72 -0.0318475
0.73 -0.0329528
0.74 -0.0316556
0.75 -0.0278075
0.76 -0.0217957
0.77 -0.0141132
0.78 -0.0052489
0.79 0.00401856
0.8 0.0129946
0.81 0.0210016
0.82 0.0274333
0.83 0.031694
0.84 0.0337017
0.85 0.032892
0.86 0.0297409
0.87 0.0242505
0.88 0.016939
0.89 0.00838108
0.9 -0.000814066
0.91 -0.00991268
0.92 -0.0181699
0.93 -0.0250218
0.94 -0.0299443
0.95 -0.0324739
0.96 -0.0326874
0.97 -0.0301987
0.98 -0.0256246
0.99 -0.0191378
1 -0.0113713
1.01 -0.0029567
1.02 0.00538855
1.03 0.0130281
1.04 0.0191936
1.05 0.0234861
1.06 0.0255051
1.07 0.0249695
1.08 0.0221488
1.09 0.0169007
1.1 0.00999905
1.11 0.00184319
1.12 -0.00678603
1.13 -0.0151779
1.14 -0.0224367
1.15 -0.0280374
1.16 -0.0311052
1.17 -0.031412
1.18 -0.0286404
1.19 -0.0226462
1.2 -0.0139231
1.21 -0.0024751
1.22 0.0106821
1.23 0.0249592
1.24 0.0393782
1.25 0.0530849
1.26 0.0649633
1.27 0.0744602
1.28 0.0804943
1.29 0.0828424
1.3 0.0811085
1.31 0.0750674
1.32 0.0652984
1.33 0.0516136
1.34 0.0351981
1.35 0.0165383
1.36 -0.00334672
1.37 -0.023545
1.38 -0.0430127
1.39 -0.0610079
1.4 -0.0764937
1.41 -0.0890458
1.42 -0.0981526
1.43 -0.103403
1.44 -0.105128
1.45 -0.102863
1.46 -0.0975003
1.47 -0.0891594
1.48 -0.0785008
1.49 -0.066154
1.5 -0.0526254
1.51 -0.0386104
1.52 -0.0245964
1.53 -0.0110381
1.54 0.00172632
1.55 0.0133966
1.56 0.0239485
1.57 0.0331113
1.58 0.0410901
1.59 0.0478051
1.6 0.0533516
1.61 0.05782
1.62 0.0611212
1.63 0.0633914
1.64 0.0644271
1.65 0.0642402
1.66 0.062678
1.67 0.0595377
1.68 0.0548633
1.69 0.0482813
1.7 0.0400423
1.71 0.0300278
1.72 0.0184413
1.73 0.00556789
1.74 -0.00833811
1.75 -0.022735
1.76 -0.0371552
1.77 -0.0510356
1.78 -0.0638466
1.79 -0.074985
1.8 -0.0842327
1.81 -0.0908984
1.82 -0.0952001
1.83 -0.0969067
1.84 -0.0962829
1.85 -0.0937422
1.86 -0.0896528
1.87 -0.0848058
1.88 -0.0798508
1.89 -0.0755603
1.9 -0.0726214
1.91 -0.071774
1.92 -0.073238
1.93 -0.0777478
1.94 -0.084914
1.95 -0.0948166
1.96 -0.106919
1.97 -0.12053
1.98 -0.134843
1.99 -0.148822
2 -0.161266
2.01 -0.171171
2.02 -0.177485
2.03 -0.179055
2.04 -0.17571
2.05 -0.166053
2.06 -0.150824
2.07 -0.12958
2.08 -0.102907
2.09 -0.0716182
2.1 -0.0361936
2.11 0.00188095
2.12 0.0418151
2.13 0.0823219
2.14 0.122472
2.15 0.161315
2.16 0.198416
2.17 0.233041
2.18 0.265461
2.19 0.295634
2.2 0.324065
2.21 0.351374
2.22 0.378255
2.23 0.405466
2.24 0.433783
2.25 0.463658
2.26 0.495411
2.27 0.529105
2.28 0.564226
2.29 0.600177
2.3 0.635745
2.31 0.66949
2.32 0.699657
2.33 0.724722
2.34 0.741992
2.35 0.750794
2.36 0.748309
2.37 0.734279
2.38 0.707696
2.39 0.667826
2.4 0.616345
2.41 0.552388
2.42 0.479359
2.43 0.398468
2.44 0.312666
2.45 0.224762
2.46 0.137933
2.47 0.0548323
2.48 -0.0210965
2.49 -0.088
2.5 -0.143865
2.51 -0.186835
2.52 -0.217689
2.53 -0.234502
2.54 -0.240191
2.55 -0.235182
2.56 -0.221985
2.57 -0.203208
2.58 -0.181337
2.59 -0.159393
2.6 -0.140181
2.61 -0.125897
2.62 -0.118454
2.63 -0.119599
2.64 -0.129067
2.65 -0.14827
2.66 -0.175092
2.67 -0.208969
2.68 -0.247765
2.69 -0.289282
2.7 -0.33112
2.71 -0.370989
2.72 -0.406271
2.73 -0.43542
2.74 -0.456959
2.75 -0.469658
2.76 -0.474237
2.77 -0.46983
2.78 -0.458823
2.79 -0.442178
2.8 -0.42222
2.81 -0.40117
2.82 -0.381587
2.83 -0.365397
2.84 -0.355138
2.85 -0.351867
2.86 -0.356656
2.87 -0.370193
2.88 -0.391279
2.89 -0.420062
2.9 -0.453844
2.91 -0.491074
2.92 -0.529107
2.93 -0.565613
2.94 -0.59762
2.95 -0.623627
2.96 -0.640924
2.97 -0.648998
2.98 -0.64711
2.99 -0.635029
3 -0.614579
3.01 -0.586099
3.02 -0.552854
3.03 -0.516876
3.04 -0.481199
3.05 -0.448349
3.06 -0.421606
3.07 -0.402265
3.08 -0.39309
3.09 -0.394217
3.1 -0.406085
3.11 -0.428512
3.12 -0.459245
3.13 -0.497452
3.14 -0.539585
3.15 -0.583256
3.16 -0.625286
3.17 -0.663194
3.18 -0.69371
3.19 -0.715989
3.2 -0.727631
3.21 -0.729137
3.22 -0.720709
3.23 -0.703365
3.24 -0.679847
3.25 -0.652142
3.26 -0.623902
3.27 -0.598268
3.28 -0.5786
3.29 -0.567229
3.3 -0.567691
3.31 -0.579856
3.32 -0.60592
3.33 -0.644245
3.34 -0.693751
3.35 -0.752287
3.36 -0.816103
3.37 -0.881842
3.38 -0.945222
3.39 -1.00206
3.4 -1.04848
3.41 -1.08208
3.42 -1.0988
3.43 -1.09973
3.44 -1.08273
3.45 -1.05068
3.46 -1.00558
3.47 -0.95082
3.48 -0.891289
3.49 -0.831738
3.5 -0.777115
3.51 -0.732481
3.52 -0.701911
3.53 -0.687419
3.54 -0.6925
3.55 -0.714347
3.56 -0.75296
3.57 -0.802681
3.58 -0.858179
3.59 -0.911327
3.6 -0.954462
3.61 -0.974828
3.62 -0.965799
3.63 -0.915166
3.64 -0.814409
3.65 -0.659151
3.66 -0.437158
3.67 -0.15457
3.68 0.196674
3.69 0.607448
3.7 1.0731
3.71 1.58573
3.72 2.12982
3.73 2.69451
3.74 3.26108
3.75 3.81316
3.76 4.33256
3.77 4.80563
3.78 5.20946
3.79 5.54048
3.8 5.77748
3.81 5.92038
3.82 5.96321
3.83 5.90076
3.84 5.74644
3.85 5.49177
3.86 5.16039
3.87 4.75699
3.88 4.29825
3.89 3.80067
3.9 3.27794
3.91 2.74829
3.92 2.22662
3.93 1.72638
3.94 1.25901
3.95 0.836448
3.96 0.460259
3.97 0.143142
3.98 -0.121776
3.99 -0.330614
4 -0.48789
4.01 -0.600418
4.02 -0.670088
4.03 -0.709204
4.04 -0.721512
4.05 -0.716927
4.06 -0.701617
4.07 -0.681897
4.08 -0.662761
4.09 -0.648654
4.1 -0.641336
4.11 -0.6426
4.12 -0.652325
4.13 -0.669254
4.14 -0.692262
4.15 -0.71841
4.16 -0.745448
4.17 -0.770629
4.18 -0.791667
4.19 -0.806112
4.2 -0.813247
4.21 -0.810694
4.22 -0.799413
4.23 -0.778734
4.24 -0.749476
4.25 -0.712886
4.26 -0.66942
4.27 -0.621145
4.28 -0.568666
4.29 -0.51341
4.3 -0.456075
4.31 -0.397151
4.32 -0.337015
4.33 -0.275427
4.34 -0.212356
4.35 -0.147319
4.36 -0.0799616
4.37 -0.0101411
4.38 0.0625157
4.39 0.13743
4.4 0.214297
4.41 0.291947
4.42 0.369109
4.43 0.443844
4.44 0.514601
4.45 0.578205
4.46 0.633429
4.47 0.6774
4.48 0.708251
4.49 0.725173
4.5 0.725275
4.51 0.710282
4.52 0.678287
4.53 0.631479
4.54 0.570881
4.55 0.498008
4.56 0.416287
4.57 0.327317
4.58 0.234999
4.59 0.141874
4.6 0.0509421
4.61 -0.0356518
4.62 -0.115056
4.63 -0.186773
4.64 -0.248784
4.65 -0.301521
4.66 -0.345038
4.67 -0.379735
4.68 -0.407592
4.69 -0.429154
4.7 -0.446971
4.71 -0.462389
4.72 -0.477211
4.73 -0.492753
4.74 -0.510356
4.75 -0.530424
4.76 -0.553591
4.77 -0.579467
4.78 -0.607607
4.79 -0.637172
4.8 -0.667033
4.81 -0.695839
4.82 -0.72249
4.83 -0.745652
4.84 -0.764334
4.85 -0.77811
4.86 -0.785968
4.87 -0.788685
4.88 -0.78596
4.89 -0.778972
4.9 -0.768582
4.91 -0.755973
4.92 -0.742574
4.93 -0.729786
4.94 -0.718786
4.95 -0.710806
4.96 -0.706711
4.97 -0.706817
4.98 -0.71188
4.99 -0.721142
5 -0.734717
5.01 -0.751546
5.02 -0.770858
5.03 -0.79166
5.04 -0.81287
5.05 -0.833439
5.06 -0.852607
5.07 -0.86959
5.08 -0.88393
5.09 -0.895541
5.1 -0.904067
5.11 -0.910056
5.12 -0.913439
5.13 -0.914731
5.14 -0.914121
5.15 -0.911635
5.16 -0.907375
5.17 -0.900608
5.18 -0.890987
5.19 -0.877263
5.2 -0.858086
5.21 -0.832314
5.22 -0.797202
5.23 -0.752332
5.24 -0.694676
5.25 -0.623798
5.26 -0.538528
5.27 -0.437623
5.28 -0.32286
5.29 -0.192922
5.3 -0.0515922
5.31 0.0997098
5.32 0.257347
5.33 0.417511
5.34 0.575542
5.35 0.7273
5.36 0.866941
5.37 0.990573
5.38 1.09388
5.39 1.17168
5.4 1.22393
5.41 1.24401
5.42 1.23538
5.43 1.19566
5.44 1.12675
5.45 1.03224
5.46 0.912791
5.47 0.775605
5.48 0.62327
5.49 0.462284
5.5 0.297406
5.51 0.134122
5.52 -0.0234581
5.53 -0.169641
5.54 -0.302591
5.55 -0.418672
5.56 -0.516401
5.57 -0.596086
5.58 -0.655774
5.59 -0.699099
5.6 -0.725677
5.61 -0.739127
5.62 -0.741613
5.63 -0.735523
5.64 -0.724073
5.65 -0.70899
5.66 -0.692687
5.67 -0.676444
5.68 -0.661202
5.69 -0.64719
5.7 -0.634289
5.71 -0.621684
5.72 -0.608301
5.73 -0.592859
5.74 -0.574049
5.75 -0.550266
5.76 -0.521068
5.77 -0.48473
5.78 -0.441959
5.79 -0.392435
5.8 -0.337087
5.81 -0.277364
5.82 -0.214696
5.83 -0.151447
5.84 -0.0899703
5.85 -0.0326471
5.86 0.0182371
5.87 0.0599248
5.88 0.0917146
5.89 0.110354
5.9 0.116774
5.91 0.109646
5.92 0.0894957
5.93 0.0577691
5.94 0.0145854
5.95 -0.0368625
5.96 -0.0955267
5.97 -0.158554
5.98 -0.223925
5.99 -0.289414
6 -0.353318
6.01 -0.413629
6.02 -0.469708
6.03 -0.520529
6.04 -0.565901
6.05 -0.606255
6.06 -0.641567
6.07 -0.673263
6.08 -0.701875
6.09 -0.728713
6.1 -0.754676
6.11 -0.780657
6.12 -0.807212
6.13 -0.834818
6.14 -0.86335
6.15 -0.8926
6.16 -0.92194
6.17 -0.950649
6.18 -0.977584
6.19 -1.00206
6.2 -1.02278
6.21 -1.03925
6.22 -1.05094
6.23 -1.05735
6.24 -1.05918
6.25 -1.05624
6.26 -1.05001
6.27 -1.0413
6.28 -1.03152
6.29 -1.0219
6.3 -1.01387
6.31 -1.0081
6.32 -1.00543
6.33 -1.00561
6.34 -1.00803
6.35 -1.01118
6.36 -1.013
6.37 -1.0099
6.38 -0.99887
6.39 -0.975133
6.4 -0.933875
6.41 -0.871713
6.42 -0.780714
6.43 -0.660678
6.44 -0.504029
6.45 -0.310785
6.46 -0.0790869
6.47 0.193225
6.48 0.500561
6.49 0.845316
6.5 1.21775
6.51 1.61411
6.52 2.02581
6.53 2.44406
6.54 2.85863
6.55 3.26031
6.56 3.63663
6.57 3.97899
6.58 4.27813
6.59 4.52235
6.6 4.71113
6.61 4.82919
6.62 4.88263
6.63 4.86473
6.64 4.77718
6.65 4.62624
6.66 4.40928
6.67 4.14128
6.68 3.82377
6.69 3.46993
6.7 3.08848
6.71 2.68931
6.72 2.2835
6.73 1.88099
6.74 1.49037
6.75 1.12041
6.76 0.778177
6.77 0.467
6.78 0.195155
6.79 -0.040496
6.8 -0.23445
6.81 -0.390516
6.82 -0.509997
6.83 -0.594108
6.84 -0.649916
6.85 -0.677436
6.86 -0.684912
6.87 -0.675063
6.88 -0.652789
6.89 -0.622377
6.9 -0.586797
6.91 -0.549507
6.92 -0.512659
6.93 -0.477954
6.94 -0.446423
6.95 -0.418875
6.96 -0.395024
6.97 -0.375312
6.98 -0.358843
6.99 -0.34548
7 -0.334766
7.01 -0.326299
7.02 -0.320238
7.03 -0.31634
7.04 -0.315191
7.05 -0.317071
7.06 -0.322574
7.07 -0.332642
7.08 -0.347383
7.09 -0.368217
7.1 -0.394735
7.11 -0.427571
7.12 -0.466536
7.13 -0.510916
7.14 -0.560561
7.15 -0.613775
7.16 -0.669675
7.17 -0.726507
7.18 -0.782778
7.19 -0.836641
7.2 -0.886949
7.21 -0.931556
7.22 -0.970101
7.23 -1.00132
7.24 -1.02486
7.25 -1.04111
7.26 -1.0496
7.27 -1.05209
7.28 -1.04891
7.29 -1.04183
7.3 -1.03216
7.31 -1.02137
7.32 -1.0108
7.33 -1.0018
7.34 -0.994976
7.35 -0.990937
7.36 -0.989635
7.37 -0.990469
7.38 -0.992583
7.39 -0.994431
7.4 -0.994072
7.41 -0.989441
7.42 -0.978332
7.43 -0.957742
7.44 -0.926633
7.45 -0.880978
7.46 -0.821052
7.47 -0.744591
7.48 -0.65116
7.49 -0.541808
7.5 -0.415415
7.51 -0.275728
7.52 -0.123311
7.53 0.0379726
7.54 0.205109
7.55 0.374295
7.56 0.541741
7.57 0.702616
7.58 0.853824
7.59 0.990965
7.6 1.11053
7.61 1.2109
7.62 1.28698
7.63 1.34053
7.64 1.36771
7.65 1.37027
7.66 1.34849
7.67 1.30235
7.68 1.23611
7.69 1.14909
7.7 1.0468
7.71 0.931002
7.72 0.805379
7.73 0.673538
7.74 0.538509
7.75 0.403803
7.76 0.272622
7.77 0.147618
7.78 0.0311466
7.79 -0.0739395
7.8 -0.167304
7.81 -0.24553
7.82 -0.3097
7.83 -0.358223
7.84 -0.391139
7.85 -0.409607
7.86 -0.412506
7.87 -0.402906
7.88 -0.380574
7.89 -0.348123
7.9 -0.307214
7.91 -0.259681
7.92 -0.208265
7.93 -0.154956
7.94 -0.102382
7.95 -0.0528751
7.96 -0.00883886
7.97 0.0281772
7.98 0.0551893
7.99 0.0721446
8 0.0766166
8.01 0.068815
8.02 0.0484657
8.03 0.0151618
8.04 -0.0290042
8.05 -0.0844539
8.06 -0.148098
8.07 -0.218705
8.08 -0.293872
8.09 -0.37127
8.1 -0.448569
8.11 -0.523707
8.12 -0.59438
8.13 -0.659202
8.14 -0.716984
8.15 -0.766457
8.16 -0.808273
8.17 -0.841429
8.18 -0.86774
8.19 -0.88772
8.2 -0.902901
8.21 -0.914955
8.22 -0.925268
8.23 -0.935457
8.24 -0.946731
8.25 -0.959824
8.26 -0.97499
8.27 -0.991954
8.28 -1.0096
8.29 -1.02614
8.3 -1.03935
8.31 -1.04615
8.32 -1.04294
8.33 -1.02701
8.34 -0.99244
8.35 -0.938315
8.36 -0.858766
8.37 -0.752794
8.38 -0.618446
8.39 -0.45298
8.4 -0.259914
8.41 -0.0362523
8.42 0.21142
8.43 0.481247
8.44 0.767692
8.45 1.06441
8.46 1.36507
8.47 1.66217
8.48 1.94744
8.49 2.21382
8.5 2.45442
8.51 2.66029
8.52 2.82998
8.53 2.95234
8.54 3.03017
8.55 3.05822
8.56 3.03638
8.57 2.96863
8.58 2.85177
8.59 2.69618
8.6 2.50209
8.61 2.27841
8.62 2.03111
8.63 1.7666
8.64 1.4932
8.65 1.21728
8.66 0.945711
8.67 0.684546
8.68 0.439241
8.69 0.212588
8.7 0.0106016
8.71 -0.168181
8.72 -0.319849
8.73 -0.446382
8.74 -0.548563
8.75 -0.626883
8.76 -0.686098
8.77 -0.726251
8.78 -0.752894
8.79 -0.768082
8.8 -0.775272
8.81 -0.777583
8.82 -0.777342
8.83 -0.776987
8.84 -0.778292
8.85 -0.782455
8.86 -0.790216
8.87 -0.802177
8.88 -0.817834
8.89 -0.837366
8.9 -0.85965
8.91 -0.884129
8.92 -0.909845
8.93 -0.93593
8.94 -0.961497
8.95 -0.985941
8.96 -1.00855
8.97 -1.02904
8.98 -1.04721
8.99 -1.06287
9 -1.0764
9.01 -1.08769
9.02 -1.09734
9.03 -1.10556
9.04 -1.11272
9.05 -1.11912
9.06 -1.12492
9.07 -1.13026
9.08 -1.13502
9.09 -1.13904
9.1 -1.14199
9.11 -1.14324
9.12 -1.14242
9.13 -1.13842
9.14 -1.13088
9.15 -1.11879
9.16 -1.10137
9.17 -1.07835
9.18 -1.04835
9.19 -1.01199
9.2 -0.968271
9.21 -0.91778
9.22 -0.860783
9.23 -0.797528
9.24 -0.729469
9.25 -0.657051
9.26 -0.582154
9.27 -0.506052
9.28 -0.430534
9.29 -0.357115
9.3 -0.288068
9.31 -0.224398
9.32 -0.168389
9.33 -0.120951
9.34 -0.0831536
9.35 -0.0565046
9.36 -0.0401993
9.37 -0.0360091
9.38 -0.0420844
9.39 -0.0585176
9.4 -0.0841307
9.41 -0.117133
9.42 -0.156681
9.43 -0.200162
9.44 -0.24612
9.45 -0.292385
9.46 -0.337248
9.47 -0.37874
9.48 -0.415922
9.49 -0.446825
9.5 -0.47146
9.51 -0.488988
9.52 -0.49943
9.53 -0.503565
9.54 -0.501367
9.55 -0.494686
9.56 -0.484249
9.57 -0.471784
9.58 -0.458659
9.59 -0.446458
9.6 -0.436309
9.61 -0.429855
9.62 -0.427567
9.63 -0.430379
9.64 -0.438656
9.65 -0.452099
9.66 -0.47114
9.67 -0.494538
9.68 -0.522132
9.69 -0.552774
9.7 -0.585639
9.71 -0.619864
9.72 -0.654534
9.73 -0.688901
9.74 -0.722408
9.75 -0.754567
9.76 -0.785054
9.77 -0.813804
9.78 -0.840428
9.79 -0.865086
9.8 -0.887297
9.81 -0.906801
9.82 -0.922984
9.83 -0.934531
9.84 -0.940712
9.85 -0.938676
9.86 -0.927247
9.87 -0.903247
9.88 -0.86357
9.89 -0.806419
9.9 -0.725764
9.91 -0.621906
9.92 -0.489052
9.93 -0.326685
9.94 -0.133199
9.95 0.0943403
9.96 0.352014
9.97 0.643233
9.98 0.961265
9.99 1.30443
10 1.66731
10.01 2.04325
10.02 2.42605
10.03 2.80742
10.04 3.17873
10.05 3.53183
10.06 3.85898
10.07 4.14963
10.08 4.40128
10.09 4.60078
10.1 4.74973
10.11 4.84119
10.12 4.87327
10.13 4.84962
10.14 4.76425
10.15 4.62866
10.16 4.4413
10.17 4.21169
10.18 3.94623
10.19 3.65112
10.2 3.33702
10.21 3.01003
10.22 2.67982
10.23 2.35345
10.24 2.03829
10.25 1.73891
10.26 1.46292
10.27 1.21042
10.28 0.986653
10.29 0.790759
10.3 0.622582
10.31 0.48255
10.32 0.365586
10.33 0.272212
10.34 0.196105
10.35 0.134958
10.36 0.084681
10.37 0.0412924
10.38 0.00189929
10.39 -0.0368629
10.4 -0.0773972
10.41 -0.121522
10.42 -0.170388
10.43 -0.225031
10.44 -0.284887
10.45 -0.350335
10.46 -0.419851
10.47 -0.492619
10.48 -0.567162
10.49 -0.642044
10.5 -0.715602
10.51 -0.78665
10.52 -0.853534
10.53 -0.915331
10.54 -0.971175
10.55 -1.01987
10.56 -1.06175
10.57 -1.09541
10.58 -1.12177
10.59 -1.14035
10.6 -1.15137
10.61 -1.15557
10.62 -1.15241
10.63 -1.14329
10.64 -1.12793
10.65 -1.10724
10.66 -1.08168
10.67 -1.05153
10.68 -1.01782
10.69 -0.980666
10.7 -0.941162
10.71 -0.899839
10.72 -0.857536
10.73 -0.815056
10.74 -0.773357
10.75 -0.733172
10.76 -0.69559
10.77 -0.661341
10.78 -0.63117
10.79 -0.606162
10.8 -0.586301
10.81 -0.572948
10.82 -0.565632
10.83 -0.564926
10.84 -0.570819
10.85 -0.582706
10.86 -0.601024
10.87 -0.62439
10.88 -0.652768
10.89 -0.685047
10.9 -0.720444
10.91 -0.75817
10.92 -0.797131
10.93 -0.836518
10.94 -0.875405
10.95 -0.912979
10.96 -0.948456
10.97 -0.981416
10.98 -1.01093
10.99 -1.03713
11 -1.05936
11.01 -1.07778
11.02 -1.09243
11.03 -1.10325
11.04 -1.11096
11.05 -1.11552
11.06 -1.11784
11.07 -1.11833
11.08 -1.11771
11.09 -1.11665
11.1 -1.11584
11.11 -1.11583
11.12 -1.11726
11.13 -1.12041
11.14 -1.12549
11.15 -1.1326
11.16 -1.14127
11.17 -1.15111
11.18 -1.16111
11.19 -1.17013
11.2 -1.17654
11.21 -1.17893
11.22 -1.17443
11.23 -1.16188
11.24 -1.13796
11.25 -1.10094
11.26 -1.04882
11.27 -0.978298
11.28 -0.889913
11.29 -0.779443
11.3 -0.648878
11.31 -0.4968
11.32 -0.32386
11.33 -0.132695
11.34 0.0768546
11.35 0.299477
11.36 0.533155
11.37 0.772847
11.38 1.01425
11.39 1.2519
11.4 1.48153
11.41 1.69617
11.42 1.89264
11.43 2.06531
11.44 2.20971
11.45 2.32476
11.46 2.40334
11.47 2.44901
11.48 2.45706
11.49 2.4302
11.5 2.36975
11.51 2.27589
11.52 2.15515
11.53 2.00743
11.54 1.84029
11.55 1.65691
11.56 1.46251
11.57 1.26217
11.58 1.06037
11.59 0.861452
11.6 0.669663
11.61 0.487982
11.62 0.318773
11.63 0.165029
11.64 0.0260708
11.65 -0.0952416
11.66 -0.201233
11.67 -0.291623
11.68 -0.36772
11.69 -0.431952
11.7 -0.484748
11.71 -0.529622
11.72 -0.567649
11.73 -0.60126
11.74 -0.632076
11.75 -0.661542
11.76 -0.690855
11.77 -0.720848
11.78 -0.751825
11.79 -0.783841
11.8 -0.816487
11.81 -0.849069
11.82 -0.880403
11.83 -0.909436
11.84 -0.934393
11.85 -0.953854
11.86 -0.966328
11.87 -0.969508
11.88 -0.963057
11.89 -0.943944
11.9 -0.912546
11.91 -0.867237
11.92 -0.807397
11.93 -0.733896
11.94 -0.64505
11.95 -0.543666
11.96 -0.429351
11.97 -0.304505
11.98 -0.170983
11.99 -0.0307647
12 0.112983
12.01 0.257622
12.02 0.399955
12.03 0.536812
12.04 0.664773
12.05 0.781772
12.06 0.883064
12.07 0.968548
12.08 1.0343
12.09 1.07998
12.1 1.10491
12.11 1.10735
12.12 1.09025
12.13 1.0517
12.14 0.995966
12.15 0.92408
12.16 0.838876
12.17 0.743976
12.18 0.64164
12.19 0.536037
12.2 0.429996
12.21 0.326636
12.22 0.228343
12.23 0.137869
12.24 0.0557736
12.25 -0.0155477
12.26 -0.0770329
12.27 -0.12831
12.28 -0.170237
12.29 -0.204649
12.3 -0.232395
12.31 -0.256283
12.32 -0.277937
12.33 -0.299617
12.34 -0.323029
12.35 -0.350023
12.36 -0.381213
12.37 -0.417935
12.38 -0.459577
12.39 -0.505943
12.4 -0.555875
12.41 -0.607699
12.42 -0.659393
