# xPDFsuite Configuration #
[PDF]
wavelength = 0.1432
dataformat = twotheta
inputfile = 1_1Pd_CeO2_cycle-00083.chi
backgroundfile = background-00000.chi
mode = xray
bgscale = 1.007
composition = CeO2
outputtype = gr
qmaxinst = 28.8974762299
qmin = 0.5
qmax = 27.9
rmax = 50.0
rmin = 0.0
rstep = 0.01
rpoly = 1.8657

[Misc]
inputdir = G:/SankarDec16/1Pd/Chi
savedir = D:/DATA/APS_CeO2/1Pd
backgroundfilefull = G:/SankarDec16/Background/background-00000.chi

#### start data
#S 1
#L r($\AA$)  G($\AA^{-2}$)
0 0
0.01 -0.00683927
0.02 -0.0131634
0.03 -0.0184419
0.04 -0.0222753
0.05 -0.0244413
0.06 -0.0245823
0.07 -0.0229363
0.08 -0.0193883
0.09 -0.0143924
0.1 -0.00826293
0.11 -0.00148085
0.12 0.00542901
0.13 0.011878
0.14 0.0174489
0.15 0.0216309
0.16 0.0241247
0.17 0.0248105
0.18 0.0234446
0.19 0.0203765
0.2 0.0156197
0.21 0.00970366
0.22 0.0030195
0.23 -0.00389272
0.24 -0.0105389
0.25 -0.0162848
0.26 -0.0208308
0.27 -0.0237101
0.28 -0.0247379
0.29 -0.023903
0.3 -0.0210869
0.31 -0.0167346
0.32 -0.0109873
0.33 -0.00442523
0.34 0.00250245
0.35 0.00922183
0.36 0.0152931
0.37 0.020067
0.38 0.0233751
0.39 0.0248177
0.4 0.0243332
0.41 0.0220198
0.42 0.0178902
0.43 0.0124642
0.44 0.00600415
0.45 -0.000886383
0.46 -0.00772146
0.47 -0.0139203
0.48 -0.0191187
0.49 -0.0226829
0.5 -0.0245848
0.51 -0.0245105
0.52 -0.0225251
0.53 -0.0188321
0.54 -0.0135755
0.55 -0.00732489
0.56 -0.000452046
0.57 0.00644455
0.58 0.0128656
0.59 0.0182505
0.6 0.0223289
0.61 0.0245129
0.62 0.0249159
0.63 0.0233258
0.64 0.0199316
0.65 0.0150327
0.66 0.00889835
0.67 0.00212117
0.68 -0.0048354
0.69 -0.011406
0.7 -0.0171018
0.71 -0.0214093
0.72 -0.0241645
0.73 -0.0248535
0.74 -0.0237262
0.75 -0.0206817
0.76 -0.0160241
0.77 -0.0101335
0.78 -0.00339049
0.79 0.00361808
0.8 0.0103615
0.81 0.0163352
0.82 0.0210866
0.83 0.0241752
0.84 0.0255521
0.85 0.024805
0.86 0.0223066
0.87 0.0180729
0.88 0.0125064
0.89 0.00604682
0.9 -0.000836157
0.91 -0.0075963
0.92 -0.01367
0.93 -0.018647
0.94 -0.0221443
0.95 -0.0238319
0.96 -0.0237868
0.97 -0.0217464
0.98 -0.0181915
0.99 -0.0132788
1 -0.00750228
1.01 -0.00134663
1.02 0.00462694
1.03 0.00995414
1.04 0.014046
1.05 0.0166271
1.06 0.0174115
1.07 0.0162139
1.08 0.0132713
1.09 0.0085141
1.1 0.00256127
1.11 -0.00424213
1.12 -0.0112689
1.13 -0.017955
1.14 -0.0235712
1.15 -0.0277236
1.16 -0.0297005
1.17 -0.0293404
1.18 -0.0263909
1.19 -0.0207361
1.2 -0.0127852
1.21 -0.00252161
1.22 0.00922301
1.23 0.0219888
1.24 0.0349866
1.25 0.0475218
1.26 0.0586966
1.27 0.0680335
1.28 0.0746408
1.29 0.0782897
1.3 0.07861
1.31 0.0753456
1.32 0.0689076
1.33 0.0590204
1.34 0.0466004
1.35 0.0319262
1.36 0.0157543
1.37 -0.00121435
1.38 -0.018241
1.39 -0.0346589
1.4 -0.0496982
1.41 -0.0629125
1.42 -0.0738337
1.43 -0.0820313
1.44 -0.0876159
1.45 -0.0900758
1.46 -0.0899494
1.47 -0.0871509
1.48 -0.0820344
1.49 -0.0749768
1.5 -0.0661645
1.51 -0.0561574
1.52 -0.0451602
1.53 -0.0336002
1.54 -0.0217408
1.55 -0.00986273
1.56 0.00182555
1.57 0.0130541
1.58 0.0237055
1.59 0.0335452
1.6 0.0424023
1.61 0.0501443
1.62 0.0564277
1.63 0.0612481
1.64 0.0641865
1.65 0.0652146
1.66 0.0641236
1.67 0.060701
1.68 0.055128
1.69 0.0470565
1.7 0.0369742
1.71 0.0248993
1.72 0.0112388
1.73 -0.00355734
1.74 -0.0190336
1.75 -0.034568
1.76 -0.0495307
1.77 -0.0633571
1.78 -0.075493
1.79 -0.0853499
1.8 -0.0928358
1.81 -0.0972958
1.82 -0.099139
1.83 -0.0982446
1.84 -0.0950304
1.85 -0.0900267
1.86 -0.0837405
1.87 -0.0770076
1.88 -0.0705773
1.89 -0.0652079
1.9 -0.0615891
1.91 -0.0604373
1.92 -0.0618854
1.93 -0.0666392
1.94 -0.0741985
1.95 -0.0845897
1.96 -0.0972094
1.97 -0.111328
1.98 -0.126111
1.99 -0.140528
2 -0.153395
2.01 -0.163751
2.02 -0.17059
2.03 -0.172824
2.04 -0.170316
2.05 -0.161745
2.06 -0.147838
2.07 -0.128175
2.08 -0.103304
2.09 -0.0739796
2.1 -0.0406066
2.11 -0.00456258
2.12 0.0334896
2.13 0.0723766
2.14 0.111287
2.15 0.149397
2.16 0.186287
2.17 0.221364
2.18 0.254796
2.19 0.286553
2.2 0.317025
2.21 0.346695
2.22 0.376105
2.23 0.405817
2.24 0.436397
2.25 0.468123
2.26 0.501148
2.27 0.535367
2.28 0.570266
2.29 0.605093
2.3 0.638806
2.31 0.669997
2.32 0.697107
2.33 0.718829
2.34 0.732725
2.35 0.738384
2.36 0.733309
2.37 0.717454
2.38 0.690032
2.39 0.650519
2.4 0.600544
2.41 0.539436
2.42 0.470311
2.43 0.394303
2.44 0.314062
2.45 0.232071
2.46 0.151131
2.47 0.0735335
2.48 0.00226386
2.49 -0.0611116
2.5 -0.114882
2.51 -0.157482
2.52 -0.189613
2.53 -0.209638
2.54 -0.220071
2.55 -0.221262
2.56 -0.215324
2.57 -0.204443
2.58 -0.190639
2.59 -0.176438
2.6 -0.164076
2.61 -0.155354
2.62 -0.151785
2.63 -0.15472
2.64 -0.163949
2.65 -0.180483
2.66 -0.202656
2.67 -0.229944
2.68 -0.26064
2.69 -0.29303
2.7 -0.325202
2.71 -0.355476
2.72 -0.381852
2.73 -0.403286
2.74 -0.418779
2.75 -0.427583
2.76 -0.430428
2.77 -0.426946
2.78 -0.419093
2.79 -0.407859
2.8 -0.395162
2.81 -0.382745
2.82 -0.372721
2.83 -0.366353
2.84 -0.365588
2.85 -0.370924
2.86 -0.382932
2.87 -0.401781
2.88 -0.426199
2.89 -0.455809
2.9 -0.488261
2.91 -0.521928
2.92 -0.554501
2.93 -0.584078
2.94 -0.608046
2.95 -0.625535
2.96 -0.634334
2.97 -0.634465
2.98 -0.625639
2.99 -0.608092
3 -0.583749
3.01 -0.553397
3.02 -0.520033
3.03 -0.485756
3.04 -0.453323
3.05 -0.424907
3.06 -0.403485
3.07 -0.389837
3.08 -0.386319
3.09 -0.392643
3.1 -0.408902
3.11 -0.434568
3.12 -0.467338
3.13 -0.506084
3.14 -0.547507
3.15 -0.589238
3.16 -0.628372
3.17 -0.662741
3.18 -0.689393
3.19 -0.707867
3.2 -0.716137
3.21 -0.714988
3.22 -0.704867
3.23 -0.687014
3.24 -0.664112
3.25 -0.638302
3.26 -0.612926
3.27 -0.591002
3.28 -0.575565
3.29 -0.568624
3.3 -0.573337
3.31 -0.589278
3.32 -0.618254
3.33 -0.658447
3.34 -0.708595
3.35 -0.766409
3.36 -0.828298
3.37 -0.890833
3.38 -0.950123
3.39 -1.00218
3.4 -1.04349
3.41 -1.07201
3.42 -1.08408
3.43 -1.08103
3.44 -1.06114
3.45 -1.02739
3.46 -0.981932
3.47 -0.928217
3.48 -0.870937
3.49 -0.814856
3.5 -0.764507
3.51 -0.72473
3.52 -0.699221
3.53 -0.689674
3.54 -0.699196
3.55 -0.724775
3.56 -0.766081
3.57 -0.817398
3.58 -0.87332
3.59 -0.925711
3.6 -0.967139
3.61 -0.984912
3.62 -0.972785
3.63 -0.918787
3.64 -0.81473
3.65 -0.656497
3.66 -0.432174
3.67 -0.147999
3.68 0.203869
3.69 0.614352
3.7 1.07882
3.71 1.5895
3.72 2.1311
3.73 2.69298
3.74 3.25672
3.75 3.80623
3.76 4.32359
3.77 4.79528
3.78 5.19865
3.79 5.53004
3.8 5.7683
3.81 5.91315
3.82 5.95841
3.83 5.8986
3.84 5.74679
3.85 5.49409
3.86 5.1639
3.87 4.76053
3.88 4.30047
3.89 3.80016
3.9 3.27313
3.91 2.73793
3.92 2.20953
3.93 1.70188
3.94 1.22681
3.95 0.796831
3.96 0.413965
3.97 0.0916569
3.98 -0.176691
3.99 -0.386644
4 -0.54247
4.01 -0.650987
4.02 -0.713838
4.03 -0.743904
4.04 -0.745043
4.05 -0.727919
4.06 -0.699302
4.07 -0.666314
4.08 -0.634658
4.09 -0.609796
4.1 -0.593943
4.11 -0.589677
4.12 -0.597277
4.13 -0.615547
4.14 -0.643786
4.15 -0.678349
4.16 -0.716959
4.17 -0.755954
4.18 -0.792346
4.19 -0.822741
4.2 -0.845489
4.21 -0.857046
4.22 -0.857683
4.23 -0.845766
4.24 -0.821522
4.25 -0.786018
4.26 -0.739083
4.27 -0.683492
4.28 -0.619725
4.29 -0.550164
4.3 -0.47621
4.31 -0.399305
4.32 -0.320903
4.33 -0.241928
4.34 -0.163239
4.35 -0.0853981
4.36 -0.00878731
4.37 0.0664272
4.38 0.139857
4.39 0.211528
4.4 0.280879
4.41 0.347624
4.42 0.411115
4.43 0.470279
4.44 0.524658
4.45 0.572127
4.46 0.612423
4.47 0.643673
4.48 0.66478
4.49 0.675297
4.5 0.673084
4.51 0.659374
4.52 0.632528
4.53 0.593951
4.54 0.544105
4.55 0.483715
4.56 0.415198
4.57 0.339183
4.58 0.258682
4.59 0.175316
4.6 0.0913865
4.61 0.00872218
4.62 -0.0704843
4.63 -0.145256
4.64 -0.213758
4.65 -0.275662
4.66 -0.330448
4.67 -0.377719
4.68 -0.418512
4.69 -0.45238
4.7 -0.481081
4.71 -0.505068
4.72 -0.525507
4.73 -0.543464
4.74 -0.559671
4.75 -0.575073
4.76 -0.590169
4.77 -0.605373
4.78 -0.620847
4.79 -0.636584
4.8 -0.652399
4.81 -0.667971
4.82 -0.682969
4.83 -0.696969
4.84 -0.709607
4.85 -0.720696
4.86 -0.729848
4.87 -0.737272
4.88 -0.742821
4.89 -0.746857
4.9 -0.749643
4.91 -0.75154
4.92 -0.753015
4.93 -0.754469
4.94 -0.756276
4.95 -0.75876
4.96 -0.76213
4.97 -0.766427
4.98 -0.77174
4.99 -0.777821
5 -0.784555
5.01 -0.791626
5.02 -0.798784
5.03 -0.805751
5.04 -0.81237
5.05 -0.818447
5.06 -0.824041
5.07 -0.829191
5.08 -0.834091
5.09 -0.838967
5.1 -0.84411
5.11 -0.849699
5.12 -0.85594
5.13 -0.862764
5.14 -0.869975
5.15 -0.877057
5.16 -0.883333
5.17 -0.887445
5.18 -0.888324
5.19 -0.88409
5.2 -0.872855
5.21 -0.853206
5.22 -0.821914
5.23 -0.778797
5.24 -0.720645
5.25 -0.647438
5.26 -0.558305
5.27 -0.452414
5.28 -0.332096
5.29 -0.196507
5.3 -0.0499131
5.31 0.105831
5.32 0.266754
5.33 0.428912
5.34 0.587387
5.35 0.738277
5.36 0.875726
5.37 0.99621
5.38 1.09571
5.39 1.16942
5.4 1.21769
5.41 1.23433
5.42 1.22306
5.43 1.18182
5.44 1.11264
5.45 1.01911
5.46 0.901958
5.47 0.768069
5.48 0.619891
5.49 0.463516
5.5 0.303362
5.51 0.144493
5.52 -0.0092849
5.53 -0.15275
5.54 -0.284169
5.55 -0.40017
5.56 -0.499311
5.57 -0.581777
5.58 -0.645605
5.59 -0.694005
5.6 -0.726371
5.61 -0.745858
5.62 -0.754246
5.63 -0.753452
5.64 -0.746411
5.65 -0.734333
5.66 -0.719585
5.67 -0.703183
5.68 -0.686064
5.69 -0.668615
5.7 -0.65074
5.71 -0.632093
5.72 -0.61183
5.73 -0.589159
5.74 -0.563167
5.75 -0.532722
5.76 -0.497682
5.77 -0.456832
5.78 -0.410951
5.79 -0.35999
5.8 -0.304915
5.81 -0.247042
5.82 -0.187831
5.83 -0.129216
5.84 -0.0733896
5.85 -0.0222968
5.86 0.0221143
5.87 0.0574821
5.88 0.0833979
5.89 0.0970195
5.9 0.0993936
5.91 0.089431
5.92 0.0677239
5.93 0.0356544
5.94 -0.00659354
5.95 -0.0561289
5.96 -0.111973
5.97 -0.171576
5.98 -0.233136
5.99 -0.294671
6 -0.354695
6.01 -0.411426
6.02 -0.464334
6.03 -0.512523
6.04 -0.555853
6.05 -0.59473
6.06 -0.629157
6.07 -0.660418
6.08 -0.68901
6.09 -0.716108
6.1 -0.742522
6.11 -0.769058
6.12 -0.7962
6.13 -0.824379
6.14 -0.853455
6.15 -0.883224
6.16 -0.913091
6.17 -0.942374
6.18 -0.969992
6.19 -0.995286
6.2 -1.01703
6.21 -1.03472
6.22 -1.04782
6.23 -1.05582
6.24 -1.05933
6.25 -1.05808
6.26 -1.05346
6.27 -1.04613
6.28 -1.0374
6.29 -1.02842
6.3 -1.02047
6.31 -1.01424
6.32 -1.01051
6.33 -1.00909
6.34 -1.00944
6.35 -1.01017
6.36 -1.00941
6.37 -1.00374
6.38 -0.990354
6.39 -0.964676
6.4 -0.922084
6.41 -0.859295
6.42 -0.768576
6.43 -0.64964
6.44 -0.494993
6.45 -0.304481
6.46 -0.076105
6.47 0.192507
6.48 0.496041
6.49 0.837204
6.5 1.20653
6.51 1.60056
6.52 2.01096
6.53 2.42908
6.54 2.84492
6.55 3.24914
6.56 3.62933
6.57 3.97661
6.58 4.2815
6.59 4.53196
6.6 4.72706
6.61 4.85104
6.62 4.90962
6.63 4.89561
6.64 4.81033
6.65 4.65983
6.66 4.44108
6.67 4.16925
6.68 3.84568
6.69 3.4839
6.7 3.09289
6.71 2.6829
6.72 2.26558
6.73 1.8514
6.74 1.44953
6.75 1.06932
6.76 0.718405
6.77 0.400434
6.78 0.124322
6.79 -0.113195
6.8 -0.306208
6.81 -0.458792
6.82 -0.572402
6.83 -0.648479
6.84 -0.694706
6.85 -0.711412
6.86 -0.707566
6.87 -0.6864
6.88 -0.653414
6.89 -0.613318
6.9 -0.569692
6.91 -0.526074
6.92 -0.485042
6.93 -0.448204
6.94 -0.416555
6.95 -0.390809
6.96 -0.370218
6.97 -0.355049
6.98 -0.343816
6.99 -0.336004
7 -0.330683
7.01 -0.327098
7.02 -0.324958
7.03 -0.323917
7.04 -0.324261
7.05 -0.326331
7.06 -0.330762
7.07 -0.338605
7.08 -0.350306
7.09 -0.367494
7.1 -0.390179
7.11 -0.419321
7.12 -0.455091
7.13 -0.497011
7.14 -0.545289
7.15 -0.598223
7.16 -0.655133
7.17 -0.714131
7.18 -0.773621
7.19 -0.831584
7.2 -0.886535
7.21 -0.936061
7.22 -0.97943
7.23 -1.01505
7.24 -1.04223
7.25 -1.06118
7.26 -1.07109
7.27 -1.07379
7.28 -1.06942
7.29 -1.05995
7.3 -1.04678
7.31 -1.03158
7.32 -1.01605
7.33 -1.00176
7.34 -0.989694
7.35 -0.980765
7.36 -0.975216
7.37 -0.97261
7.38 -0.972378
7.39 -0.972902
7.4 -0.972373
7.41 -0.968559
7.42 -0.959125
7.43 -0.940886
7.44 -0.912507
7.45 -0.869721
7.46 -0.812517
7.47 -0.738374
7.48 -0.646638
7.49 -0.538252
7.5 -0.4119
7.51 -0.271444
7.52 -0.117406
7.53 0.0461517
7.54 0.21604
7.55 0.388218
7.56 0.558628
7.57 0.722125
7.58 0.875394
7.59 1.01376
7.6 1.13353
7.61 1.23302
7.62 1.30696
7.63 1.35728
7.64 1.38012
7.65 1.37749
7.66 1.34989
7.67 1.29756
7.68 1.22508
7.69 1.13211
7.7 1.02443
7.71 0.904093
7.72 0.775029
7.73 0.640926
7.74 0.505071
7.75 0.370803
7.76 0.241427
7.77 0.119368
7.78 0.00682371
7.79 -0.0935528
7.8 -0.181744
7.81 -0.254564
7.82 -0.313398
7.83 -0.356904
7.84 -0.385359
7.85 -0.40005
7.86 -0.400088
7.87 -0.388483
7.88 -0.365126
7.89 -0.332515
7.9 -0.292238
7.91 -0.246036
7.92 -0.196439
7.93 -0.145333
7.94 -0.09513
7.95 -0.048023
7.96 -0.00626545
7.97 0.0286879
7.98 0.053975
7.99 0.0695434
8 0.0730271
8.01 0.0645939
8.02 0.0439386
8.03 0.0106126
8.04 -0.0333801
8.05 -0.0885048
8.06 -0.151755
8.07 -0.221945
8.08 -0.296716
8.09 -0.373759
8.1 -0.450754
8.11 -0.525624
8.12 -0.596047
8.13 -0.660601
8.14 -0.718063
8.15 -0.767126
8.16 -0.808426
8.17 -0.84092
8.18 -0.86644
8.19 -0.885499
8.2 -0.899658
8.21 -0.910631
8.22 -0.91985
8.23 -0.928987
8.24 -0.939314
8.25 -0.951614
8.26 -0.966179
8.27 -0.982782
8.28 -1.00029
8.29 -1.01695
8.3 -1.03048
8.31 -1.03778
8.32 -1.03519
8.33 -1.01995
8.34 -0.986038
8.35 -0.932507
8.36 -0.853416
8.37 -0.74773
8.38 -0.613472
8.39 -0.447887
8.4 -0.254532
8.41 -0.0304277
8.42 0.21776
8.43 0.488109
8.44 0.774994
8.45 1.072
8.46 1.37267
8.47 1.66948
8.48 1.95408
8.49 2.21939
8.5 2.45853
8.51 2.66255
8.52 2.83007
8.53 2.95001
8.54 3.02529
8.55 3.05073
8.56 3.02638
8.57 2.95628
8.58 2.83739
8.59 2.68011
8.6 2.48477
8.61 2.26027
8.62 2.01259
8.63 1.74812
8.64 1.4751
8.65 1.19982
8.66 0.929053
8.67 0.668751
8.68 0.424269
8.69 0.198321
8.7 -0.00316416
8.71 -0.181657
8.72 -0.333279
8.73 -0.459961
8.74 -0.562433
8.75 -0.64109
8.76 -0.700585
8.77 -0.740812
8.78 -0.76722
8.79 -0.781726
8.8 -0.787683
8.81 -0.788179
8.82 -0.785426
8.83 -0.781971
8.84 -0.779575
8.85 -0.779587
8.86 -0.782887
8.87 -0.790263
8.88 -0.801412
8.89 -0.816778
8.9 -0.835413
8.91 -0.856997
8.92 -0.880755
8.93 -0.905882
8.94 -0.931712
8.95 -0.957492
8.96 -0.982596
8.97 -1.00656
8.98 -1.02902
8.99 -1.04963
9 -1.06845
9.01 -1.08515
9.02 -1.10005
9.03 -1.1131
9.04 -1.12442
9.05 -1.13421
9.06 -1.14235
9.07 -1.14907
9.08 -1.15414
9.09 -1.15753
9.1 -1.15899
9.11 -1.15804
9.12 -1.15458
9.13 -1.14763
9.14 -1.13711
9.15 -1.12219
9.16 -1.10229
9.17 -1.07723
9.18 -1.04578
9.19 -1.00851
9.2 -0.964449
9.21 -0.914059
9.22 -0.857487
9.23 -0.794818
9.24 -0.727324
9.25 -0.655238
9.26 -0.580301
9.27 -0.503619
9.28 -0.426877
9.29 -0.35159
9.3 -0.279958
9.31 -0.213159
9.32 -0.15355
9.33 -0.102268
9.34 -0.0605934
9.35 -0.0303139
9.36 -0.0108328
9.37 -0.00427085
9.38 -0.0088931
9.39 -0.0250228
9.4 -0.0515942
9.41 -0.0867725
9.42 -0.129835
9.43 -0.177874
9.44 -0.229373
9.45 -0.281837
9.46 -0.333286
9.47 -0.381417
9.48 -0.424987
9.49 -0.461632
9.5 -0.491165
9.51 -0.512461
9.52 -0.525366
9.53 -0.530662
9.54 -0.528135
9.55 -0.519908
9.56 -0.506706
9.57 -0.490558
9.58 -0.473066
9.59 -0.456089
9.6 -0.441068
9.61 -0.429943
9.62 -0.42341
9.63 -0.42263
9.64 -0.428118
9.65 -0.439595
9.66 -0.457607
9.67 -0.480725
9.68 -0.508753
9.69 -0.54032
9.7 -0.574414
9.71 -0.609955
9.72 -0.645833
9.73 -0.681085
9.74 -0.715057
9.75 -0.747155
9.76 -0.777039
9.77 -0.804721
9.78 -0.829875
9.79 -0.852878
9.8 -0.873437
9.81 -0.891534
9.82 -0.906774
9.83 -0.918113
9.84 -0.924907
9.85 -0.924569
9.86 -0.915838
9.87 -0.895577
9.88 -0.860553
9.89 -0.808733
9.9 -0.733872
9.91 -0.635894
9.92 -0.508644
9.93 -0.351229
9.94 -0.161706
9.95 0.0632811
9.96 0.31989
9.97 0.611955
9.98 0.932567
9.99 1.28012
10 1.64901
10.01 2.03221
10.02 2.4233
10.03 2.81338
10.04 3.19339
10.05 3.55463
10.06 3.88887
10.07 4.18499
10.08 4.44032
10.09 4.6411
10.1 4.78908
10.11 4.87714
10.12 4.90352
10.13 4.87224
10.14 4.77749
10.15 4.63146
10.16 4.433
10.17 4.19232
10.18 3.91632
10.19 3.61187
10.2 3.28991
10.21 2.95722
10.22 2.62344
10.23 2.29588
10.24 1.98189
10.25 1.68574
10.26 1.41498
10.27 1.16906
10.28 0.952887
10.29 0.764997
10.3 0.604741
10.31 0.471983
10.32 0.361319
10.33 0.272726
10.34 0.199839
10.35 0.14014
10.36 0.0895731
10.37 0.0444112
10.38 0.00186837
10.39 -0.040877
10.4 -0.0858864
10.41 -0.134456
10.42 -0.187307
10.43 -0.244966
10.44 -0.306649
10.45 -0.372258
10.46 -0.440332
10.47 -0.509933
10.48 -0.579718
10.49 -0.648573
10.5 -0.715067
10.51 -0.778578
10.52 -0.837903
10.53 -0.892662
10.54 -0.942454
10.55 -0.98665
10.56 -1.02575
10.57 -1.05891
10.58 -1.08687
10.59 -1.1093
10.6 -1.12624
10.61 -1.13803
10.62 -1.14388
10.63 -1.14453
10.64 -1.13921
10.65 -1.12819
10.66 -1.11142
10.67 -1.08852
10.68 -1.06031
10.69 -1.02625
10.7 -0.987544
10.71 -0.944518
10.72 -0.898117
10.73 -0.84951
10.74 -0.799777
10.75 -0.750347
10.76 -0.702691
10.77 -0.65817
10.78 -0.618036
10.79 -0.58397
10.8 -0.55626
10.81 -0.536848
10.82 -0.525281
10.83 -0.522365
10.84 -0.528076
10.85 -0.541559
10.86 -0.563231
10.87 -0.591159
10.88 -0.625071
10.89 -0.663369
10.9 -0.704891
10.91 -0.748435
10.92 -0.792645
10.93 -0.836344
10.94 -0.878556
10.95 -0.918334
10.96 -0.954913
10.97 -0.98804
10.98 -1.01685
10.99 -1.0418
11 -1.06242
11.01 -1.07914
11.02 -1.09223
11.03 -1.10184
11.04 -1.10875
11.05 -1.11306
11.06 -1.1156
11.07 -1.11674
11.08 -1.11704
11.09 -1.11697
11.1 -1.11701
11.11 -1.11751
11.12 -1.11885
11.13 -1.12122
11.14 -1.12471
11.15 -1.12936
11.16 -1.13483
11.17 -1.1408
11.18 -1.14655
11.19 -1.15119
11.2 -1.15345
11.21 -1.15222
11.22 -1.14508
11.23 -1.13106
11.24 -1.10719
11.25 -1.07185
11.26 -1.02305
11.27 -0.95754
11.28 -0.875505
11.29 -0.772603
11.3 -0.650275
11.31 -0.506688
11.32 -0.341927
11.33 -0.158169
11.34 0.0454451
11.35 0.263828
11.36 0.495535
11.37 0.735629
11.38 0.979877
11.39 1.22292
11.4 1.45999
11.41 1.68402
11.42 1.89108
11.43 2.07504
11.44 2.23069
11.45 2.35632
11.46 2.44395
11.47 2.49677
11.48 2.50933
11.49 2.48413
11.5 2.42233
11.51 2.3239
11.52 2.19592
11.53 2.03825
11.54 1.85934
11.55 1.66289
11.56 1.45491
11.57 1.24124
11.58 1.02728
11.59 0.817873
11.6 0.618113
11.61 0.431295
11.62 0.260029
11.63 0.107607
11.64 -0.0271458
11.65 -0.141273
11.66 -0.237968
11.67 -0.317435
11.68 -0.381792
11.69 -0.434241
11.7 -0.476122
11.71 -0.511536
11.72 -0.542385
11.73 -0.571472
11.74 -0.600687
11.75 -0.631797
11.76 -0.665531
11.77 -0.702812
11.78 -0.743092
11.79 -0.785928
11.8 -0.830086
11.81 -0.87409
11.82 -0.915798
11.83 -0.953569
11.84 -0.984753
11.85 -1.00755
11.86 -1.02016
11.87 -1.01995
11.88 -1.00705
11.89 -0.978299
11.9 -0.934976
11.91 -0.875949
11.92 -0.801448
11.93 -0.713175
11.94 -0.610423
11.95 -0.496662
11.96 -0.37242
11.97 -0.240554
11.98 -0.103268
11.99 0.0370128
12 0.177567
12.01 0.315513
12.02 0.448518
12.03 0.573826
12.04 0.688805
12.05 0.792212
12.06 0.880166
12.07 0.953291
12.08 1.0085
12.09 1.04597
12.1 1.06537
12.11 1.06542
12.12 1.04871
12.13 1.01361
12.14 0.963634
12.15 0.899467
12.16 0.823263
12.17 0.737926
12.18 0.644968
12.19 0.547928
12.2 0.448914
12.21 0.350628
12.22 0.255157
12.23 0.164917
12.24 0.0807836
12.25 0.00502355
12.26 -0.0626421
12.27 -0.12147
12.28 -0.171675
12.29 -0.214463
12.3 -0.249952
12.31 -0.280465
12.32 -0.306973
12.33 -0.331438
12.34 -0.355372
12.35 -0.380399
12.36 -0.407532
12.37 -0.438098
12.38 -0.472182
12.39 -0.510031
