# xPDFsuite Configuration #
[PDF]
wavelength = 0.1432
dataformat = twotheta
inputfile = 1_1Pd_CeO2_cycle-00183.chi
backgroundfile = background-00000.chi
mode = xray
bgscale = 1.007
composition = CeO2
outputtype = gr
qmaxinst = 28.8974762299
qmin = 0.5
qmax = 27.9
rmax = 50.0
rmin = 0.0
rstep = 0.01
rpoly = 1.8657

[Misc]
inputdir = G:/SankarDec16/1Pd/Chi
savedir = D:/DATA/APS_CeO2/1Pd
backgroundfilefull = G:/SankarDec16/Background/background-00000.chi

#### start data
#S 1
#L r($\AA$)  G($\AA^{-2}$)
0 0
0.01 -0.00655752
0.02 -0.0126214
0.03 -0.0176832
0.04 -0.0213601
0.05 -0.0234388
0.06 -0.0235767
0.07 -0.0220015
0.08 -0.0186028
0.09 -0.0138155
0.1 -0.00794066
0.11 -0.00143899
0.12 0.00518649
0.13 0.0113719
0.14 0.0167168
0.15 0.0207317
0.16 0.0231292
0.17 0.023794
0.18 0.0224918
0.19 0.0195571
0.2 0.015002
0.21 0.00933362
0.22 0.00292644
0.23 -0.00370222
0.24 -0.0100784
0.25 -0.0155946
0.26 -0.0199623
0.27 -0.0227339
0.28 -0.023731
0.29 -0.0229422
0.3 -0.0202525
0.31 -0.0160879
0.32 -0.0105825
0.33 -0.0042922
0.34 0.00235277
0.35 0.00880233
0.36 0.0146341
0.37 0.0192254
0.38 0.0224134
0.39 0.0238136
0.4 0.0233655
0.41 0.0211621
0.42 0.0172137
0.43 0.012018
0.44 0.00582535
0.45 -0.000785631
0.46 -0.0073491
0.47 -0.0133077
0.48 -0.0183111
0.49 -0.0217505
0.5 -0.0235968
0.51 -0.0235474
0.52 -0.0216628
0.53 -0.0181365
0.54 -0.0131045
0.55 -0.00711306
0.56 -0.000517055
0.57 0.0061087
0.58 0.0122849
0.59 0.017473
0.6 0.0214112
0.61 0.0235342
0.62 0.0239482
0.63 0.0224473
0.64 0.0192106
0.65 0.0145239
0.66 0.0086433
0.67 0.0021378
0.68 -0.00454905
0.69 -0.0108731
0.7 -0.0163643
0.71 -0.0205275
0.72 -0.0232029
0.73 -0.0238941
0.74 -0.0228384
0.75 -0.0199358
0.76 -0.0154758
0.77 -0.00982209
0.78 -0.00333793
0.79 0.00341184
0.8 0.0099181
0.81 0.0156934
0.82 0.0203005
0.83 0.0233128
0.84 0.0246793
0.85 0.0239984
0.86 0.0216247
0.87 0.0175683
0.88 0.012212
0.89 0.00597627
0.9 -0.000692251
0.91 -0.00726625
0.92 -0.013207
0.93 -0.018116
0.94 -0.0216231
0.95 -0.0234069
0.96 -0.0235351
0.97 -0.0217496
0.98 -0.0185049
0.99 -0.0139438
1 -0.00853277
1.01 -0.00273117
1.02 0.00293351
1.03 0.00801747
1.04 0.0119682
1.05 0.0145232
1.06 0.0154152
1.07 0.0144748
1.08 0.0119265
1.09 0.00771969
1.1 0.00243832
1.11 -0.00357826
1.12 -0.00973199
1.13 -0.0154882
1.14 -0.0201473
1.15 -0.0233506
1.16 -0.0244235
1.17 -0.0232345
1.18 -0.0195629
1.19 -0.0133284
1.2 -0.00494838
1.21 0.00554298
1.22 0.0173275
1.23 0.0299138
1.24 0.0425107
1.25 0.0544284
1.26 0.0647466
1.27 0.073023
1.28 0.0783476
1.29 0.0805268
1.3 0.0792031
1.31 0.0741417
1.32 0.0657955
1.33 0.0539109
1.34 0.0394582
1.35 0.0227585
1.36 0.00462285
1.37 -0.0142004
1.38 -0.0328968
1.39 -0.05077
1.4 -0.0669625
1.41 -0.0810038
1.42 -0.0923759
1.43 -0.100597
1.44 -0.105802
1.45 -0.107398
1.46 -0.106004
1.47 -0.101516
1.48 -0.0943433
1.49 -0.0849275
1.5 -0.0735001
1.51 -0.0607284
1.52 -0.0468892
1.53 -0.0325109
1.54 -0.0179436
1.55 -0.00356783
1.56 0.0103596
1.57 0.0234488
1.58 0.0355907
1.59 0.0464844
1.6 0.0559605
1.61 0.0639128
1.62 0.0699871
1.63 0.0742771
1.64 0.0763844
1.65 0.0763827
1.66 0.0741313
1.67 0.0695014
1.68 0.062747
1.69 0.0536029
1.7 0.0425955
1.71 0.0297971
1.72 0.0156336
1.73 0.000550011
1.74 -0.0149904
1.75 -0.030423
1.76 -0.0451425
1.77 -0.0586539
1.78 -0.0704586
1.79 -0.0800368
1.8 -0.0873436
1.81 -0.0917999
1.82 -0.0938266
1.83 -0.0933437
1.84 -0.0907684
1.85 -0.0866104
1.86 -0.081364
1.87 -0.075796
1.88 -0.0706089
1.89 -0.066482
1.9 -0.0640347
1.91 -0.0638988
1.92 -0.0661612
1.93 -0.0714259
1.94 -0.0791947
1.95 -0.0894396
1.96 -0.101562
1.97 -0.114863
1.98 -0.128512
1.99 -0.141577
2 -0.15292
2.01 -0.161682
2.02 -0.166946
2.03 -0.167727
2.04 -0.163958
2.05 -0.154444
2.06 -0.139933
2.07 -0.120083
2.08 -0.0954612
2.09 -0.066806
2.1 -0.0345435
2.11 4.8106e-05
2.12 0.0363292
2.13 0.0732423
2.14 0.110063
2.15 0.146082
2.16 0.180978
2.17 0.214295
2.18 0.246265
2.19 0.276968
2.2 0.306855
2.21 0.336429
2.22 0.366308
2.23 0.396976
2.24 0.429033
2.25 0.462654
2.26 0.49793
2.27 0.534664
2.28 0.57222
2.29 0.609732
2.3 0.646035
2.31 0.679593
2.32 0.708732
2.33 0.732067
2.34 0.747018
2.35 0.753187
2.36 0.747957
2.37 0.731329
2.38 0.702513
2.39 0.661001
2.4 0.608542
2.41 0.544484
2.42 0.472117
2.43 0.392668
2.44 0.30894
2.45 0.223546
2.46 0.139456
2.47 0.059055
2.48 -0.0144968
2.49 -0.0795725
2.5 -0.134373
2.51 -0.177247
2.52 -0.208958
2.53 -0.227761
2.54 -0.236335
2.55 -0.235046
2.56 -0.22614
2.57 -0.211948
2.58 -0.194626
2.59 -0.176885
2.6 -0.16114
2.61 -0.14935
2.62 -0.143183
2.63 -0.14416
2.64 -0.152098
2.65 -0.168207
2.66 -0.190724
2.67 -0.219184
2.68 -0.2518
2.69 -0.286736
2.7 -0.321994
2.71 -0.355668
2.72 -0.3856
2.73 -0.41052
2.74 -0.429235
2.75 -0.44077
2.76 -0.445748
2.77 -0.443533
2.78 -0.436108
2.79 -0.424329
2.8 -0.410136
2.81 -0.395358
2.82 -0.382131
2.83 -0.371966
2.84 -0.36693
2.85 -0.367788
2.86 -0.375331
2.87 -0.389993
2.88 -0.410681
2.89 -0.437336
2.9 -0.467665
2.91 -0.500244
2.92 -0.532818
2.93 -0.563449
2.94 -0.589595
2.95 -0.610144
2.96 -0.622844
2.97 -0.62744
2.98 -0.623443
2.99 -0.610833
3 -0.5913
3.01 -0.565337
3.02 -0.53579
3.03 -0.50453
3.04 -0.474192
3.05 -0.446919
3.06 -0.425553
3.07 -0.411049
3.08 -0.405729
3.09 -0.409527
3.1 -0.422676
3.11 -0.444839
3.12 -0.47394
3.13 -0.509054
3.14 -0.547065
3.15 -0.585786
3.16 -0.622443
3.17 -0.654926
3.18 -0.6804
3.19 -0.69831
3.2 -0.70667
3.21 -0.706125
3.22 -0.697034
3.23 -0.680514
3.24 -0.659098
3.25 -0.634804
3.26 -0.610854
3.27 -0.590166
3.28 -0.575708
3.29 -0.569469
3.3 -0.574578
3.31 -0.590677
3.32 -0.619603
3.33 -0.659636
3.34 -0.709596
3.35 -0.767292
3.36 -0.829202
3.37 -0.891992
3.38 -0.951779
3.39 -1.0046
3.4 -1.04692
3.41 -1.07661
3.42 -1.08994
3.43 -1.08814
3.44 -1.06931
3.45 -1.03633
3.46 -0.991217
3.47 -0.93728
3.48 -0.879192
3.49 -0.821567
3.5 -0.769043
3.51 -0.726452
3.52 -0.697614
3.53 -0.684375
3.54 -0.690016
3.55 -0.711751
3.56 -0.749502
3.57 -0.79777
3.58 -0.851368
3.59 -0.902405
3.6 -0.943483
3.61 -0.96219
3.62 -0.952127
3.63 -0.90139
3.64 -0.801647
3.65 -0.648579
3.66 -0.430108
3.67 -0.152124
3.68 0.193487
3.69 0.597978
3.7 1.05702
3.71 1.56317
3.72 2.10127
3.73 2.66107
3.74 3.22407
3.75 3.77434
3.76 4.29389
3.77 4.76905
3.78 5.17712
3.79 5.51404
3.8 5.75852
3.81 5.9099
3.82 5.96172
3.83 5.90815
3.84 5.76207
3.85 5.51422
3.86 5.18795
3.87 4.78737
3.88 4.32891
3.89 3.82909
3.9 3.30136
3.91 2.76454
3.92 2.23363
3.93 1.72281
3.94 1.24412
3.95 0.810225
3.96 0.423348
3.97 0.0970931
3.98 -0.175021
3.99 -0.388456
4 -0.54742
4.01 -0.658724
4.02 -0.723972
4.03 -0.756116
4.04 -0.759006
4.05 -0.74337
4.06 -0.716003
4.07 -0.684034
4.08 -0.65319
4.09 -0.628875
4.1 -0.613298
4.11 -0.608954
4.12 -0.616053
4.13 -0.63335
4.14 -0.660009
4.15 -0.692416
4.16 -0.728185
4.17 -0.763721
4.18 -0.796069
4.19 -0.821914
4.2 -0.839781
4.21 -0.846278
4.22 -0.841914
4.23 -0.825295
4.24 -0.796909
4.25 -0.758017
4.26 -0.708786
4.27 -0.65202
4.28 -0.58848
4.29 -0.520499
4.3 -0.449488
4.31 -0.376852
4.32 -0.303761
4.33 -0.231046
4.34 -0.15914
4.35 -0.0883239
4.36 -0.0185882
4.37 0.050221
4.38 0.118155
4.39 0.1854
4.4 0.251779
4.41 0.317047
4.42 0.380643
4.43 0.441531
4.44 0.498977
4.45 0.550838
4.46 0.596383
4.47 0.633481
4.48 0.660618
4.49 0.676988
4.5 0.680009
4.51 0.670688
4.52 0.646993
4.53 0.610241
4.54 0.560783
4.55 0.499283
4.56 0.428409
4.57 0.348802
4.58 0.263918
4.59 0.175632
4.6 0.0866484
4.61 -0.000854816
4.62 -0.0842521
4.63 -0.162354
4.64 -0.232949
4.65 -0.295634
4.66 -0.349798
4.67 -0.395005
4.68 -0.432551
4.69 -0.46203
4.7 -0.485646
4.71 -0.504122
4.72 -0.51903
4.73 -0.531778
4.74 -0.543537
4.75 -0.555439
4.76 -0.568355
4.77 -0.582746
4.78 -0.598848
4.79 -0.616673
4.8 -0.635758
4.81 -0.655722
4.82 -0.675783
4.83 -0.695238
4.84 -0.713321
4.85 -0.729507
4.86 -0.742985
4.87 -0.753792
4.88 -0.761429
4.89 -0.76623
4.9 -0.768398
4.91 -0.768294
4.92 -0.766664
4.93 -0.763977
4.94 -0.76104
4.95 -0.758441
4.96 -0.756767
4.97 -0.756359
4.98 -0.757693
4.99 -0.760655
5 -0.765434
5.01 -0.771716
5.02 -0.779281
5.03 -0.787828
5.04 -0.796939
5.05 -0.806336
5.06 -0.815705
5.07 -0.824851
5.08 -0.833661
5.09 -0.842129
5.1 -0.850258
5.11 -0.858157
5.12 -0.865847
5.13 -0.873312
5.14 -0.880396
5.15 -0.886686
5.16 -0.891736
5.17 -0.894362
5.18 -0.893764
5.19 -0.888288
5.2 -0.876261
5.21 -0.856393
5.22 -0.825635
5.23 -0.78373
5.24 -0.727501
5.25 -0.656741
5.26 -0.570405
5.27 -0.4674
5.28 -0.349798
5.29 -0.216392
5.3 -0.0712456
5.31 0.0840844
5.32 0.245804
5.33 0.410001
5.34 0.57192
5.35 0.72739
5.36 0.870509
5.37 0.997382
5.38 1.10368
5.39 1.18416
5.4 1.23882
5.41 1.26091
5.42 1.2539
5.43 1.21533
5.44 1.14701
5.45 1.05249
5.46 0.932315
5.47 0.793737
5.48 0.63925
5.49 0.475443
5.5 0.307131
5.51 0.139894
5.52 -0.0219671
5.53 -0.1726
5.54 -0.309934
5.55 -0.430108
5.56 -0.531403
5.57 -0.613962
5.58 -0.675552
5.59 -0.719811
5.6 -0.746154
5.61 -0.758284
5.62 -0.758404
5.63 -0.748989
5.64 -0.733521
5.65 -0.713874
5.66 -0.6928
5.67 -0.671832
5.68 -0.652209
5.69 -0.63437
5.7 -0.618508
5.71 -0.603837
5.72 -0.589492
5.73 -0.574124
5.74 -0.556382
5.75 -0.534571
5.76 -0.50799
5.77 -0.474765
5.78 -0.435286
5.79 -0.388999
5.8 -0.336578
5.81 -0.279302
5.82 -0.218369
5.83 -0.156157
5.84 -0.0949088
5.85 -0.0371279
5.86 0.0147964
5.87 0.0579392
5.88 0.0913604
5.89 0.111569
5.9 0.119272
5.91 0.112913
5.92 0.092846
5.93 0.0604592
5.94 0.0157486
5.95 -0.0379257
5.96 -0.0994663
5.97 -0.165749
5.98 -0.234509
5.99 -0.303177
6 -0.369778
6.01 -0.431861
6.02 -0.488636
6.03 -0.538775
6.04 -0.581963
6.05 -0.618686
6.06 -0.648833
6.07 -0.674218
6.08 -0.695539
6.09 -0.714587
6.1 -0.73268
6.11 -0.751257
6.12 -0.77127
6.13 -0.793861
6.14 -0.819089
6.15 -0.847173
6.16 -0.877637
6.17 -0.909663
6.18 -0.942237
6.19 -0.974101
6.2 -1.00378
6.21 -1.0301
6.22 -1.05198
6.23 -1.06824
6.24 -1.07905
6.25 -1.08338
6.26 -1.08246
6.27 -1.07657
6.28 -1.06691
6.29 -1.05484
6.3 -1.04161
6.31 -1.02856
6.32 -1.01678
6.33 -1.00678
6.34 -0.99859
6.35 -0.991548
6.36 -0.984209
6.37 -0.973936
6.38 -0.958039
6.39 -0.932345
6.4 -0.892273
6.41 -0.834313
6.42 -0.750716
6.43 -0.640491
6.44 -0.495787
6.45 -0.315702
6.46 -0.0976124
6.47 0.161612
6.48 0.457128
6.49 0.792483
6.5 1.15832
6.51 1.55164
6.52 1.96418
6.53 2.38704
6.54 2.81028
6.55 3.2238
6.56 3.6149
6.57 3.97392
6.58 4.29075
6.59 4.5526
6.6 4.75801
6.61 4.89039
6.62 4.95528
6.63 4.945
6.64 4.86071
6.65 4.70864
6.66 4.4856
6.67 4.20744
6.68 3.87569
6.69 3.50456
6.7 3.10358
6.71 2.68363
6.72 2.25688
6.73 1.83447
6.74 1.42585
6.75 1.04079
6.76 0.687099
6.77 0.368356
6.78 0.0936297
6.79 -0.140831
6.8 -0.329224
6.81 -0.476149
6.82 -0.583453
6.83 -0.653043
6.84 -0.693009
6.85 -0.704155
6.86 -0.695665
6.87 -0.671067
6.88 -0.63598
6.89 -0.595065
6.9 -0.55198
6.91 -0.509928
6.92 -0.471382
6.93 -0.437594
6.94 -0.409286
6.95 -0.386858
6.96 -0.369318
6.97 -0.356637
6.98 -0.347237
6.99 -0.340463
7 -0.33537
7.01 -0.331299
7.02 -0.328001
7.03 -0.325376
7.04 -0.323869
7.05 -0.324061
7.06 -0.326784
7.07 -0.333304
7.08 -0.344159
7.09 -0.361157
7.1 -0.384255
7.11 -0.414429
7.12 -0.451746
7.13 -0.495575
7.14 -0.545967
7.15 -0.601005
7.16 -0.659798
7.17 -0.720281
7.18 -0.780708
7.19 -0.838911
7.2 -0.893429
7.21 -0.941754
7.22 -0.983327
7.23 -1.01664
7.24 -1.04119
7.25 -1.05743
7.26 -1.06477
7.27 -1.06525
7.28 -1.05929
7.29 -1.04896
7.3 -1.03582
7.31 -1.02163
7.32 -1.00797
7.33 -0.996469
7.34 -0.987836
7.35 -0.982824
7.36 -0.981402
7.37 -0.982873
7.38 -0.986341
7.39 -0.989987
7.4 -0.991691
7.41 -0.989105
7.42 -0.979783
7.43 -0.960439
7.44 -0.929909
7.45 -0.883889
7.46 -0.822699
7.47 -0.743996
7.48 -0.647432
7.49 -0.534236
7.5 -0.40343
7.51 -0.259081
7.52 -0.102015
7.53 0.0635985
7.54 0.234476
7.55 0.406498
7.56 0.575787
7.57 0.73719
7.58 0.887716
7.59 1.02288
7.6 1.13927
7.61 1.23548
7.62 1.30654
7.63 1.35455
7.64 1.3759
7.65 1.37264
7.66 1.34534
7.67 1.29423
7.68 1.22369
7.69 1.13332
7.7 1.02856
7.71 0.911257
7.72 0.785033
7.73 0.653342
7.74 0.519143
7.75 0.385688
7.76 0.256036
7.77 0.132627
7.78 0.0176626
7.79 -0.086163
7.8 -0.178572
7.81 -0.256252
7.82 -0.320232
7.83 -0.368899
7.84 -0.402197
7.85 -0.421164
7.86 -0.424537
7.87 -0.41525
7.88 -0.392911
7.89 -0.360032
7.9 -0.31819
7.91 -0.269136
7.92 -0.215672
7.93 -0.159746
7.94 -0.104145
7.95 -0.0512857
7.96 -0.00373711
7.97 0.036791
7.98 0.0671165
7.99 0.0870544
8 0.093981
8.01 0.0880168
8.02 0.0688021
8.03 0.0358366
8.04 -0.00870536
8.05 -0.0653229
8.06 -0.130751
8.07 -0.203705
8.08 -0.281645
8.09 -0.362094
8.1 -0.4426
8.11 -0.520952
8.12 -0.594726
8.13 -0.662439
8.14 -0.722829
8.15 -0.774553
8.16 -0.818274
8.17 -0.852918
8.18 -0.88036
8.19 -0.901095
8.2 -0.916676
8.21 -0.928808
8.22 -0.93884
8.23 -0.948436
8.24 -0.958752
8.25 -0.97053
8.26 -0.983997
8.27 -0.998836
8.28 -1.01397
8.29 -1.02754
8.3 -1.03742
8.31 -1.04055
8.32 -1.03344
8.33 -1.01351
8.34 -0.974973
8.35 -0.917105
8.36 -0.834263
8.37 -0.725629
8.38 -0.589437
8.39 -0.423192
8.4 -0.230419
8.41 -0.00839807
8.42 0.236437
8.43 0.502182
8.44 0.783441
8.45 1.07411
8.46 1.36803
8.47 1.6581
8.48 1.93638
8.49 2.19617
8.5 2.43096
8.51 2.63221
8.52 2.79857
8.53 2.91938
8.54 2.99732
8.55 3.02728
8.56 3.00904
8.57 2.9463
8.58 2.8357
8.59 2.68711
8.6 2.50039
8.61 2.28392
8.62 2.04323
8.63 1.7842
8.64 1.51492
8.65 1.24118
8.66 0.969931
8.67 0.707002
8.68 0.457936
8.69 0.225817
8.7 0.0167983
8.71 -0.169971
8.72 -0.330189
8.73 -0.465227
8.74 -0.575354
8.75 -0.660436
8.76 -0.724938
8.77 -0.768248
8.78 -0.795945
8.79 -0.809819
8.8 -0.813387
8.81 -0.810076
8.82 -0.802317
8.83 -0.79323
8.84 -0.784984
8.85 -0.779443
8.86 -0.777908
8.87 -0.781645
8.88 -0.790494
8.89 -0.805326
8.9 -0.825025
8.91 -0.849322
8.92 -0.877218
8.93 -0.907539
8.94 -0.939301
8.95 -0.971204
8.96 -1.00214
8.97 -1.03114
8.98 -1.05746
8.99 -1.08021
9 -1.09945
9.01 -1.11438
9.02 -1.12559
9.03 -1.13304
9.04 -1.13714
9.05 -1.13854
9.06 -1.13751
9.07 -1.1349
9.08 -1.13101
9.09 -1.12636
9.1 -1.12116
9.11 -1.11548
9.12 -1.10925
9.13 -1.102
9.14 -1.09335
9.15 -1.0825
9.16 -1.06856
9.17 -1.0509
9.18 -1.02795
9.19 -0.9996
9.2 -0.964403
9.21 -0.922251
9.22 -0.872851
9.23 -0.815786
9.24 -0.752247
9.25 -0.682036
9.26 -0.607152
9.27 -0.528693
9.28 -0.448628
9.29 -0.368888
9.3 -0.292018
9.31 -0.219757
9.32 -0.15493
9.33 -0.0991275
9.34 -0.0539914
9.35 -0.0217006
9.36 -0.00165719
9.37 0.00373507
9.38 -0.00347536
9.39 -0.0235029
9.4 -0.0549164
9.41 -0.0954459
9.42 -0.143896
9.43 -0.196886
9.44 -0.252354
9.45 -0.307437
9.46 -0.359845
9.47 -0.406934
9.48 -0.447611
9.49 -0.479291
9.5 -0.502266
9.51 -0.515632
9.52 -0.519743
9.53 -0.515921
9.54 -0.50458
9.55 -0.488369
9.56 -0.468688
9.57 -0.447966
9.58 -0.428154
9.59 -0.41151
9.6 -0.399248
9.61 -0.393594
9.62 -0.394638
9.63 -0.403295
9.64 -0.419495
9.65 -0.442312
9.66 -0.471602
9.67 -0.505291
9.68 -0.542428
9.69 -0.581147
9.7 -0.620017
9.71 -0.657472
9.72 -0.692602
9.73 -0.724072
9.74 -0.751847
9.75 -0.775541
9.76 -0.795402
9.77 -0.812122
9.78 -0.826054
9.79 -0.838295
9.8 -0.849325
9.81 -0.859687
9.82 -0.869457
9.83 -0.878131
9.84 -0.884918
9.85 -0.88766
9.86 -0.884513
9.87 -0.872172
9.88 -0.846839
9.89 -0.805802
9.9 -0.742159
9.91 -0.655068
9.92 -0.537595
9.93 -0.388231
9.94 -0.204516
9.95 0.0175133
9.96 0.273922
9.97 0.569062
9.98 0.895482
9.99 1.25148
10 1.63093
10.01 2.02615
10.02 2.43012
10.03 2.8331
10.04 3.22529
10.05 3.59727
10.06 3.94025
10.07 4.24241
10.08 4.50106
10.09 4.70179
10.1 4.84678
10.11 4.92887
10.12 4.94669
10.13 4.90487
10.14 4.79799
10.15 4.63913
10.16 4.42777
10.17 4.17486
10.18 3.88791
10.19 3.5745
10.2 3.24578
10.21 2.90918
10.22 2.57415
10.23 2.24817
10.24 1.93839
10.25 1.64862
10.26 1.3862
10.27 1.14981
10.28 0.943887
10.29 0.766282
10.3 0.615786
10.31 0.491612
10.32 0.388055
10.33 0.304451
10.34 0.234457
10.35 0.175307
10.36 0.122981
10.37 0.0740456
10.38 0.0257549
10.39 -0.0240789
10.4 -0.0772232
10.41 -0.13439
10.42 -0.195826
10.43 -0.261507
10.44 -0.330305
10.45 -0.401549
10.46 -0.47367
10.47 -0.545435
10.48 -0.615415
10.49 -0.68265
10.5 -0.745607
10.51 -0.80415
10.52 -0.85721
10.53 -0.904873
10.54 -0.947108
10.55 -0.983712
10.56 -1.01555
10.57 -1.04223
10.58 -1.06471
10.59 -1.08297
10.6 -1.09719
10.61 -1.10769
10.62 -1.11388
10.63 -1.11616
10.64 -1.11375
10.65 -1.1066
10.66 -1.09437
10.67 -1.07642
10.68 -1.05321
10.69 -1.02388
10.7 -0.989402
10.71 -0.949835
10.72 -0.905941
10.73 -0.858857
10.74 -0.809489
10.75 -0.759466
10.76 -0.710252
10.77 -0.66345
10.78 -0.620515
10.79 -0.583377
10.8 -0.552603
10.81 -0.530438
10.82 -0.516645
10.83 -0.512279
10.84 -0.5175
10.85 -0.531487
10.86 -0.554842
10.87 -0.585433
10.88 -0.622998
10.89 -0.665686
10.9 -0.712115
10.91 -0.760798
10.92 -0.810067
10.93 -0.858369
10.94 -0.904465
10.95 -0.947082
10.96 -0.985192
10.97 -1.01847
10.98 -1.04575
10.99 -1.0677
11 -1.08377
11.01 -1.09468
11.02 -1.10092
11.03 -1.10294
11.04 -1.10197
11.05 -1.09852
11.06 -1.09383
11.07 -1.08872
11.08 -1.08415
11.09 -1.0808
11.1 -1.07963
11.11 -1.08082
11.12 -1.08502
11.13 -1.09217
11.14 -1.10218
11.15 -1.11483
11.16 -1.12927
11.17 -1.14479
11.18 -1.16008
11.19 -1.17374
11.2 -1.18394
11.21 -1.18922
11.22 -1.18651
11.23 -1.17483
11.24 -1.15081
11.25 -1.11292
11.26 -1.05927
11.27 -0.98672
11.28 -0.896017
11.29 -0.783071
11.3 -0.650035
11.31 -0.495599
11.32 -0.320505
11.33 -0.127422
11.34 0.0837556
11.35 0.307761
11.36 0.542574
11.37 0.783205
11.38 1.02538
11.39 1.26367
11.4 1.49383
11.41 1.70887
11.42 1.9056
11.43 2.07835
11.44 2.22259
11.45 2.33717
11.46 2.41488
11.47 2.45925
11.48 2.46549
11.49 2.4363
11.5 2.37303
11.51 2.27585
11.52 2.15145
11.53 1.99977
11.54 1.8286
11.55 1.64127
11.56 1.44321
11.57 1.23967
11.58 1.03541
11.59 0.834804
11.6 0.642338
11.61 0.460998
11.62 0.293156
11.63 0.141818
11.64 0.0060818
11.65 -0.111256
11.66 -0.21284
11.67 -0.298616
11.68 -0.370204
11.69 -0.430286
11.7 -0.479658
11.71 -0.521961
11.72 -0.558564
11.73 -0.591952
11.74 -0.623778
11.75 -0.655527
11.76 -0.688134
11.77 -0.722365
11.78 -0.75813
11.79 -0.795208
11.8 -0.832799
11.81 -0.869887
11.82 -0.904819
11.83 -0.93637
11.84 -0.962374
11.85 -0.98132
11.86 -0.991648
11.87 -0.99096
11.88 -0.979222
11.89 -0.953426
11.9 -0.914427
11.91 -0.8609
11.92 -0.792685
11.93 -0.71106
11.94 -0.61488
11.95 -0.507231
11.96 -0.3882
11.97 -0.260374
11.98 -0.125754
11.99 0.0134791
12 0.154441
12.01 0.29439
12.02 0.430623
12.03 0.56021
12.04 0.680169
12.05 0.788884
12.06 0.882086
12.07 0.960059
12.08 1.01934
12.09 1.05986
12.1 1.08113
12.11 1.08167
12.12 1.06423
12.13 1.02706
12.14 0.974048
12.15 0.906031
12.16 0.825492
12.17 0.735667
12.18 0.638435
12.19 0.537611
12.2 0.435649
12.21 0.335431
12.22 0.239172
12.23 0.149435
12.24 0.0669216
12.25 -0.00605515
12.26 -0.0701108
12.27 -0.124699
12.28 -0.170361
12.29 -0.208619
12.3 -0.239968
12.31 -0.266966
12.32 -0.290921
12.33 -0.313943
12.34 -0.337646
12.35 -0.36378
12.36 -0.393152
12.37 -0.427114
12.38 -0.465396
12.39 -0.508033
12.4 -0.554206
12.41 -0.602534
12.42 -0.651384
