# xPDFsuite Configuration #
[PDF]
wavelength = 0.1432
dataformat = twotheta
inputfile = 1_1Pd_CeO2_cycle-00129.chi
backgroundfile = background-00000.chi
mode = xray
bgscale = 1.007
composition = CeO2
outputtype = gr
qmaxinst = 28.8974762299
qmin = 0.5
qmax = 27.9
rmax = 50.0
rmin = 0.0
rstep = 0.01
rpoly = 1.8657

[Misc]
inputdir = G:/SankarDec16/1Pd/Chi
savedir = D:/DATA/APS_CeO2/1Pd
backgroundfilefull = G:/SankarDec16/Background/background-00000.chi

#### start data
#S 1
#L r($\AA$)  G($\AA^{-2}$)
0 0
0.01 -0.00801168
0.02 -0.0154208
0.03 -0.0216069
0.04 -0.0261025
0.05 -0.0286471
0.06 -0.0288219
0.07 -0.0269047
0.08 -0.0227599
0.09 -0.0169181
0.1 -0.00974589
0.11 -0.00180525
0.12 0.00628977
0.13 0.0138514
0.14 0.0203902
0.15 0.025308
0.16 0.0282531
0.17 0.0290837
0.18 0.0275121
0.19 0.0239455
0.2 0.0183966
0.21 0.0114837
0.22 0.00366257
0.23 -0.00443608
0.24 -0.0122332
0.25 -0.0189877
0.26 -0.0243455
0.27 -0.0277591
0.28 -0.0290086
0.29 -0.0280777
0.3 -0.0248234
0.31 -0.0197638
0.32 -0.0130597
0.33 -0.00538849
0.34 0.00272585
0.35 0.0106126
0.36 0.0177548
0.37 0.0233923
0.38 0.027323
0.39 0.0290756
0.4 0.0285726
0.41 0.0259244
0.42 0.0211397
0.43 0.0148238
0.44 0.00727845
0.45 -0.00079052
0.46 -0.00881557
0.47 -0.0161165
0.48 -0.0222628
0.49 -0.0265107
0.5 -0.0288196
0.51 -0.028817
0.52 -0.0265718
0.53 -0.0223165
0.54 -0.0162119
0.55 -0.00892295
0.56 -0.000878554
0.57 0.00721925
0.58 0.0147858
0.59 0.0211626
0.6 0.0260262
0.61 0.028684
0.62 0.0292596
0.63 0.0274967
0.64 0.0236085
0.65 0.0179393
0.66 0.0107957
0.67 0.00287136
0.68 -0.00529671
0.69 -0.0130426
0.7 -0.0197918
0.71 -0.0249375
0.72 -0.0282793
0.73 -0.0292072
0.74 -0.0280039
0.75 -0.0245415
0.76 -0.0191672
0.77 -0.0123211
0.78 -0.00444066
0.79 0.00378408
0.8 0.0117349
0.81 0.0188131
0.82 0.0244827
0.83 0.0282182
0.84 0.0299511
0.85 0.029185
0.86 0.0263465
0.87 0.0214415
0.88 0.0149331
0.89 0.00733266
0.9 -0.000817166
0.91 -0.00886806
0.92 -0.0161598
0.93 -0.0221971
0.94 -0.0265195
0.95 -0.0287225
0.96 -0.0288798
0.97 -0.0266583
0.98 -0.0226086
0.99 -0.0168914
1 -0.0100717
1.01 -0.0027106
1.02 0.00455198
1.03 0.0111586
1.04 0.0164286
1.05 0.0200187
1.06 0.0215819
1.07 0.0208814
1.08 0.0181676
1.09 0.0133324
1.1 0.00707144
1.11 -0.000243547
1.12 -0.00790834
1.13 -0.0152853
1.14 -0.0215621
1.15 -0.0262799
1.16 -0.0286476
1.17 -0.0284733
1.18 -0.025477
1.19 -0.0195363
1.2 -0.0111076
1.21 -0.000199496
1.22 0.0122604
1.23 0.0257334
1.24 0.0393275
1.25 0.0522637
1.26 0.0635211
1.27 0.0725927
1.28 0.0784822
1.29 0.0809769
1.3 0.0797001
1.31 0.0744237
1.32 0.0656636
1.33 0.0532056
1.34 0.0381251
1.35 0.0208287
1.36 0.00222847
1.37 -0.0168515
1.38 -0.0354904
1.39 -0.0529836
1.4 -0.0684031
1.41 -0.0813221
1.42 -0.0912502
1.43 -0.0977727
1.44 -0.101136
1.45 -0.100859
1.46 -0.0976946
1.47 -0.0916808
1.48 -0.0833548
1.49 -0.0732432
1.5 -0.0617212
1.51 -0.0494251
1.52 -0.0367219
1.53 -0.0240479
1.54 -0.0117014
1.55 3.86843e-05
1.56 0.0110811
1.57 0.0211792
1.58 0.0304111
1.59 0.0386548
1.6 0.045908
1.61 0.0521755
1.62 0.0572834
1.63 0.0612961
1.64 0.0639337
1.65 0.0651701
1.66 0.0648166
1.67 0.0626435
1.68 0.0587179
1.69 0.0526416
1.7 0.0447233
1.71 0.0348552
1.72 0.023281
1.73 0.0103214
1.74 -0.00374496
1.75 -0.0183429
1.76 -0.0329896
1.77 -0.0471064
1.78 -0.0601574
1.79 -0.0715371
1.8 -0.0810281
1.81 -0.0879412
1.82 -0.092494
1.83 -0.0944524
1.84 -0.0940727
1.85 -0.0917563
1.86 -0.0878479
1.87 -0.0831224
1.88 -0.0781942
1.89 -0.0738185
1.9 -0.0706589
1.91 -0.0694339
1.92 -0.0703745
1.93 -0.0741987
1.94 -0.0805628
1.95 -0.0895722
1.96 -0.100748
1.97 -0.113459
1.98 -0.126983
1.99 -0.140343
2 -0.152442
2.01 -0.162322
2.02 -0.168991
2.03 -0.171349
2.04 -0.169195
2.05 -0.161182
2.06 -0.14794
2.07 -0.128989
2.08 -0.104798
2.09 -0.0760666
2.1 -0.0431295
2.11 -0.00735073
2.12 0.0306502
2.13 0.0696813
2.14 0.108921
2.15 0.147518
2.16 0.185001
2.17 0.220737
2.18 0.25484
2.19 0.287232
2.2 0.318263
2.21 0.348393
2.22 0.378136
2.23 0.408068
2.24 0.43875
2.25 0.470495
2.26 0.503481
2.27 0.537638
2.28 0.572486
2.29 0.607306
2.3 0.641071
2.31 0.672388
2.32 0.699691
2.33 0.721653
2.34 0.735808
2.35 0.741701
2.36 0.736781
2.37 0.720957
2.38 0.693395
2.39 0.653518
2.4 0.602956
2.41 0.540992
2.42 0.470795
2.43 0.393513
2.44 0.311865
2.45 0.228412
2.46 0.146053
2.47 0.0671686
2.48 -0.00512772
2.49 -0.0691935
2.5 -0.123234
2.51 -0.1656
2.52 -0.197022
2.53 -0.215785
2.54 -0.22453
2.55 -0.223641
2.56 -0.215367
2.57 -0.202037
2.58 -0.185843
2.59 -0.169471
2.6 -0.155369
2.61 -0.145465
2.62 -0.141412
2.63 -0.144701
2.64 -0.155081
2.65 -0.1737
2.66 -0.1987
2.67 -0.229513
2.68 -0.264239
2.69 -0.30095
2.7 -0.33749
2.71 -0.371927
2.72 -0.401954
2.73 -0.42631
2.74 -0.443768
2.75 -0.45335
2.76 -0.455798
2.77 -0.450485
2.78 -0.439605
2.79 -0.424132
2.8 -0.406203
2.81 -0.387821
2.82 -0.371353
2.83 -0.358431
2.84 -0.351354
2.85 -0.350957
2.86 -0.358126
2.87 -0.373378
2.88 -0.395513
2.89 -0.424548
2.9 -0.457946
2.91 -0.494198
2.92 -0.530832
2.93 -0.565701
2.94 -0.596026
2.95 -0.620492
2.96 -0.636586
2.97 -0.643909
2.98 -0.641815
2.99 -0.630131
3 -0.610599
3.01 -0.583551
3.02 -0.552044
3.03 -0.517965
3.04 -0.484131
3.05 -0.452877
3.06 -0.42723
3.07 -0.408387
3.08 -0.398899
3.09 -0.398898
3.1 -0.408802
3.11 -0.428469
3.12 -0.455848
3.13 -0.490227
3.14 -0.528372
3.15 -0.568151
3.16 -0.606693
3.17 -0.641753
3.18 -0.670417
3.19 -0.691894
3.2 -0.70406
3.21 -0.707346
3.22 -0.701942
3.23 -0.68877
3.24 -0.670263
3.25 -0.64822
3.26 -0.625863
3.27 -0.60599
3.28 -0.591556
3.29 -0.584592
3.3 -0.588182
3.31 -0.602138
3.32 -0.628311
3.33 -0.665153
3.34 -0.711599
3.35 -0.765606
3.36 -0.823806
3.37 -0.883037
3.38 -0.939542
3.39 -0.989524
3.4 -1.02957
3.41 -1.05764
3.42 -1.07018
3.43 -1.06835
3.44 -1.05042
3.45 -1.01918
3.46 -0.976629
3.47 -0.926053
3.48 -0.871952
3.49 -0.818895
3.5 -0.771279
3.51 -0.733786
3.52 -0.710012
3.53 -0.701616
3.54 -0.711606
3.55 -0.737072
3.56 -0.777654
3.57 -0.827769
3.58 -0.882099
3.59 -0.932623
3.6 -0.972054
3.61 -0.987827
3.62 -0.973819
3.63 -0.918179
3.64 -0.812808
3.65 -0.653635
3.66 -0.428834
3.67 -0.144593
3.68 0.206891
3.69 0.61662
3.7 1.08002
3.71 1.58938
3.72 2.12955
3.73 2.68994
3.74 3.25228
3.75 3.80055
3.76 4.31694
3.77 4.78799
3.78 5.19115
3.79 5.52274
3.8 5.7617
3.81 5.90769
3.82 5.95453
3.83 5.89669
3.84 5.74716
3.85 5.49699
3.86 5.16945
3.87 4.76876
3.88 4.31128
3.89 3.81335
3.9 3.28835
3.91 2.75477
3.92 2.22745
3.93 1.72029
3.94 1.24507
3.95 0.81423
3.96 0.429878
3.97 0.105381
3.98 -0.165698
3.99 -0.378891
4 -0.538329
4.01 -0.650689
4.02 -0.717468
4.03 -0.751379
4.04 -0.756096
4.05 -0.742134
4.06 -0.716115
4.07 -0.684989
4.08 -0.654444
4.09 -0.629737
4.1 -0.613189
4.11 -0.607314
4.12 -0.612471
4.13 -0.627594
4.14 -0.652052
4.15 -0.682444
4.16 -0.716644
4.17 -0.751225
4.18 -0.783401
4.19 -0.810015
4.2 -0.829543
4.21 -0.83872
4.22 -0.837822
4.23 -0.825367
4.24 -0.801594
4.25 -0.767504
4.26 -0.722953
4.27 -0.670475
4.28 -0.61048
4.29 -0.545097
4.3 -0.475532
4.31 -0.402989
4.32 -0.328728
4.33 -0.253404
4.34 -0.177769
4.35 -0.102198
4.36 -0.0269886
4.37 0.0476916
4.38 0.121546
4.39 0.194419
4.4 0.26574
4.41 0.335013
4.42 0.401436
4.43 0.463742
4.44 0.521276
4.45 0.571697
4.46 0.614604
4.47 0.647958
4.48 0.670563
4.49 0.681947
4.5 0.679887
4.51 0.665746
4.52 0.637892
4.53 0.597899
4.54 0.54636
4.55 0.484168
4.56 0.413903
4.57 0.33639
4.58 0.254745
4.59 0.170735
4.6 0.0867305
4.61 0.00456584
4.62 -0.0735137
4.63 -0.146669
4.64 -0.213106
4.65 -0.272675
4.66 -0.325002
4.67 -0.369882
4.68 -0.408508
4.69 -0.440664
4.7 -0.468192
4.71 -0.491707
4.72 -0.512441
4.73 -0.531447
4.74 -0.549521
4.75 -0.567431
4.76 -0.585635
4.77 -0.604329
4.78 -0.623505
4.79 -0.642932
4.8 -0.662231
4.81 -0.680808
4.82 -0.698213
4.83 -0.713814
4.84 -0.727143
4.85 -0.737994
4.86 -0.745859
4.87 -0.751129
4.88 -0.753644
4.89 -0.753992
4.9 -0.752597
4.91 -0.750038
4.92 -0.747021
4.93 -0.744208
4.94 -0.742168
4.95 -0.741461
4.96 -0.742467
4.97 -0.745305
4.98 -0.750262
4.99 -0.756964
5 -0.765402
5.01 -0.775084
5.02 -0.785657
5.03 -0.796699
5.04 -0.807805
5.05 -0.818611
5.06 -0.82892
5.07 -0.838559
5.08 -0.847509
5.09 -0.855856
5.1 -0.863659
5.11 -0.871106
5.12 -0.878231
5.13 -0.885027
5.14 -0.891305
5.15 -0.896579
5.16 -0.900355
5.17 -0.901304
5.18 -0.898603
5.19 -0.890495
5.2 -0.875283
5.21 -0.851713
5.22 -0.816748
5.23 -0.77031
5.24 -0.709366
5.25 -0.63396
5.26 -0.5433
5.27 -0.436635
5.28 -0.316233
5.29 -0.181351
5.3 -0.0361065
5.31 0.117654
5.32 0.276065
5.33 0.435305
5.34 0.590546
5.35 0.738055
5.36 0.872103
5.37 0.989316
5.38 1.08581
5.39 1.15694
5.4 1.20313
5.41 1.2184
5.42 1.20644
5.43 1.16531
5.44 1.09708
5.45 1.00528
5.46 0.890705
5.47 0.760056
5.48 0.61576
5.49 0.463718
5.5 0.308199
5.51 0.154072
5.52 0.00495058
5.53 -0.134198
5.54 -0.261802
5.55 -0.374723
5.56 -0.471692
5.57 -0.552977
5.58 -0.616848
5.59 -0.666399
5.6 -0.701166
5.61 -0.724143
5.62 -0.737016
5.63 -0.741565
5.64 -0.74044
5.65 -0.734662
5.66 -0.726269
5.67 -0.716001
5.68 -0.70449
5.69 -0.691906
5.7 -0.6778
5.71 -0.661795
5.72 -0.642764
5.73 -0.619964
5.74 -0.592471
5.75 -0.559176
5.76 -0.520212
5.77 -0.474426
5.78 -0.422993
5.79 -0.366104
5.8 -0.305069
5.81 -0.241495
5.82 -0.177213
5.83 -0.114322
5.84 -0.0553445
5.85 -0.00229011
5.86 0.0428032
5.87 0.0775088
5.88 0.101628
5.89 0.112299
5.9 0.110936
5.91 0.0966382
5.92 0.070326
5.93 0.0336746
5.94 -0.0127835
5.95 -0.065944
5.96 -0.124507
5.97 -0.185811
5.98 -0.247939
5.99 -0.308821
6 -0.367142
6.01 -0.421085
6.02 -0.470463
6.03 -0.514558
6.04 -0.553545
6.05 -0.588121
6.06 -0.618641
6.07 -0.6466
6.08 -0.672825
6.09 -0.698605
6.1 -0.724866
6.11 -0.752506
6.12 -0.781827
6.13 -0.81329
6.14 -0.846397
6.15 -0.880749
6.16 -0.915409
6.17 -0.949386
6.18 -0.981212
6.19 -1.01001
6.2 -1.03418
6.21 -1.0531
6.22 -1.06611
6.23 -1.07259
6.24 -1.07336
6.25 -1.06812
6.26 -1.05865
6.27 -1.04584
6.28 -1.03138
6.29 -1.01677
6.3 -1.00374
6.31 -0.993236
6.32 -0.98647
6.33 -0.983407
6.34 -0.983664
6.35 -0.986014
6.36 -0.988343
6.37 -0.987324
6.38 -0.979702
6.39 -0.960676
6.4 -0.925198
6.41 -0.869578
6.42 -0.785595
6.43 -0.672627
6.44 -0.522687
6.45 -0.335403
6.46 -0.10855
6.47 0.160462
6.48 0.466119
6.49 0.811291
6.5 1.18604
6.51 1.58671
6.52 2.00456
6.53 2.43046
6.54 2.85394
6.55 3.26523
6.56 3.6514
6.57 4.00329
6.58 4.3111
6.59 4.56252
6.6 4.75676
6.61 4.87782
6.62 4.93186
6.63 4.91183
6.64 4.81945
6.65 4.66125
6.66 4.43461
6.67 4.15522
6.68 3.82493
6.69 3.45762
6.7 3.06263
6.71 2.65053
6.72 2.23291
6.73 1.82052
6.74 1.42217
6.75 1.04712
6.76 0.702624
6.77 0.391916
6.78 0.123497
6.79 -0.106404
6.8 -0.292373
6.81 -0.438891
6.82 -0.547763
6.83 -0.620816
6.84 -0.665707
6.85 -0.683113
6.86 -0.681666
6.87 -0.66457
6.88 -0.637002
6.89 -0.603272
6.9 -0.566598
6.91 -0.530004
6.92 -0.495601
6.93 -0.464571
6.94 -0.437543
6.95 -0.414826
6.96 -0.395651
6.97 -0.379907
6.98 -0.36639
6.99 -0.354575
7 -0.343804
7.01 -0.333698
7.02 -0.324281
7.03 -0.315723
7.04 -0.308753
7.05 -0.304153
7.06 -0.302943
7.07 -0.306602
7.08 -0.31565
7.09 -0.332135
7.1 -0.355847
7.11 -0.387813
7.12 -0.427994
7.13 -0.475579
7.14 -0.530539
7.15 -0.590656
7.16 -0.65487
7.17 -0.720838
7.18 -0.786582
7.19 -0.849652
7.2 -0.90843
7.21 -0.960076
7.22 -1.00399
7.23 -1.03847
7.24 -1.06295
7.25 -1.07794
7.26 -1.08277
7.27 -1.07975
7.28 -1.06936
7.29 -1.05397
7.3 -1.03539
7.31 -1.01568
7.32 -0.996705
7.33 -0.980489
7.34 -0.967951
7.35 -0.960147
7.36 -0.957251
7.37 -0.958613
7.38 -0.963573
7.39 -0.97007
7.4 -0.976042
7.41 -0.978835
7.42 -0.975764
7.43 -0.963229
7.44 -0.939676
7.45 -0.900393
7.46 -0.845345
7.47 -0.771794
7.48 -0.679064
7.49 -0.568236
7.5 -0.437959
7.51 -0.292488
7.52 -0.132476
7.53 0.0376268
7.54 0.214332
7.55 0.393243
7.56 0.57002
7.57 0.739133
7.58 0.897122
7.59 1.03906
7.6 1.16113
7.61 1.26167
7.62 1.33527
7.63 1.38413
7.64 1.40437
7.65 1.3983
7.66 1.3666
7.67 1.30975
7.68 1.23261
7.69 1.13509
7.7 1.02316
7.71 0.899109
7.72 0.767011
7.73 0.630612
7.74 0.493355
7.75 0.35846
7.76 0.229284
7.77 0.1081
7.78 -0.00300724
7.79 -0.101519
7.8 -0.187615
7.81 -0.258263
7.82 -0.315025
7.83 -0.356711
7.84 -0.38373
7.85 -0.397431
7.86 -0.397047
7.87 -0.385528
7.88 -0.362806
7.89 -0.331275
7.9 -0.292442
7.91 -0.247936
7.92 -0.200134
7.93 -0.150774
7.94 -0.102126
7.95 -0.0562372
7.96 -0.0152337
7.97 0.0194861
7.98 0.045196
7.99 0.0617752
8 0.0669141
8.01 0.0606741
8.02 0.0426651
8.03 0.0123235
8.04 -0.0285219
8.05 -0.0804998
8.06 -0.14078
8.07 -0.208359
8.08 -0.281045
8.09 -0.356621
8.1 -0.432963
8.11 -0.50794
8.12 -0.57934
8.13 -0.645646
8.14 -0.705563
8.15 -0.757685
8.16 -0.802436
8.17 -0.838621
8.18 -0.867833
8.19 -0.890377
8.2 -0.907595
8.21 -0.921056
8.22 -0.931952
8.23 -0.941966
8.24 -0.952216
8.25 -0.963563
8.26 -0.976361
8.27 -0.990476
8.28 -1.00502
8.29 -1.0184
8.3 -1.02863
8.31 -1.03286
8.32 -1.02772
8.33 -1.01061
8.34 -0.975851
8.35 -0.922472
8.36 -0.844741
8.37 -0.741531
8.38 -0.610795
8.39 -0.449654
8.4 -0.261349
8.41 -0.0426656
8.42 0.200124
8.43 0.465458
8.44 0.748112
8.45 1.04194
8.46 1.34097
8.47 1.63771
8.48 1.92413
8.49 2.19308
8.5 2.43763
8.51 2.64874
8.52 2.82459
8.53 2.95387
8.54 3.03892
8.55 3.0741
8.56 3.05888
8.57 2.99686
8.58 2.88432
8.59 2.7315
8.6 2.53817
8.61 2.31321
8.62 2.06252
8.63 1.79245
8.64 1.51172
8.65 1.22672
8.66 0.944938
8.67 0.672804
8.68 0.416357
8.69 0.178908
8.7 -0.0328308
8.71 -0.219954
8.72 -0.377881
8.73 -0.508335
8.74 -0.611838
8.75 -0.688569
8.76 -0.743614
8.77 -0.776775
8.78 -0.794273
8.79 -0.798421
8.8 -0.793279
8.81 -0.782601
8.82 -0.769387
8.83 -0.756712
8.84 -0.747089
8.85 -0.742208
8.86 -0.74325
8.87 -0.751323
8.88 -0.76577
8.89 -0.787217
8.9 -0.813973
8.91 -0.845366
8.92 -0.879923
8.93 -0.916145
8.94 -0.952575
8.95 -0.987857
8.96 -1.02057
8.97 -1.04984
8.98 -1.07495
8.99 -1.09513
9 -1.11078
9.01 -1.12131
9.02 -1.12777
9.03 -1.13043
9.04 -1.1301
9.05 -1.12772
9.06 -1.12394
9.07 -1.11967
9.08 -1.11551
9.09 -1.11188
9.1 -1.10899
9.11 -1.10681
9.12 -1.10495
9.13 -1.10278
9.14 -1.0995
9.15 -1.09401
9.16 -1.08505
9.17 -1.07172
9.18 -1.05206
9.19 -1.02588
9.2 -0.99143
9.21 -0.948636
9.22 -0.897204
9.23 -0.836734
9.24 -0.768717
9.25 -0.693037
9.26 -0.612098
9.27 -0.527254
9.28 -0.440828
9.29 -0.355036
9.3 -0.272805
9.31 -0.19602
9.32 -0.127822
9.33 -0.0698691
9.34 -0.0238737
9.35 0.00790171
9.36 0.0262653
9.37 0.0287656
9.38 0.0177835
9.39 -0.00675108
9.4 -0.0431419
9.41 -0.0888637
9.42 -0.142469
9.43 -0.200363
9.44 -0.260253
9.45 -0.319141
9.46 -0.374632
9.47 -0.423964
9.48 -0.466123
9.49 -0.498434
9.5 -0.521367
9.51 -0.534064
9.52 -0.537017
9.53 -0.531698
9.54 -0.51863
9.55 -0.500614
9.56 -0.479154
9.57 -0.45677
9.58 -0.435467
9.59 -0.417553
9.6 -0.404219
9.61 -0.397702
9.62 -0.398023
9.63 -0.406056
9.64 -0.421661
9.65 -0.443854
9.66 -0.472426
9.67 -0.505274
9.68 -0.541409
9.69 -0.578973
9.7 -0.616551
9.71 -0.652614
9.72 -0.686314
9.73 -0.716391
9.74 -0.742882
9.75 -0.765486
9.76 -0.784531
9.77 -0.800744
9.78 -0.814569
9.79 -0.827069
9.8 -0.838758
9.81 -0.850125
9.82 -0.86119
9.83 -0.871385
9.84 -0.879811
9.85 -0.884218
9.86 -0.882658
9.87 -0.871729
9.88 -0.847548
9.89 -0.807368
9.9 -0.74421
9.91 -0.657284
9.92 -0.539643
9.93 -0.389861
9.94 -0.205555
9.95 0.0171382
9.96 0.274174
9.97 0.569772
9.98 0.8964
9.99 1.25225
10 1.63115
10.01 2.02541
10.02 2.42795
10.03 2.82919
10.04 3.21933
10.05 3.58915
10.06 3.92998
10.07 4.23019
10.08 4.48724
10.09 4.68696
10.1 4.8316
10.11 4.91415
10.12 4.93331
10.13 4.89366
10.14 4.78984
10.15 4.6347
10.16 4.42763
10.17 4.1793
10.18 3.897
10.19 3.58798
10.2 3.26315
10.21 2.92958
10.22 2.59657
10.23 2.27134
10.24 1.96091
10.25 1.66914
10.26 1.40324
10.27 1.16221
10.28 0.950564
10.29 0.766536
10.3 0.609248
10.31 0.478332
10.32 0.368457
10.33 0.279482
10.34 0.205322
10.35 0.143598
10.36 0.0905433
10.37 0.0427249
10.38 -0.00232499
10.39 -0.0471846
10.4 -0.0936303
10.41 -0.142829
10.42 -0.195419
10.43 -0.251866
10.44 -0.311569
10.45 -0.374482
10.46 -0.439462
10.47 -0.505805
10.48 -0.572488
10.49 -0.63865
10.5 -0.703219
10.51 -0.765671
10.52 -0.825059
10.53 -0.880994
10.54 -0.933048
10.55 -0.980527
10.56 -1.02363
10.57 -1.06132
10.58 -1.09394
10.59 -1.12083
10.6 -1.14163
10.61 -1.15642
10.62 -1.16397
10.63 -1.16499
10.64 -1.15843
10.65 -1.14465
10.66 -1.12367
10.67 -1.09525
10.68 -1.06061
10.69 -1.01946
10.7 -0.973506
10.71 -0.92349
10.72 -0.87083
10.73 -0.817012
10.74 -0.763656
10.75 -0.712222
10.76 -0.664542
10.77 -0.6219
10.78 -0.585484
10.79 -0.556895
10.8 -0.53597
10.81 -0.524455
10.82 -0.521332
10.83 -0.527007
10.84 -0.540953
10.85 -0.561948
10.86 -0.589868
10.87 -0.622662
10.88 -0.659667
10.89 -0.699279
10.9 -0.740338
10.91 -0.781634
10.92 -0.822189
10.93 -0.860909
10.94 -0.897318
10.95 -0.930771
10.96 -0.960916
10.97 -0.987837
10.98 -1.01108
10.99 -1.03127
11 -1.04824
11.01 -1.06249
11.02 -1.07429
11.03 -1.08385
11.04 -1.0917
11.05 -1.09791
11.06 -1.10296
11.07 -1.10705
11.08 -1.11045
11.09 -1.11346
11.1 -1.1163
11.11 -1.11923
11.12 -1.12249
11.13 -1.12625
11.14 -1.13062
11.15 -1.13569
11.16 -1.14126
11.17 -1.1471
11.18 -1.15267
11.19 -1.15719
11.2 -1.15953
11.21 -1.15864
11.22 -1.15217
11.23 -1.13909
11.24 -1.11644
11.25 -1.08243
11.26 -1.03498
11.27 -0.970638
11.28 -0.889456
11.29 -0.786855
11.3 -0.664195
11.31 -0.519498
11.32 -0.352781
11.33 -0.166277
11.34 0.0409106
11.35 0.263456
11.36 0.499797
11.37 0.744718
11.38 0.993734
11.39 1.24116
11.4 1.48201
11.41 1.70882
11.42 1.91758
11.43 2.1019
11.44 2.2565
11.45 2.37973
11.46 2.46353
11.47 2.51142
11.48 2.51809
11.49 2.48639
11.5 2.41782
11.51 2.31272
11.52 2.17851
11.53 2.01551
11.54 1.83237
11.55 1.63308
11.56 1.42384
11.57 1.21044
11.58 0.998491
11.59 0.792488
11.6 0.597483
11.61 0.416408
11.62 0.251569
11.63 0.105904
11.64 -0.0221378
11.65 -0.130007
11.66 -0.22117
11.67 -0.296145
11.68 -0.357278
11.69 -0.4078
11.7 -0.449287
11.71 -0.485589
11.72 -0.518641
11.73 -0.550969
11.74 -0.584238
11.75 -0.619962
11.76 -0.658541
11.77 -0.700614
11.78 -0.745368
11.79 -0.792122
11.8 -0.839445
11.81 -0.885804
11.82 -0.928879
11.83 -0.967177
11.84 -0.998013
11.85 -1.01976
11.86 -1.03078
11.87 -1.02857
11.88 -1.01351
11.89 -0.982593
11.9 -0.937264
11.91 -0.876526
11.92 -0.800715
11.93 -0.711549
11.94 -0.608389
11.95 -0.494605
11.96 -0.370699
11.97 -0.23941
11.98 -0.102838
11.99 0.0367101
12 0.176612
12.01 0.314098
12.02 0.446878
12.03 0.572244
12.04 0.687566
12.05 0.791556
12.06 0.880301
12.07 0.95432
12.08 1.01045
12.09 1.04875
12.1 1.06884
12.11 1.06932
12.12 1.05278
12.13 1.01753
12.14 0.967138
12.15 0.90232
12.16 0.825316
12.17 0.739131
12.18 0.645402
12.19 0.547768
12.2 0.44847
12.21 0.350283
12.22 0.255347
12.23 0.166127
12.24 0.0834229
12.25 0.00948588
12.26 -0.0561258
12.27 -0.112801
12.28 -0.160948
12.29 -0.20194
12.3 -0.236158
12.31 -0.266019
12.32 -0.29272
12.33 -0.318276
12.34 -0.344235
12.35 -0.372263
12.36 -0.403178
12.37 -0.438255
12.38 -0.477271
12.39 -0.520241
12.4 -0.566363
