# xPDFsuite Configuration #
[PDF]
wavelength = 0.1432
dataformat = twotheta
inputfile = 1_1Pd_CeO2_cycle-00274.chi
backgroundfile = background-00000.chi
mode = xray
bgscale = 1.007
composition = CeO2
outputtype = gr
qmaxinst = 28.8974762299
qmin = 0.5
qmax = 27.9
rmax = 50.0
rmin = 0.0
rstep = 0.01
rpoly = 1.8657

[Misc]
inputdir = G:/SankarDec16/1Pd/Chi
savedir = D:/DATA/APS_CeO2/1Pd
backgroundfilefull = G:/SankarDec16/Background/background-00000.chi

#### start data
#S 1
#L r($\AA$)  G($\AA^{-2}$)
0 0
0.01 -0.00711113
0.02 -0.0136872
0.03 -0.0191772
0.04 -0.023166
0.05 -0.0254224
0.06 -0.0255748
0.07 -0.0238699
0.08 -0.0201877
0.09 -0.0149994
0.1 -0.00863089
0.11 -0.00158141
0.12 0.0056038
0.13 0.0123138
0.14 0.0181144
0.15 0.0224745
0.16 0.0250822
0.17 0.0258122
0.18 0.0244096
0.19 0.0212365
0.2 0.0163051
0.21 0.0101645
0.22 0.00322013
0.23 -0.00396781
0.24 -0.0108853
0.25 -0.0168743
0.26 -0.021621
0.27 -0.0246399
0.28 -0.0257366
0.29 -0.0248976
0.3 -0.021997
0.31 -0.0174956
0.32 -0.0115373
0.33 -0.00472394
0.34 0.00247876
0.35 0.00947511
0.36 0.0158067
0.37 0.0207988
0.38 0.0242733
0.39 0.0258127
0.4 0.0253496
0.41 0.0229833
0.42 0.0187232
0.43 0.0131073
0.44 0.00640503
0.45 -0.000756914
0.46 -0.00787437
0.47 -0.0143436
0.48 -0.0197837
0.49 -0.0235348
0.5 -0.025563
0.51 -0.0255389
0.52 -0.0235256
0.53 -0.0197311
0.54 -0.0143
0.55 -0.00782302
0.56 -0.000682578
0.57 0.00649865
0.58 0.0132018
0.59 0.018843
0.6 0.023137
0.61 0.0254703
0.62 0.0259549
0.63 0.0243656
0.64 0.0208935
0.65 0.0158458
0.66 0.00949682
0.67 0.00246217
0.68 -0.00478029
0.69 -0.0116407
0.7 -0.0176099
0.71 -0.0221511
0.72 -0.0250884
0.73 -0.0258829
0.74 -0.024788
0.75 -0.0216927
0.76 -0.0169072
0.77 -0.0108231
0.78 -0.00383025
0.79 0.00346002
0.8 0.010499
0.81 0.0167579
0.82 0.0217634
0.83 0.0250524
0.84 0.0265676
0.85 0.0258731
0.86 0.0233498
0.87 0.0190071
0.88 0.0132581
0.89 0.00655698
0.9 -0.000612596
0.91 -0.00767902
0.92 -0.0140572
0.93 -0.0193134
0.94 -0.023044
0.95 -0.0248974
0.96 -0.0249455
0.97 -0.0229037
0.98 -0.0192658
0.99 -0.0141851
1 -0.00816982
1.01 -0.00172208
1.02 0.00457965
1.03 0.0102452
1.04 0.0146622
1.05 0.017533
1.06 0.018552
1.07 0.0175145
1.08 0.0146555
1.09 0.00988687
1.1 0.00384411
1.11 -0.00312742
1.12 -0.0103831
1.13 -0.0173396
1.14 -0.0232475
1.15 -0.0276884
1.16 -0.029926
1.17 -0.0297799
1.18 -0.0269802
1.19 -0.0213956
1.2 -0.0134379
1.21 -0.00307747
1.22 0.00883324
1.23 0.0218281
1.24 0.0350962
1.25 0.0479208
1.26 0.0593776
1.27 0.0689662
1.28 0.0757649
1.29 0.0795287
1.3 0.0798689
1.31 0.0765138
1.32 0.0698812
1.33 0.0596794
1.34 0.0468511
1.35 0.0316798
1.36 0.0149457
1.37 -0.00262658
1.38 -0.020274
1.39 -0.0373031
1.4 -0.0529163
1.41 -0.0666472
1.42 -0.0780078
1.43 -0.0865482
1.44 -0.0923793
1.45 -0.0949662
1.46 -0.0948634
1.47 -0.0919774
1.48 -0.0866707
1.49 -0.0793303
1.5 -0.0701413
1.51 -0.0596823
1.52 -0.0481543
1.53 -0.0359968
1.54 -0.0234748
1.55 -0.0108693
1.56 0.00160275
1.57 0.0136784
1.58 0.0252265
1.59 0.0360103
1.6 0.0458454
1.61 0.0545832
1.62 0.0618571
1.63 0.0676376
1.64 0.0714662
1.65 0.0732824
1.66 0.0728367
1.67 0.0698665
1.68 0.0645378
1.69 0.0564279
1.7 0.0460413
1.71 0.0333555
1.72 0.0187848
1.73 0.00280345
1.74 -0.0141288
1.75 -0.0313118
1.76 -0.0480773
1.77 -0.0637698
1.78 -0.0777571
1.79 -0.0893501
1.8 -0.0983866
1.81 -0.10408
1.82 -0.106809
1.83 -0.106359
1.84 -0.103116
1.85 -0.0976121
1.86 -0.0903125
1.87 -0.082153
1.88 -0.0738933
1.89 -0.0664197
1.9 -0.0605181
1.91 -0.0570376
1.92 -0.0562367
1.93 -0.0589927
1.94 -0.0648974
1.95 -0.0741251
1.96 -0.0861611
1.97 -0.100313
1.98 -0.11585
1.99 -0.131646
2 -0.146559
2.01 -0.159483
2.02 -0.16932
2.03 -0.174838
2.04 -0.175724
2.05 -0.170469
2.06 -0.159635
2.07 -0.142603
2.08 -0.119765
2.09 -0.0917782
2.1 -0.0588613
2.11 -0.022452
2.12 0.0169119
2.13 0.0579359
2.14 0.0997536
2.15 0.141434
2.16 0.18235
2.17 0.221769
2.18 0.259614
2.19 0.295649
2.2 0.330045
2.21 0.363124
2.22 0.395179
2.23 0.426749
2.24 0.458193
2.25 0.489836
2.26 0.52181
2.27 0.554032
2.28 0.586174
2.29 0.61751
2.3 0.647274
2.31 0.674206
2.32 0.696974
2.33 0.714463
2.34 0.724473
2.35 0.726713
2.36 0.718908
2.37 0.701068
2.38 0.672494
2.39 0.632728
2.4 0.583297
2.41 0.523606
2.42 0.456553
2.43 0.383215
2.44 0.306071
2.45 0.22744
2.46 0.14996
2.47 0.0757541
2.48 0.0076328
2.49 -0.0529603
2.5 -0.104434
2.51 -0.145343
2.52 -0.176383
2.53 -0.196057
2.54 -0.206773
2.55 -0.208916
2.56 -0.204527
2.57 -0.195702
2.58 -0.184417
2.59 -0.173046
2.6 -0.163753
2.61 -0.158204
2.62 -0.157813
2.63 -0.163816
2.64 -0.175924
2.65 -0.195018
2.66 -0.219398
2.67 -0.248444
2.68 -0.280402
2.69 -0.313541
2.7 -0.34586
2.71 -0.375744
2.72 -0.40112
2.73 -0.42101
2.74 -0.43443
2.75 -0.440659
2.76 -0.440532
2.77 -0.433692
2.78 -0.422242
2.79 -0.407245
2.8 -0.390744
2.81 -0.374589
2.82 -0.361043
2.83 -0.351455
2.84 -0.34794
2.85 -0.351064
2.86 -0.361501
2.87 -0.379526
2.88 -0.403834
2.89 -0.434195
2.9 -0.468125
2.91 -0.504022
2.92 -0.539482
2.93 -0.57248
2.94 -0.600319
2.95 -0.621933
2.96 -0.634974
2.97 -0.639281
2.98 -0.63441
2.99 -0.620415
3 -0.599137
3.01 -0.571155
3.02 -0.539483
3.03 -0.506109
3.04 -0.4738
3.05 -0.444785
3.06 -0.422029
3.07 -0.406493
3.08 -0.400582
3.09 -0.404191
3.1 -0.417544
3.11 -0.440269
3.12 -0.470194
3.13 -0.506354
3.14 -0.54552
3.15 -0.585433
3.16 -0.623235
3.17 -0.656757
3.18 -0.683094
3.19 -0.701682
3.2 -0.710491
3.21 -0.710189
3.22 -0.701147
3.23 -0.68451
3.24 -0.662864
3.25 -0.638258
3.26 -0.613972
3.27 -0.592959
3.28 -0.578219
3.29 -0.571757
3.3 -0.576712
3.31 -0.592709
3.32 -0.621565
3.33 -0.661523
3.34 -0.711365
3.35 -0.768847
3.36 -0.83042
3.37 -0.892694
3.38 -0.951789
3.39 -1.00373
3.4 -1.04499
3.41 -1.0735
3.42 -1.08559
3.43 -1.08254
3.44 -1.0626
3.45 -1.02871
3.46 -0.982999
3.47 -0.928907
3.48 -0.871134
3.49 -0.814446
3.5 -0.763423
3.51 -0.722943
3.52 -0.696765
3.53 -0.686636
3.54 -0.695742
3.55 -0.721103
3.56 -0.762461
3.57 -0.8141
3.58 -0.870626
3.59 -0.923888
3.6 -0.966383
3.61 -0.985369
3.62 -0.974486
3.63 -0.921657
3.64 -0.818564
3.65 -0.660992
3.66 -0.436865
3.67 -0.152395
3.68 0.200392
3.69 0.612394
3.7 1.07899
3.71 1.59235
3.72 2.13706
3.73 2.70238
3.74 3.26968
3.75 3.82268
3.76 4.34324
3.77 4.81766
3.78 5.22303
3.79 5.55562
3.8 5.79405
3.81 5.93805
3.82 5.98144
3.83 5.91872
3.84 5.7632
3.85 5.50604
3.86 5.17097
3.87 4.76255
3.88 4.29756
3.89 3.79271
3.9 3.26189
3.91 2.72379
3.92 2.1937
3.93 1.68557
3.94 1.21134
3.95 0.783522
3.96 0.403906
3.97 0.0859005
3.98 -0.177499
3.99 -0.382108
4 -0.532574
4.01 -0.636041
4.02 -0.694584
4.03 -0.72128
4.04 -0.720379
4.05 -0.702619
4.06 -0.674882
4.07 -0.64435
4.08 -0.616468
4.09 -0.596694
4.1 -0.586771
4.11 -0.589009
4.12 -0.603245
4.13 -0.627898
4.14 -0.661765
4.15 -0.700946
4.16 -0.742696
4.17 -0.783232
4.18 -0.819409
4.19 -0.847727
4.2 -0.866807
4.21 -0.873066
4.22 -0.867307
4.23 -0.84817
4.24 -0.816379
4.25 -0.773449
4.26 -0.719762
4.27 -0.658426
4.28 -0.590458
4.29 -0.518423
4.3 -0.443933
4.31 -0.368596
4.32 -0.293598
4.33 -0.21997
4.34 -0.147996
4.35 -0.0779754
4.36 -0.00976028
4.37 0.0569775
4.38 0.122438
4.39 0.187056
4.4 0.250859
4.41 0.313813
4.42 0.37554
4.43 0.435199
4.44 0.492093
4.45 0.544271
4.46 0.59089
4.47 0.629844
4.48 0.659499
4.49 0.678886
4.5 0.68527
4.51 0.679412
4.52 0.659051
4.53 0.625273
4.54 0.578219
4.55 0.518311
4.56 0.448164
4.57 0.368154
4.58 0.281853
4.59 0.191065
4.6 0.0986055
4.61 0.00682882
4.62 -0.0815077
4.63 -0.164898
4.64 -0.240891
4.65 -0.308775
4.66 -0.367664
4.67 -0.416802
4.68 -0.457353
4.69 -0.488543
4.7 -0.512635
4.71 -0.530188
4.72 -0.542826
4.73 -0.552108
4.74 -0.559254
4.75 -0.565767
4.76 -0.572711
4.77 -0.580925
4.78 -0.590956
4.79 -0.603195
4.8 -0.617409
4.81 -0.633652
4.82 -0.651197
4.83 -0.669594
4.84 -0.688125
4.85 -0.706182
4.86 -0.723016
4.87 -0.738306
4.88 -0.751451
4.89 -0.762397
4.9 -0.77105
4.91 -0.777402
4.92 -0.781891
4.93 -0.784568
4.94 -0.786069
4.95 -0.786691
4.96 -0.786883
4.97 -0.786993
4.98 -0.787348
4.99 -0.788122
5 -0.789518
5.01 -0.791554
5.02 -0.794253
5.03 -0.797617
5.04 -0.801541
5.05 -0.806081
5.06 -0.811141
5.07 -0.816786
5.08 -0.823059
5.09 -0.829985
5.1 -0.837705
5.11 -0.846122
5.12 -0.855246
5.13 -0.864802
5.14 -0.874432
5.15 -0.883466
5.16 -0.891205
5.17 -0.896179
5.18 -0.897419
5.19 -0.89306
5.2 -0.881321
5.21 -0.860908
5.22 -0.828694
5.23 -0.784625
5.24 -0.725586
5.25 -0.651628
5.26 -0.561917
5.27 -0.455633
5.28 -0.335065
5.29 -0.199325
5.3 -0.052586
5.31 0.103387
5.32 0.264722
5.33 0.42754
5.34 0.587024
5.35 0.739254
5.36 0.87841
5.37 1.00089
5.38 1.10259
5.39 1.17858
5.4 1.22906
5.41 1.24765
5.42 1.23791
5.43 1.19759
5.44 1.12859
5.45 1.03444
5.46 0.915716
5.47 0.779433
5.48 0.628005
5.49 0.467732
5.5 0.303198
5.51 0.139707
5.52 -0.0186683
5.53 -0.166378
5.54 -0.301458
5.55 -0.420233
5.56 -0.521042
5.57 -0.603983
5.58 -0.666852
5.59 -0.713046
5.6 -0.741877
5.61 -0.756781
5.62 -0.759744
5.63 -0.752978
5.64 -0.739787
5.65 -0.721769
5.66 -0.701629
5.67 -0.680765
5.68 -0.660416
5.69 -0.641115
5.7 -0.623101
5.71 -0.605846
5.72 -0.588657
5.73 -0.570458
5.74 -0.550135
5.75 -0.526273
5.76 -0.4983
5.77 -0.464634
5.78 -0.425633
5.79 -0.380845
5.8 -0.330871
5.81 -0.276832
5.82 -0.219803
5.83 -0.161841
5.84 -0.104937
5.85 -0.0512691
5.86 -0.00294328
5.87 0.0374496
5.88 0.0690884
5.89 0.0888338
5.9 0.0973
5.91 0.0930379
5.92 0.0762882
5.93 0.0482221
5.94 0.00867796
5.95 -0.0393875
5.96 -0.0951809
5.97 -0.155969
5.98 -0.219823
5.99 -0.284569
6 -0.34837
6.01 -0.409186
6.02 -0.466122
6.03 -0.517972
6.04 -0.564299
6.05 -0.605338
6.06 -0.640806
6.07 -0.672056
6.08 -0.699446
6.09 -0.724324
6.1 -0.747627
6.11 -0.770347
6.12 -0.793273
6.13 -0.817085
6.14 -0.841949
6.15 -0.867938
6.16 -0.894706
6.17 -0.92171
6.18 -0.948119
6.19 -0.973192
6.2 -0.995825
6.21 -1.01536
6.22 -1.03114
6.23 -1.04251
6.24 -1.04982
6.25 -1.05263
6.26 -1.05204
6.27 -1.04855
6.28 -1.04326
6.29 -1.03723
6.3 -1.03156
6.31 -1.02702
6.32 -1.02433
6.33 -1.02339
6.34 -1.02377
6.35 -1.02417
6.36 -1.02288
6.37 -1.01659
6.38 -1.00262
6.39 -0.976475
6.4 -0.933579
6.41 -0.87065
6.42 -0.779937
6.43 -0.661065
6.44 -0.506441
6.45 -0.315787
6.46 -0.0869788
6.47 0.182509
6.48 0.487412
6.49 0.830598
6.5 1.20254
6.51 1.59981
6.52 2.01399
6.53 2.43626
6.54 2.85649
6.55 3.26509
6.56 3.64941
6.57 4.00033
6.58 4.30813
6.59 4.5605
6.6 4.75648
6.61 4.88
6.62 4.93693
6.63 4.92002
6.64 4.83072
6.65 4.67533
6.66 4.45096
6.67 4.1732
6.68 3.84367
6.69 3.47626
6.7 3.08027
6.71 2.6663
6.72 2.24613
6.73 1.83058
6.74 1.42871
6.75 1.05001
6.76 0.701944
6.77 0.387953
6.78 0.116792
6.79 -0.115232
6.8 -0.302506
6.81 -0.449508
6.82 -0.558028
6.83 -0.629896
6.84 -0.672945
6.85 -0.687895
6.86 -0.68363
6.87 -0.663506
6.88 -0.632916
6.89 -0.596343
6.9 -0.557227
6.91 -0.518681
6.92 -0.482995
6.93 -0.451377
6.94 -0.424491
6.95 -0.402673
6.96 -0.385025
6.97 -0.371439
6.98 -0.36051
6.99 -0.351615
7 -0.343934
7.01 -0.336942
7.02 -0.330504
7.03 -0.324686
7.04 -0.320076
7.05 -0.317399
7.06 -0.317621
7.07 -0.322165
7.08 -0.331612
7.09 -0.34796
7.1 -0.371121
7.11 -0.402151
7.12 -0.441098
7.13 -0.487244
7.14 -0.540628
7.15 -0.599127
7.16 -0.661752
7.17 -0.726222
7.18 -0.790608
7.19 -0.852507
7.2 -0.910304
7.21 -0.961202
7.22 -1.00457
7.23 -1.03871
7.24 -1.06304
7.25 -1.07803
7.26 -1.083
7.27 -1.08021
7.28 -1.07011
7.29 -1.05505
7.3 -1.03679
7.31 -1.01736
7.32 -0.998616
7.33 -0.982533
7.34 -0.970021
7.35 -0.962116
7.36 -0.95898
7.37 -0.959965
7.38 -0.964396
7.39 -0.970242
7.4 -0.975444
7.41 -0.977381
7.42 -0.973399
7.43 -0.959939
7.44 -0.935489
7.45 -0.895394
7.46 -0.839659
7.47 -0.765601
7.48 -0.672589
7.49 -0.561722
7.5 -0.43171
7.51 -0.286777
7.52 -0.12761
7.53 0.041384
7.54 0.216745
7.55 0.394117
7.56 0.569237
7.57 0.736636
7.58 0.892938
7.59 1.0333
7.6 1.15397
7.61 1.25336
7.62 1.32613
7.63 1.3745
7.64 1.39464
7.65 1.38882
7.66 1.35773
7.67 1.30181
7.68 1.22583
7.69 1.12967
7.7 1.01919
7.71 0.896602
7.72 0.765891
7.73 0.630741
7.74 0.494508
7.75 0.360401
7.76 0.231722
7.77 0.110766
7.78 -0.000363486
7.79 -0.0991158
7.8 -0.185592
7.81 -0.256701
7.82 -0.313913
7.83 -0.355958
7.84 -0.383167
7.85 -0.396842
7.86 -0.396137
7.87 -0.384023
7.88 -0.360403
7.89 -0.327727
7.9 -0.287555
7.91 -0.241595
7.92 -0.192328
7.93 -0.141617
7.94 -0.0918326
7.95 -0.0451469
7.96 -0.00379192
7.97 0.0307889
7.98 0.0557468
7.99 0.0710271
8 0.0742695
8.01 0.0656362
8.02 0.0448189
8.03 0.0113666
8.04 -0.0327253
8.05 -0.087923
8.06 -0.151229
8.07 -0.221461
8.08 -0.296268
8.09 -0.373346
8.1 -0.450386
8.11 -0.525317
8.12 -0.595828
8.13 -0.660506
8.14 -0.718136
8.15 -0.767419
8.16 -0.808991
8.17 -0.841818
8.18 -0.867722
8.19 -0.887213
8.2 -0.90184
8.21 -0.913299
8.22 -0.923007
8.23 -0.932614
8.24 -0.94337
8.25 -0.956039
8.26 -0.970899
8.27 -0.9877
8.28 -1.00532
8.29 -1.02197
8.3 -1.03541
8.31 -1.04251
8.32 -1.03964
8.33 -1.02406
8.34 -0.989764
8.35 -0.935811
8.36 -0.856271
8.37 -0.750119
8.38 -0.615379
8.39 -0.449285
8.4 -0.255385
8.41 -0.0306766
8.42 0.218189
8.43 0.489317
8.44 0.777099
8.45 1.07513
8.46 1.37695
8.47 1.67505
8.48 1.96102
8.49 2.22774
8.5 2.4683
8.51 2.67363
8.52 2.84232
8.53 2.96314
8.54 3.03895
8.55 3.06449
8.56 3.03972
8.57 2.96868
8.58 2.84822
8.59 2.68887
8.6 2.49093
8.61 2.26344
8.62 2.0125
8.63 1.74465
8.64 1.4683
8.65 1.18998
8.66 0.916619
8.67 0.65437
8.68 0.40875
8.69 0.182529
8.7 -0.0181787
8.71 -0.194985
8.72 -0.34396
8.73 -0.467237
8.74 -0.565716
8.75 -0.640031
8.76 -0.695128
8.77 -0.731237
8.78 -0.754086
8.79 -0.76592
8.8 -0.770364
8.81 -0.770621
8.82 -0.769213
8.83 -0.768503
8.84 -0.770363
8.85 -0.775867
8.86 -0.785657
8.87 -0.800197
8.88 -0.81874
8.89 -0.841256
8.9 -0.866355
8.91 -0.893222
8.92 -0.920642
8.93 -0.947599
8.94 -0.972907
8.95 -0.99602
8.96 -1.01606
8.97 -1.03288
8.98 -1.04639
8.99 -1.05659
9 -1.06417
9.01 -1.06934
9.02 -1.07309
9.03 -1.07601
9.04 -1.07887
9.05 -1.08225
9.06 -1.08676
9.07 -1.09254
9.08 -1.09979
9.09 -1.10819
9.1 -1.11731
9.11 -1.12639
9.12 -1.13457
9.13 -1.14042
9.14 -1.14299
9.15 -1.14075
9.16 -1.13233
9.17 -1.11703
9.18 -1.09276
9.19 -1.06004
9.2 -1.01733
9.21 -0.965246
9.22 -0.90406
9.23 -0.834033
9.24 -0.757176
9.25 -0.67409
9.26 -0.587435
9.27 -0.498999
9.28 -0.411283
9.29 -0.326387
9.3 -0.247384
9.31 -0.175583
9.32 -0.113938
9.33 -0.0634879
9.34 -0.0254337
9.35 -0.00141943
9.36 0.00985516
9.37 0.00661814
9.38 -0.00849814
9.39 -0.0351505
9.4 -0.0714686
9.41 -0.115044
9.42 -0.164298
9.43 -0.216201
9.44 -0.268663
9.45 -0.319303
9.46 -0.366244
9.47 -0.40736
9.48 -0.442118
9.49 -0.468555
9.5 -0.487375
9.51 -0.498147
9.52 -0.501532
9.53 -0.49887
9.54 -0.490824
9.55 -0.479589
9.56 -0.466462
9.57 -0.453308
9.58 -0.441593
9.59 -0.432958
9.6 -0.428084
9.61 -0.428468
9.62 -0.433877
9.63 -0.44474
9.64 -0.460729
9.65 -0.480996
9.66 -0.505182
9.67 -0.531805
9.68 -0.560088
9.69 -0.588843
9.7 -0.617212
9.71 -0.644347
9.72 -0.669925
9.73 -0.693435
9.74 -0.715176
9.75 -0.735291
9.76 -0.754286
9.77 -0.772743
9.78 -0.791233
9.79 -0.810178
9.8 -0.829847
9.81 -0.850033
9.82 -0.870174
9.83 -0.888984
9.84 -0.905038
9.85 -0.915292
9.86 -0.91756
9.87 -0.907986
9.88 -0.882519
9.89 -0.838594
9.9 -0.769114
9.91 -0.673989
9.92 -0.546552
9.93 -0.386123
9.94 -0.19095
9.95 0.0420601
9.96 0.308306
9.97 0.611155
9.98 0.942826
9.99 1.30102
10 1.6794
10.01 2.07044
10.02 2.46696
10.03 2.8601
10.04 3.24036
10.05 3.59928
10.06 3.92887
10.07 4.2183
10.08 4.46562
10.09 4.65754
10.1 4.79658
10.11 4.87626
10.12 4.89546
10.13 4.85858
10.14 4.76043
10.15 4.61307
10.16 4.41565
10.17 4.17804
10.18 3.90685
10.19 3.60854
10.2 3.29341
10.21 2.96765
10.22 2.64026
10.23 2.31797
10.24 2.0076
10.25 1.71317
10.26 1.44175
10.27 1.19308
10.28 0.971956
10.29 0.777392
10.3 0.609166
10.31 0.467701
10.32 0.348262
10.33 0.251562
10.34 0.171794
10.35 0.107066
10.36 0.0537969
10.37 0.00836129
10.38 -0.0315777
10.39 -0.0693346
10.4 -0.106971
10.41 -0.146423
10.42 -0.188971
10.43 -0.235853
10.44 -0.287027
10.45 -0.343274
10.46 -0.403688
10.47 -0.468013
10.48 -0.535372
10.49 -0.604687
10.5 -0.674967
10.51 -0.744959
10.52 -0.813396
10.53 -0.879137
10.54 -0.94112
10.55 -0.997895
10.56 -1.04915
10.57 -1.09306
10.58 -1.12978
10.59 -1.15826
10.6 -1.17804
10.61 -1.18948
10.62 -1.19132
10.63 -1.18503
10.64 -1.16993
10.65 -1.14711
10.66 -1.11725
10.67 -1.08085
10.68 -1.03959
10.69 -0.993958
10.7 -0.945769
10.71 -0.896099
10.72 -0.846382
10.73 -0.797778
10.74 -0.751828
10.75 -0.709209
10.76 -0.671297
10.77 -0.638591
10.78 -0.611614
10.79 -0.591158
10.8 -0.576642
10.81 -0.568982
10.82 -0.567127
10.83 -0.571148
10.84 -0.580549
10.85 -0.594497
10.86 -0.612978
10.87 -0.634806
10.88 -0.659823
10.89 -0.687278
10.9 -0.716726
10.91 -0.74783
10.92 -0.780064
10.93 -0.813233
10.94 -0.846908
10.95 -0.880826
10.96 -0.914636
10.97 -0.948032
10.98 -0.980513
10.99 -1.0118
11 -1.04127
11.01 -1.06855
11.02 -1.09318
11.03 -1.1145
11.04 -1.13254
11.05 -1.14646
11.06 -1.15664
11.07 -1.16283
11.08 -1.16525
11.09 -1.16449
11.1 -1.16073
11.11 -1.15506
11.12 -1.14805
11.13 -1.14066
11.14 -1.13366
11.15 -1.12784
11.16 -1.12354
11.17 -1.12126
11.18 -1.12062
11.19 -1.12122
11.2 -1.12202
11.21 -1.12173
11.22 -1.11805
11.23 -1.10931
11.24 -1.09225
11.25 -1.06449
11.26 -1.02343
11.27 -0.965082
11.28 -0.889118
11.29 -0.790438
11.3 -0.670318
11.31 -0.526578
11.32 -0.359263
11.33 -0.170853
11.34 0.0394241
11.35 0.265725
11.36 0.506133
11.37 0.754937
11.38 1.00724
11.39 1.25689
11.4 1.49872
11.41 1.72486
11.42 1.93139
11.43 2.11191
11.44 2.26131
11.45 2.37832
11.46 2.45519
11.47 2.49602
11.48 2.49596
11.49 2.45839
11.5 2.38525
11.51 2.2774
11.52 2.14232
11.53 1.9808
11.54 1.80122
11.55 1.60756
11.56 1.40575
11.57 1.20108
11.58 0.998761
11.59 0.802622
11.6 0.617123
11.61 0.444594
11.62 0.286836
11.63 0.146171
11.64 0.0209692
11.65 -0.086787
11.66 -0.180281
11.67 -0.26008
11.68 -0.32825
11.69 -0.387511
11.7 -0.439098
11.71 -0.486103
11.72 -0.529899
11.73 -0.572347
11.74 -0.614572
11.75 -0.65743
11.76 -0.70116
11.77 -0.745785
11.78 -0.790685
11.79 -0.835049
11.8 -0.877632
11.81 -0.917343
11.82 -0.95207
11.83 -0.981045
11.84 -1.00202
11.85 -1.01401
11.86 -1.01586
11.87 -1.00566
11.88 -0.984001
11.89 -0.948439
11.9 -0.900339
11.91 -0.83886
11.92 -0.764246
11.93 -0.6779
11.94 -0.579074
11.95 -0.470572
11.96 -0.352592
11.97 -0.227389
11.98 -0.0966873
11.99 0.0376252
12 0.173122
12.01 0.307392
12.02 0.438112
12.03 0.562657
12.04 0.678312
12.05 0.783554
12.06 0.874333
12.07 0.950786
12.08 1.00948
12.09 1.05017
12.1 1.07218
12.11 1.07385
12.12 1.05769
12.13 1.02178
12.14 0.969808
12.15 0.902501
12.16 0.822256
12.17 0.732321
12.18 0.634556
12.19 0.532914
12.2 0.42994
12.21 0.328678
12.22 0.231487
12.23 0.141107
12.24 0.0583243
12.25 -0.0143845
12.26 -0.0776458
12.27 -0.130875
12.28 -0.174663
12.29 -0.210648
12.3 -0.239418
12.31 -0.263731
12.32 -0.285064
12.33 -0.305712
12.34 -0.327442
12.35 -0.352192
12.36 -0.380798
12.37 -0.41477
12.38 -0.453751
12.39 -0.497774
12.4 -0.545919
