# xPDFsuite Configuration #
[PDF]
wavelength = 0.1432
dataformat = twotheta
inputfile = 1_1Pd_CeO2_cycle-00139.chi
backgroundfile = background-00000.chi
mode = xray
bgscale = 1.007
composition = CeO2
outputtype = gr
qmaxinst = 28.8974762299
qmin = 0.5
qmax = 27.9
rmax = 50.0
rmin = 0.0
rstep = 0.01
rpoly = 1.8657

[Misc]
inputdir = G:/SankarDec16/1Pd/Chi
savedir = D:/DATA/APS_CeO2/1Pd
backgroundfilefull = G:/SankarDec16/Background/background-00000.chi

#### start data
#S 1
#L r($\AA$)  G($\AA^{-2}$)
0 0
0.01 -0.0059499
0.02 -0.0114512
0.03 -0.0160422
0.04 -0.0193749
0.05 -0.0212559
0.06 -0.0213743
0.07 -0.0199373
0.08 -0.0168456
0.09 -0.0124946
0.1 -0.00715844
0.11 -0.00125633
0.12 0.00475485
0.13 0.0103623
0.14 0.0152031
0.15 0.0188329
0.16 0.0209917
0.17 0.0215762
0.18 0.020375
0.19 0.0176935
0.2 0.0135444
0.21 0.00838961
0.22 0.00257029
0.23 -0.00344274
0.24 -0.00921965
0.25 -0.014208
0.26 -0.018148
0.27 -0.0206342
0.28 -0.0215071
0.29 -0.0207586
0.3 -0.0182872
0.31 -0.0144818
0.32 -0.00946733
0.33 -0.00374959
0.34 0.00227937
0.35 0.00811941
0.36 0.0133886
0.37 0.0175216
0.38 0.0203741
0.39 0.0215995
0.4 0.0211466
0.41 0.0191032
0.42 0.0154832
0.43 0.0107403
0.44 0.0051059
0.45 -0.000894191
0.46 -0.00683608
0.47 -0.012214
0.48 -0.0167127
0.49 -0.0197811
0.5 -0.0213978
0.51 -0.0212922
0.52 -0.019524
0.53 -0.0162732
0.54 -0.011669
0.55 -0.00620847
0.56 -0.000218476
0.57 0.00578009
0.58 0.0113521
0.59 0.0160102
0.6 0.0195217
0.61 0.0213764
0.62 0.0216773
0.63 0.0202432
0.64 0.0172427
0.65 0.0129396
0.66 0.00757279
0.67 0.00165899
0.68 -0.00439497
0.69 -0.010098
0.7 -0.0150247
0.71 -0.0187298
0.72 -0.0210744
0.73 -0.0216138
0.74 -0.0205709
0.75 -0.0178624
0.76 -0.0137576
0.77 -0.00859109
0.78 -0.00269905
0.79 0.00340759
0.8 0.00926338
0.81 0.0144313
0.82 0.0185183
0.83 0.0211435
0.84 0.0222696
0.85 0.0215412
0.86 0.0192887
0.87 0.0155314
0.88 0.0106243
0.89 0.00495375
0.9 -0.00106661
0.91 -0.0069621
0.92 -0.0122393
0.93 -0.0165443
0.94 -0.0195456
0.95 -0.0209594
0.96 -0.020858
0.97 -0.0190171
0.98 -0.0158604
0.99 -0.0115288
1 -0.00645565
1.01 -0.00106434
1.02 0.00415479
1.03 0.00880048
1.04 0.0123617
1.05 0.014604
1.06 0.0152839
1.07 0.0142472
1.08 0.0117054
1.09 0.00760762
1.1 0.00249442
1.11 -0.00332758
1.12 -0.00931153
1.13 -0.0149685
1.14 -0.0196643
1.15 -0.0230658
1.16 -0.0245603
1.17 -0.0240198
1.18 -0.0212368
1.19 -0.0161261
1.2 -0.00905394
1.21 -2.74439e-05
1.22 0.0102267
1.23 0.0212932
1.24 0.032481
1.25 0.0431867
1.26 0.0526228
1.27 0.0603905
1.28 0.0657153
1.29 0.0684189
1.3 0.0681939
1.31 0.0648378
1.32 0.0587274
1.33 0.0496477
1.34 0.0384095
1.35 0.0252761
1.36 0.0109172
1.37 -0.00405268
1.38 -0.0189788
1.39 -0.0332953
1.4 -0.0463301
1.41 -0.0577162
1.42 -0.0670615
1.43 -0.074014
1.44 -0.0786937
1.45 -0.0806846
1.46 -0.0804749
1.47 -0.078017
1.48 -0.0736368
1.49 -0.0676707
1.5 -0.0602998
1.51 -0.051995
1.52 -0.0429397
1.53 -0.0334774
1.54 -0.0238156
1.55 -0.0141636
1.56 -0.00466477
1.57 0.00450012
1.58 0.013267
1.59 0.0214908
1.6 0.0290702
1.61 0.0359224
1.62 0.0418182
1.63 0.0467416
1.64 0.0503888
1.65 0.0527079
1.66 0.0535169
1.67 0.0526151
1.68 0.0500907
1.69 0.0456171
1.7 0.0395122
1.71 0.0317175
1.72 0.0224799
1.73 0.0120959
1.74 0.000818695
1.75 -0.0108759
1.76 -0.0226028
1.77 -0.033922
1.78 -0.0444434
1.79 -0.0537481
1.8 -0.0617127
1.81 -0.0679049
1.82 -0.0725327
1.83 -0.0755109
1.84 -0.0770928
1.85 -0.0776119
1.86 -0.077404
1.87 -0.0769934
1.88 -0.0768682
1.89 -0.0774911
1.9 -0.0792782
1.91 -0.0826363
1.92 -0.0875889
1.93 -0.0944696
1.94 -0.102874
1.95 -0.112663
1.96 -0.123311
1.97 -0.134242
1.98 -0.144688
1.99 -0.153994
2 -0.161171
2.01 -0.165639
2.02 -0.166704
2.03 -0.163646
2.04 -0.156554
2.05 -0.144534
2.06 -0.128347
2.07 -0.107817
2.08 -0.0835128
2.09 -0.0561017
2.1 -0.0260057
2.11 0.00575341
2.12 0.038648
2.13 0.0719036
2.14 0.105021
2.15 0.137566
2.16 0.169408
2.17 0.20041
2.18 0.230864
2.19 0.261044
2.2 0.291437
2.21 0.322498
2.22 0.354868
2.23 0.388777
2.24 0.424725
2.25 0.462587
2.26 0.502217
2.27 0.543117
2.28 0.584429
2.29 0.624933
2.3 0.663371
2.31 0.697975
2.32 0.727002
2.33 0.749099
2.34 0.761623
2.35 0.764449
2.36 0.755039
2.37 0.733722
2.38 0.69996
2.39 0.653579
2.4 0.596596
2.41 0.528752
2.42 0.453485
2.43 0.372307
2.44 0.288138
2.45 0.203596
2.46 0.121776
2.47 0.0447857
2.48 -0.0242398
2.49 -0.0840201
2.5 -0.133011
2.51 -0.169904
2.52 -0.195783
2.53 -0.209316
2.54 -0.213407
2.55 -0.208755
2.56 -0.1978
2.57 -0.182936
2.58 -0.16653
2.59 -0.151058
2.6 -0.138995
2.61 -0.131981
2.62 -0.13147
2.63 -0.138682
2.64 -0.153082
2.65 -0.175525
2.66 -0.20394
2.67 -0.237526
2.68 -0.274244
2.69 -0.312125
2.7 -0.348907
2.71 -0.382824
2.72 -0.411584
2.73 -0.434153
2.74 -0.449473
2.75 -0.456781
2.76 -0.457021
2.77 -0.449798
2.78 -0.437417
2.79 -0.421005
2.8 -0.402752
2.81 -0.384637
2.82 -0.369032
2.83 -0.357391
2.84 -0.351913
2.85 -0.353212
2.86 -0.361992
2.87 -0.378541
2.88 -0.401525
2.89 -0.430706
2.9 -0.463541
2.91 -0.4984
2.92 -0.532838
2.93 -0.564804
2.94 -0.591584
2.95 -0.612119
2.96 -0.624081
2.97 -0.627349
2.98 -0.621528
2.99 -0.606748
3 -0.584899
3.01 -0.556675
3.02 -0.525109
3.03 -0.492277
3.04 -0.460973
3.05 -0.433423
3.06 -0.412633
3.07 -0.399466
3.08 -0.39632
3.09 -0.402966
3.1 -0.419534
3.11 -0.445524
3.12 -0.478642
3.13 -0.517755
3.14 -0.559539
3.15 -0.601585
3.16 -0.640938
3.17 -0.675382
3.18 -0.701883
3.19 -0.719956
3.2 -0.727494
3.21 -0.725277
3.22 -0.713733
3.23 -0.694098
3.24 -0.669121
3.25 -0.64096
3.26 -0.613074
3.27 -0.588568
3.28 -0.570601
3.29 -0.561294
3.3 -0.563966
3.31 -0.578259
3.32 -0.606145
3.33 -0.645838
3.34 -0.696138
3.35 -0.7548
3.36 -0.818142
3.37 -0.882767
3.38 -0.944591
3.39 -0.999531
3.4 -1.0439
3.41 -1.07546
3.42 -1.09034
3.43 -1.08974
3.44 -1.07167
3.45 -1.03903
3.46 -0.993841
3.47 -0.939452
3.48 -0.880637
3.49 -0.822061
3.5 -0.768495
3.51 -0.724863
3.52 -0.695092
3.53 -0.681108
3.54 -0.686295
3.55 -0.70788
3.56 -0.745857
3.57 -0.794694
3.58 -0.849193
3.59 -0.901422
3.6 -0.943892
3.61 -0.964126
3.62 -0.955609
3.63 -0.906338
3.64 -0.807872
3.65 -0.655813
3.66 -0.437958
3.67 -0.160186
3.68 0.185714
3.69 0.590975
3.7 1.05127
3.71 1.55913
3.72 2.09932
3.73 2.66153
3.74 3.22712
3.75 3.78006
3.76 4.30222
3.77 4.77981
3.78 5.18995
3.79 5.52854
3.8 5.77407
3.81 5.92586
3.82 5.97738
3.83 5.92274
3.84 5.77487
3.85 5.52445
3.86 5.19499
3.87 4.79066
3.88 4.32804
3.89 3.82381
3.9 3.29162
3.91 2.75046
3.92 2.21558
3.93 1.70135
3.94 1.21997
3.95 0.784364
3.96 0.396762
3.97 0.0710586
3.98 -0.199354
3.99 -0.409827
4 -0.564655
4.01 -0.670802
4.02 -0.729943
4.03 -0.755357
4.04 -0.751086
4.05 -0.728201
4.06 -0.693792
4.07 -0.655359
4.08 -0.618857
4.09 -0.590162
4.1 -0.571557
4.11 -0.565858
4.12 -0.573386
4.13 -0.592868
4.14 -0.623648
4.15 -0.661754
4.16 -0.704815
4.17 -0.748819
4.18 -0.790518
4.19 -0.8262
4.2 -0.853959
4.21 -0.869904
4.22 -0.874176
4.23 -0.864903
4.24 -0.842215
4.25 -0.807186
4.26 -0.759536
4.27 -0.702267
4.28 -0.635863
4.29 -0.562963
4.3 -0.485142
4.31 -0.404062
4.32 -0.321409
4.33 -0.238343
4.34 -0.155892
4.35 -0.0748159
4.36 0.00437105
4.37 0.0814483
4.38 0.155884
4.39 0.227806
4.4 0.29658
4.41 0.362053
4.42 0.423647
4.43 0.480383
4.44 0.531969
4.45 0.576366
4.46 0.613483
4.47 0.641562
4.48 0.659634
4.49 0.667339
4.5 0.662667
4.51 0.646876
4.52 0.618436
4.53 0.57875
4.54 0.528311
4.55 0.46787
4.56 0.39978
4.57 0.324717
4.58 0.245574
4.59 0.163956
4.6 0.0820755
4.61 0.00167229
4.62 -0.0751439
4.63 -0.147509
4.64 -0.213699
4.65 -0.273486
4.66 -0.326451
4.67 -0.372312
4.68 -0.41213
4.69 -0.445592
4.7 -0.474406
4.71 -0.499064
4.72 -0.520683
4.73 -0.540238
4.74 -0.558391
4.75 -0.575918
4.76 -0.593175
4.77 -0.610396
4.78 -0.627575
4.79 -0.644505
4.8 -0.660918
4.81 -0.676257
4.82 -0.690234
4.83 -0.702328
4.84 -0.712229
4.85 -0.719872
4.86 -0.724957
4.87 -0.727969
4.88 -0.728976
4.89 -0.728641
4.9 -0.727507
4.91 -0.726282
4.92 -0.72559
4.93 -0.726252
4.94 -0.728612
4.95 -0.7332
4.96 -0.740198
4.97 -0.749492
4.98 -0.761127
4.99 -0.774422
5 -0.789022
5.01 -0.80414
5.02 -0.819119
5.03 -0.833176
5.04 -0.845843
5.05 -0.856319
5.06 -0.864586
5.07 -0.870323
5.08 -0.873654
5.09 -0.87493
5.1 -0.874368
5.11 -0.872682
5.12 -0.870266
5.13 -0.867651
5.14 -0.865125
5.15 -0.862786
5.16 -0.860428
5.17 -0.857418
5.18 -0.852926
5.19 -0.845561
5.2 -0.833636
5.21 -0.815689
5.22 -0.788699
5.23 -0.75193
5.24 -0.702067
5.25 -0.63844
5.26 -0.559666
5.27 -0.464256
5.28 -0.353954
5.29 -0.227133
5.3 -0.0876803
5.31 0.0631381
5.32 0.221671
5.33 0.384013
5.34 0.545583
5.35 0.701957
5.36 0.847282
5.37 0.977388
5.38 1.08777
5.39 1.17299
5.4 1.23274
5.41 1.26007
5.42 1.2582
5.43 1.22444
5.44 1.16043
5.45 1.06961
5.46 0.952299
5.47 0.815797
5.48 0.662452
5.49 0.498924
5.5 0.330039
5.51 0.161398
5.52 -0.00253969
5.53 -0.155926
5.54 -0.296484
5.55 -0.420278
5.56 -0.525444
5.57 -0.611998
5.58 -0.677575
5.59 -0.725698
5.6 -0.755643
5.61 -0.771021
5.62 -0.773939
5.63 -0.766754
5.64 -0.752946
5.65 -0.734235
5.66 -0.713442
5.67 -0.692037
5.68 -0.671287
5.69 -0.651704
5.7 -0.633481
5.71 -0.616001
5.72 -0.598459
5.73 -0.579672
5.74 -0.558425
5.75 -0.533192
5.76 -0.503403
5.77 -0.467389
5.78 -0.425619
5.79 -0.377693
5.8 -0.324362
5.81 -0.266914
5.82 -0.206647
5.83 -0.145796
5.84 -0.0866164
5.85 -0.0314353
5.86 0.0174905
5.87 0.0574133
5.88 0.087592
5.89 0.104761
5.9 0.109794
5.91 0.101341
5.92 0.0799094
5.93 0.0469498
5.94 0.00262693
5.95 -0.0498189
5.96 -0.109229
5.97 -0.172656
5.98 -0.237968
5.99 -0.302785
6 -0.365377
6.01 -0.423546
6.02 -0.476739
6.03 -0.523882
6.04 -0.56488
6.05 -0.600325
6.06 -0.630347
6.07 -0.656652
6.08 -0.68005
6.09 -0.702149
6.1 -0.724134
6.11 -0.747243
6.12 -0.772128
6.13 -0.799654
6.14 -0.829565
6.15 -0.861768
6.16 -0.895496
6.17 -0.929766
6.18 -0.963241
6.19 -0.994748
6.2 -1.02262
6.21 -1.04588
6.22 -1.06357
6.23 -1.07469
6.24 -1.07976
6.25 -1.07806
6.26 -1.07121
6.27 -1.05985
6.28 -1.04557
6.29 -1.02995
6.3 -1.01466
6.31 -1.00101
6.32 -0.990364
6.33 -0.983072
6.34 -0.979079
6.35 -0.977557
6.36 -0.976654
6.37 -0.973477
6.38 -0.964839
6.39 -0.946159
6.4 -0.912399
6.41 -0.859729
6.42 -0.779887
6.43 -0.671839
6.44 -0.52736
6.45 -0.345642
6.46 -0.12409
6.47 0.14033
6.48 0.442346
6.49 0.78531
6.5 1.15929
6.51 1.56086
6.52 1.98123
6.53 2.41109
6.54 2.83991
6.55 3.25744
6.56 3.65049
6.57 4.0094
6.58 4.32401
6.59 4.58151
6.6 4.78086
6.61 4.90556
6.62 4.96177
6.63 4.94219
6.64 4.84857
6.65 4.68761
6.66 4.45676
6.67 4.17215
6.68 3.83588
6.69 3.4623
6.7 3.06109
6.71 2.64327
6.72 2.22069
6.73 1.80453
6.74 1.40363
6.75 1.02747
6.76 0.683278
6.77 0.374137
6.78 0.108513
6.79 -0.117758
6.8 -0.299456
6.81 -0.441442
6.82 -0.545823
6.83 -0.614762
6.84 -0.656114
6.85 -0.670884
6.86 -0.667714
6.87 -0.649938
6.88 -0.622696
6.89 -0.590158
6.9 -0.555473
6.91 -0.521369
6.92 -0.489781
6.93 -0.461619
6.94 -0.437302
6.95 -0.416916
6.96 -0.399596
6.97 -0.38505
6.98 -0.372133
6.99 -0.360309
7 -0.349028
7.01 -0.33807
7.02 -0.327614
7.03 -0.318042
7.04 -0.310286
7.05 -0.305292
7.06 -0.304207
7.07 -0.308636
7.08 -0.319049
7.09 -0.337545
7.1 -0.363719
7.11 -0.398474
7.12 -0.441533
7.13 -0.491861
7.14 -0.549115
7.15 -0.610905
7.16 -0.675862
7.17 -0.741535
7.18 -0.805839
7.19 -0.866226
7.2 -0.921262
7.21 -0.968083
7.22 -1.00645
7.23 -1.03487
7.24 -1.05315
7.25 -1.06211
7.26 -1.06151
7.27 -1.05391
7.28 -1.04019
7.29 -1.02286
7.3 -1.00387
7.31 -0.985423
7.32 -0.969168
7.33 -0.957188
7.34 -0.949966
7.35 -0.948345
7.36 -0.952097
7.37 -0.96019
7.38 -0.971525
7.39 -0.983738
7.4 -0.994346
7.41 -1.00051
7.42 -0.999379
7.43 -0.987195
7.44 -0.962602
7.45 -0.920804
7.46 -0.86218
7.47 -0.784186
7.48 -0.686526
7.49 -0.570639
7.5 -0.435575
7.51 -0.285877
7.52 -0.12257
7.53 0.0497332
7.54 0.227407
7.55 0.405938
7.56 0.581178
7.57 0.747566
7.58 0.902022
7.59 1.03983
7.6 1.15753
7.61 1.25379
7.62 1.32356
7.63 1.36929
7.64 1.38743
7.65 1.38037
7.66 1.3489
7.67 1.29356
7.68 1.21897
7.69 1.12501
7.7 1.01729
7.71 0.897845
7.72 0.770397
7.73 0.638394
7.74 0.504903
7.75 0.372981
7.76 0.245682
7.77 0.125237
7.78 0.0136945
7.79 -0.0864299
7.8 -0.175059
7.81 -0.249072
7.82 -0.309648
7.83 -0.355334
7.84 -0.386192
7.85 -0.403303
7.86 -0.405538
7.87 -0.395753
7.88 -0.373625
7.89 -0.34158
7.9 -0.301152
7.91 -0.25405
7.92 -0.202948
7.93 -0.149775
7.94 -0.0971846
7.95 -0.0475394
7.96 -0.00332442
7.97 0.0338222
7.98 0.0607915
7.99 0.0774603
8 0.0812876
8.01 0.0724567
8.02 0.0506801
8.03 0.0155637
8.04 -0.0306883
8.05 -0.0884094
8.06 -0.154334
8.07 -0.22706
8.08 -0.30399
8.09 -0.382658
8.1 -0.460495
8.11 -0.535431
8.12 -0.605006
8.13 -0.667894
8.14 -0.722958
8.15 -0.769023
8.16 -0.806981
8.17 -0.83601
8.18 -0.858223
8.19 -0.874401
8.2 -0.886365
8.21 -0.895971
8.22 -0.90493
8.23 -0.914838
8.24 -0.9271
8.25 -0.942338
8.26 -0.960712
8.27 -0.981805
8.28 -1.00417
8.29 -1.02577
8.3 -1.044
8.31 -1.05544
8.32 -1.05612
8.33 -1.04313
8.34 -1.01013
8.35 -0.956242
8.36 -0.875374
8.37 -0.766665
8.38 -0.628279
8.39 -0.457646
8.4 -0.258682
8.41 -0.0286787
8.42 0.225319
8.43 0.501055
8.44 0.792568
8.45 1.09324
8.46 1.39626
8.47 1.69416
8.48 1.97837
8.49 2.24194
8.5 2.47811
8.51 2.67805
8.52 2.84074
8.53 2.95529
8.54 3.02501
8.55 3.04503
8.56 3.01573
8.57 2.94137
8.58 2.81926
8.59 2.65983
8.6 2.46363
8.61 2.23951
8.62 1.9934
8.63 1.73164
8.64 1.46217
8.65 1.19121
8.66 0.925161
8.67 0.669752
8.68 0.430049
8.69 0.208548
8.7 0.0108817
8.71 -0.164507
8.72 -0.313965
8.73 -0.439442
8.74 -0.541692
8.75 -0.621141
8.76 -0.68226
8.77 -0.72495
8.78 -0.754403
8.79 -0.772414
8.8 -0.782137
8.81 -0.78648
8.82 -0.787469
8.83 -0.787514
8.84 -0.788207
8.85 -0.790816
8.86 -0.796147
8.87 -0.804899
8.88 -0.816827
8.89 -0.832288
8.9 -0.850456
8.91 -0.87102
8.92 -0.893284
8.93 -0.916542
8.94 -0.940178
8.95 -0.96357
8.96 -0.986156
8.97 -1.00757
8.98 -1.02753
8.99 -1.04577
9 -1.0624
9.01 -1.07718
9.02 -1.09045
9.03 -1.10219
9.04 -1.11258
9.05 -1.12179
9.06 -1.12975
9.07 -1.13663
9.08 -1.14221
9.09 -1.14638
9.1 -1.14887
9.11 -1.14915
9.12 -1.14702
9.13 -1.14146
9.14 -1.13231
9.15 -1.11868
9.16 -1.09992
9.17 -1.07582
9.18 -1.04512
9.19 -1.00837
9.2 -0.96462
9.21 -0.914357
9.22 -0.857774
9.23 -0.795015
9.24 -0.727427
9.25 -0.655329
9.26 -0.580528
9.27 -0.50421
9.28 -0.428122
9.29 -0.353795
9.3 -0.283486
9.31 -0.218309
9.32 -0.160614
9.33 -0.111442
9.34 -0.0719828
9.35 -0.0438951
9.36 -0.0264618
9.37 -0.0216218
9.38 -0.0275415
9.39 -0.0443905
9.4 -0.0709914
9.41 -0.105485
9.42 -0.147009
9.43 -0.19278
9.44 -0.24124
9.45 -0.290047
9.46 -0.337344
9.47 -0.380988
9.48 -0.419949
9.49 -0.452081
9.5 -0.477396
9.51 -0.494988
9.52 -0.504898
9.53 -0.507997
9.54 -0.504299
9.55 -0.495839
9.56 -0.483463
9.57 -0.469073
9.58 -0.454181
9.59 -0.440535
9.6 -0.429331
9.61 -0.42236
9.62 -0.420058
9.63 -0.423384
9.64 -0.43264
9.65 -0.44741
9.66 -0.468024
9.67 -0.493058
9.68 -0.52219
9.69 -0.554107
9.7 -0.587847
9.71 -0.622388
9.72 -0.656807
9.73 -0.690233
9.74 -0.722219
9.75 -0.752314
9.76 -0.780337
9.77 -0.806406
9.78 -0.830341
9.79 -0.852519
9.8 -0.872724
9.81 -0.890891
9.82 -0.906582
9.83 -0.918693
9.84 -0.926455
9.85 -0.927198
9.86 -0.919535
9.87 -0.900231
9.88 -0.865959
9.89 -0.814641
9.9 -0.739955
9.91 -0.641862
9.92 -0.514186
9.93 -0.3561
9.94 -0.165715
9.95 0.0602599
9.96 0.317899
9.97 0.610969
9.98 0.932505
9.99 1.28086
10 1.65041
10.01 2.03415
10.02 2.42568
10.03 2.81617
10.04 3.19661
10.05 3.55839
10.06 3.89335
10.07 4.19045
10.08 4.44703
10.09 4.64938
10.1 4.7992
10.11 4.88932
10.12 4.91791
10.13 4.88883
10.14 4.79611
10.15 4.65179
10.16 4.45452
10.17 4.21436
10.18 3.93807
10.19 3.63234
10.2 3.30819
10.21 2.97222
10.22 2.63429
10.23 2.30176
10.24 1.9822
10.25 1.68011
10.26 1.40334
10.27 1.15164
10.28 0.93026
10.29 0.738023
10.3 0.574525
10.31 0.439942
10.32 0.328841
10.33 0.24149
10.34 0.171283
10.35 0.115687
10.36 0.0704159
10.37 0.0314081
10.38 -0.00439909
10.39 -0.040278
10.4 -0.0786872
10.41 -0.121319
10.42 -0.169228
10.43 -0.223344
10.44 -0.282931
10.45 -0.348261
10.46 -0.417668
10.47 -0.490243
10.48 -0.564431
10.49 -0.638768
10.5 -0.71156
10.51 -0.781676
10.52 -0.847497
10.53 -0.908189
10.54 -0.962971
10.55 -1.01076
10.56 -1.05196
10.57 -1.0853
10.58 -1.1117
10.59 -1.13077
10.6 -1.14272
10.61 -1.14826
10.62 -1.14683
10.63 -1.13971
10.64 -1.12653
10.65 -1.10807
10.66 -1.08467
10.67 -1.05644
10.68 -1.02433
10.69 -0.988275
10.7 -0.949352
10.71 -0.907993
10.72 -0.865012
10.73 -0.821263
10.74 -0.777672
10.75 -0.735133
10.76 -0.694788
10.77 -0.657529
10.78 -0.624234
10.79 -0.59615
10.8 -0.573393
10.81 -0.557506
10.82 -0.548099
10.83 -0.545869
10.84 -0.55088
10.85 -0.562519
10.86 -0.581317
10.87 -0.605763
10.88 -0.635836
10.89 -0.670294
10.9 -0.708258
10.91 -0.748829
10.92 -0.790767
10.93 -0.833141
10.94 -0.874899
10.95 -0.915116
10.96 -0.952904
10.97 -0.987799
10.98 -1.01876
10.99 -1.04596
11 -1.06868
11.01 -1.08712
11.02 -1.10137
11.03 -1.11139
11.04 -1.11798
11.05 -1.12115
11.06 -1.12189
11.07 -1.12069
11.08 -1.11832
11.09 -1.11552
11.1 -1.11303
11.11 -1.11144
11.12 -1.11142
11.13 -1.1133
11.14 -1.11729
11.15 -1.12352
11.16 -1.1315
11.17 -1.14089
11.18 -1.15065
11.19 -1.15965
11.2 -1.16626
11.21 -1.16905
11.22 -1.16515
11.23 -1.15338
11.24 -1.13039
11.25 -1.09443
11.26 -1.04345
11.27 -0.974117
11.28 -0.88691
11.29 -0.777548
11.3 -0.647975
11.31 -0.496709
11.32 -0.324346
11.33 -0.133499
11.34 0.0760649
11.35 0.299005
11.36 0.533342
11.37 0.773995
11.38 1.01662
11.39 1.25572
11.4 1.48692
11.41 1.70318
11.42 1.90122
11.43 2.0753
11.44 2.22086
11.45 2.33674
11.46 2.41569
11.47 2.46128
11.48 2.46874
11.49 2.44078
11.5 2.37878
11.51 2.28293
11.52 2.1599
11.53 2.00965
11.54 1.83991
11.55 1.65396
11.56 1.45717
11.57 1.25472
11.58 1.05122
11.59 0.851035
11.6 0.658501
11.61 0.476564
11.62 0.307551
11.63 0.154402
11.64 0.0162934
11.65 -0.104022
11.66 -0.209039
11.67 -0.298631
11.68 -0.374267
11.69 -0.438472
11.7 -0.491852
11.71 -0.537893
11.72 -0.577753
11.73 -0.613777
11.74 -0.647496
11.75 -0.680224
11.76 -0.712943
11.77 -0.746256
11.78 -0.780227
11.79 -0.814644
11.8 -0.848829
11.81 -0.881955
11.82 -0.912496
11.83 -0.939481
11.84 -0.960938
11.85 -0.975573
11.86 -0.98201
11.87 -0.978072
11.88 -0.963783
11.89 -0.936358
11.9 -0.896594
11.91 -0.843234
11.92 -0.776074
11.93 -0.696259
11.94 -0.602609
11.95 -0.497957
11.96 -0.382266
11.97 -0.257898
11.98 -0.126673
11.99 0.00944197
12 0.147687
12.01 0.285539
12.02 0.420326
12.03 0.549225
12.04 0.669281
12.05 0.778804
12.06 0.873556
12.07 0.95362
12.08 1.01546
12.09 1.05882
12.1 1.08306
12.11 1.0865
12.12 1.07176
12.13 1.03688
12.14 0.98565
12.15 0.918798
12.16 0.838729
12.17 0.748705
12.18 0.650521
12.19 0.548147
12.2 0.44405
12.21 0.341266
12.22 0.24214
12.23 0.149379
12.24 0.063845
12.25 -0.0119826
12.26 -0.0785988
12.27 -0.135323
12.28 -0.182593
12.29 -0.221907
12.3 -0.253645
12.31 -0.280459
12.32 -0.303622
12.33 -0.325346
12.34 -0.347327
12.35 -0.371401
12.36 -0.398521
12.37 -0.430141
12.38 -0.466118
12.39 -0.506592
