# xPDFsuite Configuration #
[PDF]
wavelength = 0.1432
dataformat = twotheta
inputfile = 1_1Pd_CeO2_cycle-00079.chi
backgroundfile = background-00000.chi
mode = xray
bgscale = 1.007
composition = CeO2
outputtype = gr
qmaxinst = 28.8974762299
qmin = 0.5
qmax = 27.9
rmax = 50.0
rmin = 0.0
rstep = 0.01
rpoly = 1.8657

[Misc]
inputdir = G:/SankarDec16/1Pd/Chi
savedir = D:/DATA/APS_CeO2/1Pd
backgroundfilefull = G:/SankarDec16/Background/background-00000.chi

#### start data
#S 1
#L r($\AA$)  G($\AA^{-2}$)
0 0
0.01 -0.00754982
0.02 -0.0145327
0.03 -0.0203647
0.04 -0.0246056
0.05 -0.0270103
0.06 -0.0271839
0.07 -0.0253875
0.08 -0.0214924
0.09 -0.0159973
0.1 -0.00924656
0.11 -0.00176813
0.12 0.00585996
0.13 0.0129913
0.14 0.019164
0.15 0.023815
0.16 0.0266117
0.17 0.0274193
0.18 0.0259648
0.19 0.02263
0.2 0.0174245
0.21 0.0109285
0.22 0.00356984
0.23 -0.00405925
0.24 -0.011413
0.25 -0.0177949
0.26 -0.0228689
0.27 -0.0261187
0.28 -0.0273343
0.29 -0.0264976
0.3 -0.0234705
0.31 -0.0187383
0.32 -0.0124485
0.33 -0.00523746
0.34 0.00240338
0.35 0.00984363
0.36 0.0165948
0.37 0.0219418
0.38 0.0256899
0.39 0.0273929
0.4 0.0269736
0.41 0.0245319
0.42 0.020071
0.43 0.0141583
0.44 0.00707289
0.45 -0.000521322
0.46 -0.00809139
0.47 -0.014997
0.48 -0.0208296
0.49 -0.0248878
0.5 -0.0271276
0.51 -0.0271937
0.52 -0.0251456
0.53 -0.0211972
0.54 -0.0154936
0.55 -0.008659
0.56 -0.0010919
0.57 0.00654607
0.58 0.0137048
0.59 0.0197627
0.6 0.0244103
0.61 0.0269923
0.62 0.0276176
0.63 0.026039
0.64 0.0224504
0.65 0.0171708
0.66 0.0104818
0.67 0.00303587
0.68 -0.00466642
0.69 -0.0119954
0.7 -0.018409
0.71 -0.0233324
0.72 -0.0265698
0.73 -0.0275416
0.74 -0.0265055
0.75 -0.0233336
0.76 -0.0183458
0.77 -0.0119516
0.78 -0.00455589
0.79 0.00319014
0.8 0.0107081
0.81 0.0174292
0.82 0.0228454
0.83 0.0264557
0.84 0.0281875
0.85 0.0275652
0.86 0.0249822
0.87 0.0204361
0.88 0.0143565
0.89 0.00722198
0.9 -0.000461251
0.91 -0.00807787
0.92 -0.0150059
0.93 -0.0207698
0.94 -0.0249284
0.95 -0.0270897
0.96 -0.027313
0.97 -0.0252696
0.98 -0.0214716
0.99 -0.0160587
1 -0.00955794
1.01 -0.00249726
1.02 0.00452441
1.03 0.0109699
1.04 0.0161935
1.05 0.019854
1.06 0.021609
1.07 0.0212134
1.08 0.0188855
1.09 0.014492
1.1 0.00867702
1.11 0.00176391
1.12 -0.00559794
1.13 -0.0128141
1.14 -0.0191397
1.15 -0.0241242
1.16 -0.0270337
1.17 -0.0276613
1.18 -0.0257282
1.19 -0.0210941
1.2 -0.0141544
1.21 -0.00488272
1.22 0.0058864
1.23 0.0176898
1.24 0.0297304
1.25 0.041308
1.26 0.051523
1.27 0.0599043
1.28 0.0655788
1.29 0.0683457
1.3 0.0678757
1.31 0.0639756
1.32 0.0570972
1.33 0.0470787
1.34 0.0348588
1.35 0.0208131
1.36 0.00574202
1.37 -0.00964003
1.38 -0.024531
1.39 -0.0383521
1.4 -0.0503254
1.41 -0.0601368
1.42 -0.0674223
1.43 -0.07191
1.44 -0.073874
1.45 -0.0730387
1.46 -0.0700891
1.47 -0.065176
1.48 -0.0588199
1.49 -0.0514958
1.5 -0.0436117
1.51 -0.0356224
1.52 -0.0278752
1.53 -0.0206111
1.54 -0.0139943
1.55 -0.0081212
1.56 -0.00290004
1.57 0.00165889
1.58 0.00578959
1.59 0.00960498
1.6 0.0132776
1.61 0.0169246
1.62 0.0206227
1.63 0.0243683
1.64 0.028092
1.65 0.0316462
1.66 0.0348289
1.67 0.037343
1.68 0.0390046
1.69 0.0393437
1.7 0.0383102
1.71 0.035578
1.72 0.0310727
1.73 0.0248469
1.74 0.0168132
1.75 0.00738422
1.76 -0.00332513
1.77 -0.0148175
1.78 -0.0267135
1.79 -0.0385308
1.8 -0.0498836
1.81 -0.0602342
1.82 -0.0694127
1.83 -0.0770854
1.84 -0.0831814
1.85 -0.0877815
1.86 -0.0908865
1.87 -0.0929278
1.88 -0.0941223
1.89 -0.0949588
1.9 -0.0958237
1.91 -0.0971603
1.92 -0.0992257
1.93 -0.102426
1.94 -0.106708
1.95 -0.112146
1.96 -0.11851
1.97 -0.125458
1.98 -0.132517
1.99 -0.139131
2 -0.144551
2.01 -0.148186
2.02 -0.149372
2.03 -0.147366
2.04 -0.142063
2.05 -0.132511
2.06 -0.119179
2.07 -0.10172
2.08 -0.080463
2.09 -0.055891
2.1 -0.028202
2.11 0.00165518
2.12 0.033316
2.13 0.0659825
2.14 0.0991539
2.15 0.132344
2.16 0.165262
2.17 0.197678
2.18 0.229669
2.19 0.261354
2.2 0.293043
2.21 0.325071
2.22 0.357924
2.23 0.39183
2.24 0.427206
2.25 0.464015
2.26 0.502172
2.27 0.5413
2.28 0.580707
2.29 0.619345
2.3 0.656125
2.31 0.689461
2.32 0.717753
2.33 0.73972
2.34 0.752855
2.35 0.756941
2.36 0.749477
2.37 0.730624
2.38 0.699715
2.39 0.656382
2.4 0.602428
2.41 0.537336
2.42 0.464366
2.43 0.384795
2.44 0.301389
2.45 0.216701
2.46 0.133667
2.47 0.0545476
2.48 -0.0175616
2.49 -0.0811466
2.5 -0.134494
2.51 -0.176046
2.52 -0.206615
2.53 -0.224549
2.54 -0.232522
2.55 -0.230938
2.56 -0.222032
2.57 -0.208099
2.58 -0.191282
2.59 -0.174213
2.6 -0.159266
2.61 -0.148327
2.62 -0.143004
2.63 -0.14475
2.64 -0.153345
2.65 -0.169927
2.66 -0.192728
2.67 -0.221246
2.68 -0.253694
2.69 -0.288248
2.7 -0.322908
2.71 -0.35582
2.72 -0.384842
2.73 -0.408759
2.74 -0.426417
2.75 -0.436891
2.76 -0.440842
2.77 -0.437687
2.78 -0.429431
2.79 -0.416969
2.8 -0.402259
2.81 -0.387133
2.82 -0.373752
2.83 -0.363598
2.84 -0.358745
2.85 -0.359925
2.86 -0.367908
2.87 -0.383101
2.88 -0.404375
2.89 -0.431642
2.9 -0.462577
2.91 -0.495728
2.92 -0.528817
2.93 -0.559895
2.94 -0.586399
2.95 -0.60723
2.96 -0.620131
2.97 -0.62487
2.98 -0.620979
2.99 -0.608465
3 -0.589048
3.01 -0.563265
3.02 -0.533985
3.03 -0.503117
3.04 -0.473323
3.05 -0.446752
3.06 -0.426278
3.07 -0.412825
3.08 -0.408725
3.09 -0.413865
3.1 -0.428447
3.11 -0.452081
3.12 -0.482635
3.13 -0.519109
3.14 -0.558336
3.15 -0.598052
3.16 -0.635424
3.17 -0.668309
3.18 -0.693796
3.19 -0.711357
3.2 -0.718954
3.21 -0.717279
3.22 -0.706713
3.23 -0.688414
3.24 -0.665
3.25 -0.638539
3.26 -0.612358
3.27 -0.589454
3.28 -0.572883
3.29 -0.564702
3.3 -0.568134
3.31 -0.582836
3.32 -0.610719
3.33 -0.650049
3.34 -0.699652
3.35 -0.757327
3.36 -0.819485
3.37 -0.882782
3.38 -0.943238
3.39 -0.996847
3.4 -1.04001
3.41 -1.07054
3.42 -1.08467
3.43 -1.0836
3.44 -1.06544
3.45 -1.03305
3.46 -0.988481
3.47 -0.9351
3.48 -0.877621
3.49 -0.820734
3.5 -0.76912
3.51 -0.727678
3.52 -0.700269
3.53 -0.688748
3.54 -0.696426
3.55 -0.720452
3.56 -0.760719
3.57 -0.811621
3.58 -0.867865
3.59 -0.921411
3.6 -0.964739
3.61 -0.985211
3.62 -0.976343
3.63 -0.926036
3.64 -0.825848
3.65 -0.671418
3.66 -0.45051
3.67 -0.169159
3.68 0.180817
3.69 0.590474
3.7 1.05535
3.71 1.56779
3.72 2.11238
3.73 2.67856
3.74 3.24759
3.75 3.80318
3.76 4.32709
3.77 4.80545
3.78 5.2152
3.79 5.55234
3.8 5.79529
3.81 5.94355
3.82 5.99069
3.83 5.93098
3.84 5.77765
3.85 5.52159
3.86 5.1866
3.87 4.77715
3.88 4.31007
3.89 3.80223
3.9 3.26758
3.91 2.72511
3.92 2.1903
3.93 1.67738
3.94 1.19855
3.95 0.766613
3.96 0.383522
3.97 0.0630319
3.98 -0.201848
3.99 -0.406737
4 -0.556266
4.01 -0.657652
4.02 -0.712935
4.03 -0.735481
4.04 -0.72963
4.05 -0.706433
4.06 -0.673016
4.07 -0.636867
4.08 -0.603682
4.09 -0.579283
4.1 -0.56556
4.11 -0.565094
4.12 -0.577864
4.13 -0.60231
4.14 -0.637405
4.15 -0.679019
4.16 -0.724453
4.17 -0.769642
4.18 -0.811248
4.19 -0.845509
4.2 -0.870729
4.21 -0.883004
4.22 -0.882847
4.23 -0.868579
4.24 -0.840658
4.25 -0.800453
4.26 -0.748038
4.27 -0.686626
4.28 -0.61704
4.29 -0.542033
4.3 -0.463316
4.31 -0.382661
4.32 -0.3016
4.33 -0.221381
4.34 -0.142699
4.35 -0.0661836
4.36 0.0079399
4.37 0.0797302
4.38 0.148958
4.39 0.216006
4.4 0.280549
4.41 0.342605
4.42 0.401764
4.43 0.457206
4.44 0.508559
4.45 0.553937
4.46 0.592994
4.47 0.623921
4.48 0.645537
4.49 0.657256
4.5 0.656862
4.51 0.64536
4.52 0.620991
4.53 0.584975
4.54 0.537648
4.55 0.479606
4.56 0.413211
4.57 0.339002
4.58 0.26002
4.59 0.177877
4.6 0.0949203
4.61 0.013038
4.62 -0.0655333
4.63 -0.139745
4.64 -0.207726
4.65 -0.269115
4.66 -0.323386
4.67 -0.370156
4.68 -0.41049
4.69 -0.444003
4.7 -0.472498
4.71 -0.4965
4.72 -0.517227
4.73 -0.535767
4.74 -0.552906
4.75 -0.569534
4.76 -0.586142
4.77 -0.603045
4.78 -0.620316
4.79 -0.637817
4.8 -0.655245
4.81 -0.672097
4.82 -0.687964
4.83 -0.702281
4.84 -0.714618
4.85 -0.724788
4.86 -0.732351
4.87 -0.737668
4.88 -0.740647
4.89 -0.74186
4.9 -0.741748
4.91 -0.740916
4.92 -0.740017
4.93 -0.739757
4.94 -0.740608
4.95 -0.743101
4.96 -0.747521
4.97 -0.753878
4.98 -0.762318
4.99 -0.772331
5 -0.783704
5.01 -0.795795
5.02 -0.808081
5.03 -0.819931
5.04 -0.830918
5.05 -0.840419
5.06 -0.848363
5.07 -0.854506
5.08 -0.858943
5.09 -0.861949
5.1 -0.863732
5.11 -0.864829
5.12 -0.865566
5.13 -0.8663
5.14 -0.867181
5.15 -0.868136
5.16 -0.868833
5.17 -0.868435
5.18 -0.866041
5.19 -0.860109
5.2 -0.848872
5.21 -0.830854
5.22 -0.802917
5.23 -0.764455
5.24 -0.712105
5.25 -0.645349
5.26 -0.562906
5.27 -0.463422
5.28 -0.34884
5.29 -0.21771
5.3 -0.0741222
5.31 0.0804489
5.32 0.242152
5.33 0.406954
5.34 0.570019
5.35 0.726946
5.36 0.871682
5.37 1.00012
5.38 1.10777
5.39 1.18922
5.4 1.24439
5.41 1.26639
5.42 1.25875
5.43 1.21899
5.44 1.14902
5.45 1.05253
5.46 0.93018
5.47 0.789421
5.48 0.632927
5.49 0.467445
5.5 0.297931
5.51 0.130115
5.52 -0.0317043
5.53 -0.181547
5.54 -0.317475
5.55 -0.435651
5.56 -0.5345
5.57 -0.614334
5.58 -0.673097
5.59 -0.714628
5.6 -0.738559
5.61 -0.748755
5.62 -0.74757
5.63 -0.737632
5.64 -0.722398
5.65 -0.703879
5.66 -0.684656
5.67 -0.66623
5.68 -0.64967
5.69 -0.635223
5.7 -0.622884
5.71 -0.611642
5.72 -0.600396
5.73 -0.587614
5.74 -0.571782
5.75 -0.551032
5.76 -0.524683
5.77 -0.490698
5.78 -0.449641
5.79 -0.400976
5.8 -0.345535
5.81 -0.284791
5.82 -0.220113
5.83 -0.15412
5.84 -0.0892693
5.85 -0.0282533
5.86 0.0263755
5.87 0.0715204
5.88 0.106239
5.89 0.126882
5.9 0.134289
5.91 0.126905
5.92 0.105205
5.93 0.0707335
5.94 0.0236083
5.95 -0.0326096
5.96 -0.0966708
5.97 -0.165301
5.98 -0.236117
5.99 -0.30644
6 -0.374289
6.01 -0.437135
6.02 -0.494283
6.03 -0.544432
6.04 -0.587371
6.05 -0.623694
6.06 -0.653401
6.07 -0.678414
6.08 -0.699537
6.09 -0.718619
6.1 -0.737016
6.11 -0.756181
6.12 -0.777005
6.13 -0.800588
6.14 -0.826862
6.15 -0.855933
6.16 -0.887183
6.17 -0.919683
6.18 -0.952247
6.19 -0.983591
6.2 -1.01211
6.21 -1.03667
6.22 -1.0562
6.23 -1.0696
6.24 -1.07718
6.25 -1.07807
6.26 -1.07371
6.27 -1.0646
6.28 -1.05217
6.29 -1.03793
6.3 -1.0234
6.31 -1.00995
6.32 -0.998838
6.33 -0.99051
6.34 -0.984958
6.35 -0.98142
6.36 -0.978192
6.37 -0.972466
6.38 -0.961218
6.39 -0.939988
6.4 -0.903875
6.41 -0.849145
6.42 -0.767683
6.43 -0.658476
6.44 -0.513415
6.45 -0.331683
6.46 -0.110699
6.47 0.15256
6.48 0.45292
6.49 0.793719
6.5 1.16517
6.51 1.56392
6.52 1.98129
6.53 2.40808
6.54 2.83389
6.55 3.24857
6.56 3.63908
6.57 3.99584
6.58 4.30878
6.59 4.5652
6.6 4.76406
6.61 4.889
6.62 4.94608
6.63 4.92807
6.64 4.83665
6.65 4.67844
6.66 4.45086
6.67 4.16985
6.68 3.83742
6.69 3.46774
6.7 3.07035
6.71 2.65608
6.72 2.23664
6.73 1.82301
6.74 1.42394
6.75 1.04876
6.76 0.704644
6.77 0.394669
6.78 0.127193
6.79 -0.101766
6.8 -0.287004
6.81 -0.433181
6.82 -0.542251
6.83 -0.616184
6.84 -0.662602
6.85 -0.68226
6.86 -0.683594
6.87 -0.669691
6.88 -0.64549
6.89 -0.615063
6.9 -0.581308
6.91 -0.547052
6.92 -0.514083
6.93 -0.483459
6.94 -0.45569
6.95 -0.430985
6.96 -0.408757
6.97 -0.388886
6.98 -0.370541
6.99 -0.353436
7 -0.3373
7.01 -0.322103
7.02 -0.308333
7.03 -0.296394
7.04 -0.287444
7.05 -0.282382
7.06 -0.282347
7.07 -0.288911
7.08 -0.302307
7.09 -0.324565
7.1 -0.354961
7.11 -0.394202
7.12 -0.441745
7.13 -0.496343
7.14 -0.557385
7.15 -0.622377
7.16 -0.689741
7.17 -0.757006
7.18 -0.822056
7.19 -0.882337
7.2 -0.93658
7.21 -0.981951
7.22 -1.01846
7.23 -1.04475
7.24 -1.06083
7.25 -1.0677
7.26 -1.06529
7.27 -1.05625
7.28 -1.04157
7.29 -1.02378
7.3 -1.0048
7.31 -0.986805
7.32 -0.971278
7.33 -0.960201
7.34 -0.953871
7.35 -0.952966
7.36 -0.957085
7.37 -0.96509
7.38 -0.975704
7.39 -0.986591
7.4 -0.995188
7.41 -0.998761
7.42 -0.994555
7.43 -0.978963
7.44 -0.950849
7.45 -0.905658
7.46 -0.843999
7.47 -0.763592
7.48 -0.664372
7.49 -0.547897
7.5 -0.413488
7.51 -0.265579
7.52 -0.105328
7.53 0.0628408
7.54 0.235447
7.55 0.408187
7.56 0.577255
7.57 0.7374
7.58 0.885905
7.59 1.01842
7.6 1.13183
7.61 1.225
7.62 1.2933
7.63 1.33906
7.64 1.359
7.65 1.35532
7.66 1.32867
7.67 1.27941
7.68 1.21173
7.69 1.12524
7.7 1.02505
7.71 0.912776
7.72 0.791703
7.73 0.664984
7.74 0.535182
7.75 0.405352
7.76 0.278206
7.77 0.156088
7.78 0.0411096
7.79 -0.0641044
7.8 -0.159044
7.81 -0.240384
7.82 -0.308755
7.83 -0.362307
7.84 -0.400617
7.85 -0.424404
7.86 -0.432008
7.87 -0.426173
7.88 -0.406174
7.89 -0.374453
7.9 -0.332527
7.91 -0.282114
7.92 -0.226267
7.93 -0.167
7.94 -0.107498
7.95 -0.0504438
7.96 0.00122362
7.97 0.0454958
7.98 0.0787931
7.99 0.100796
8 0.108581
8.01 0.102262
8.02 0.0814745
8.03 0.045764
8.04 -0.00239385
8.05 -0.0633354
8.06 -0.133371
8.07 -0.210884
8.08 -0.292927
8.09 -0.376731
8.1 -0.459393
8.11 -0.538643
8.12 -0.611747
8.13 -0.677294
8.14 -0.734082
8.15 -0.780885
8.16 -0.818768
8.17 -0.846917
8.18 -0.867721
8.19 -0.882111
8.2 -0.892139
8.21 -0.899849
8.22 -0.907164
8.23 -0.915781
8.24 -0.927251
8.25 -0.942206
8.26 -0.960806
8.27 -0.982599
8.28 -1.006
8.29 -1.02888
8.3 -1.04845
8.31 -1.06114
8.32 -1.06284
8.33 -1.05054
8.34 -1.01773
8.35 -0.963589
8.36 -0.881942
8.37 -0.772018
8.38 -0.632058
8.39 -0.459605
8.4 -0.258733
8.41 -0.0268915
8.42 0.228731
8.43 0.505732
8.44 0.798038
8.45 1.09901
8.46 1.40172
8.47 1.69884
8.48 1.9818
8.49 2.24382
8.5 2.47827
8.51 2.67652
8.52 2.83769
8.53 2.95112
8.54 3.02021
8.55 3.04024
8.56 3.01164
8.57 2.93862
8.58 2.81852
8.59 2.66155
8.6 2.46817
8.61 2.24695
8.62 2.00364
8.63 1.74429
8.64 1.47668
8.65 1.20672
8.66 0.940774
8.67 0.684439
8.68 0.442773
8.69 0.218399
8.7 0.0169925
8.71 -0.162677
8.72 -0.316746
8.73 -0.446816
8.74 -0.553336
8.75 -0.636355
8.76 -0.700158
8.77 -0.744236
8.78 -0.773788
8.79 -0.790444
8.8 -0.797395
8.81 -0.797747
8.82 -0.793618
8.83 -0.787866
8.84 -0.78238
8.85 -0.778887
8.86 -0.778589
8.87 -0.782675
8.88 -0.791127
8.89 -0.804821
8.9 -0.822908
8.91 -0.845283
8.92 -0.871195
8.93 -0.899681
8.94 -0.930016
8.95 -0.961013
8.96 -0.991758
8.97 -1.02132
8.98 -1.04893
8.99 -1.07372
9 -1.09555
9.01 -1.11353
9.02 -1.12802
9.03 -1.13876
9.04 -1.14594
9.05 -1.15004
9.06 -1.15108
9.07 -1.14988
9.08 -1.14658
9.09 -1.14172
9.1 -1.13557
9.11 -1.12823
9.12 -1.11985
9.13 -1.11007
9.14 -1.09875
9.15 -1.08527
9.16 -1.06896
9.17 -1.04931
9.18 -1.02495
9.19 -0.995787
9.2 -0.960458
9.21 -0.918788
9.22 -0.870416
9.23 -0.814825
9.24 -0.753016
9.25 -0.684634
9.26 -0.61148
9.27 -0.534471
9.28 -0.455409
9.29 -0.376143
9.3 -0.299055
9.31 -0.225955
9.32 -0.159614
9.33 -0.101754
9.34 -0.0541285
9.35 -0.019071
9.36 0.00381598
9.37 0.0119194
9.38 0.00710878
9.39 -0.0110241
9.4 -0.0412036
9.41 -0.0812121
9.42 -0.130011
9.43 -0.184096
9.44 -0.241441
9.45 -0.299013
9.46 -0.354381
9.47 -0.404724
9.48 -0.448724
9.49 -0.483573
9.5 -0.509376
9.51 -0.52503
9.52 -0.530732
9.53 -0.527758
9.54 -0.516366
9.55 -0.499335
9.56 -0.478035
9.57 -0.455062
9.58 -0.432507
9.59 -0.412804
9.6 -0.397379
9.61 -0.388672
9.62 -0.386951
9.63 -0.39332
9.64 -0.407852
9.65 -0.429671
9.66 -0.458779
9.67 -0.492988
9.68 -0.531386
9.69 -0.571962
9.7 -0.61317
9.71 -0.653307
9.72 -0.691273
9.73 -0.725573
9.74 -0.756014
9.75 -0.782062
9.76 -0.803843
9.77 -0.822001
9.78 -0.836771
9.79 -0.849328
9.8 -0.860106
9.81 -0.869747
9.82 -0.878397
9.83 -0.885634
9.84 -0.890795
9.85 -0.891809
9.86 -0.886944
9.87 -0.872979
9.88 -0.846192
9.89 -0.803909
9.9 -0.739299
9.91 -0.651499
9.92 -0.533609
9.93 -0.384095
9.94 -0.200489
9.95 0.0211773
9.96 0.277008
9.97 0.571333
9.98 0.896739
9.99 1.25151
10 1.62953
10.01 2.02313
10.02 2.42526
10.03 2.82626
10.04 3.21631
10.05 3.58608
10.06 3.92684
10.07 4.22686
10.08 4.48355
10.09 4.68268
10.1 4.8265
10.11 4.90802
10.12 4.92601
10.13 4.88512
10.14 4.78013
10.15 4.62402
10.16 4.41634
10.17 4.16791
10.18 3.88612
10.19 3.57837
10.2 3.25555
10.21 2.92483
10.22 2.59536
10.23 2.27431
10.24 1.96853
10.25 1.68163
10.26 1.42059
10.27 1.18414
10.28 0.976496
10.29 0.79564
10.3 0.64048
10.31 0.510373
10.32 0.400023
10.33 0.309028
10.34 0.231528
10.35 0.165163
10.36 0.106376
10.37 0.0520383
10.38 -6.4055e-05
10.39 -0.0520981
10.4 -0.105476
10.41 -0.160999
10.42 -0.218993
10.43 -0.27954
10.44 -0.341983
10.45 -0.405905
10.46 -0.47033
10.47 -0.534488
10.48 -0.597508
10.49 -0.658824
10.5 -0.71753
10.51 -0.773573
10.52 -0.826318
10.53 -0.87579
10.54 -0.921896
10.55 -0.964344
10.56 -1.00348
10.57 -1.03863
10.58 -1.07009
10.59 -1.0973
10.6 -1.11982
10.61 -1.1375
10.62 -1.14903
10.63 -1.1547
10.64 -1.15322
10.65 -1.14458
10.66 -1.12852
10.67 -1.10445
10.68 -1.07343
10.69 -1.03488
10.7 -0.990515
10.71 -0.940984
10.72 -0.887754
10.73 -0.832483
10.74 -0.776866
10.75 -0.722679
10.76 -0.671939
10.77 -0.626207
10.78 -0.586885
10.79 -0.555814
10.8 -0.532926
10.81 -0.520164
10.82 -0.516464
10.83 -0.522252
10.84 -0.536917
10.85 -0.559078
10.86 -0.588482
10.87 -0.622851
10.88 -0.661333
10.89 -0.702142
10.9 -0.743973
10.91 -0.785462
10.92 -0.825646
10.93 -0.86334
10.94 -0.898214
10.95 -0.929702
10.96 -0.957637
10.97 -0.982302
10.98 -1.00349
10.99 -1.02201
11 -1.03797
11.01 -1.05198
11.02 -1.06445
11.03 -1.07568
11.04 -1.08608
11.05 -1.09575
11.06 -1.10491
11.07 -1.11356
11.08 -1.12168
11.09 -1.12926
11.1 -1.13613
11.11 -1.14233
11.12 -1.14771
11.13 -1.15228
11.14 -1.15602
11.15 -1.15881
11.16 -1.16069
11.17 -1.16132
11.18 -1.16055
11.19 -1.15784
11.2 -1.15243
11.21 -1.14366
11.22 -1.12965
11.23 -1.10973
11.24 -1.08138
11.25 -1.04311
11.26 -0.993038
11.27 -0.928017
11.28 -0.847913
11.29 -0.748366
11.3 -0.630335
11.31 -0.491704
11.32 -0.33214
11.33 -0.153458
11.34 0.045612
11.35 0.260183
11.36 0.489109
11.37 0.7275
11.38 0.971129
11.39 1.21461
11.4 1.45288
11.41 1.67872
11.42 1.88783
11.43 2.07375
11.44 2.23095
11.45 2.35747
11.46 2.44498
11.47 2.49669
11.48 2.50698
11.49 2.47847
11.5 2.41251
11.51 2.30928
11.52 2.17625
11.53 2.01368
11.54 1.83043
11.55 1.63063
11.56 1.42071
11.57 1.20668
11.58 0.994402
11.59 0.788534
11.6 0.594339
11.61 0.414803
11.62 0.252247
11.63 0.109593
11.64 -0.014919
11.65 -0.11889
11.66 -0.2061
11.67 -0.277356
11.68 -0.335351
11.69 -0.383551
11.7 -0.423956
11.71 -0.46044
11.72 -0.495217
11.73 -0.530743
11.74 -0.568603
11.75 -0.610196
11.76 -0.655511
11.77 -0.704909
11.78 -0.757062
11.79 -0.810833
11.8 -0.864263
11.81 -0.915476
11.82 -0.961521
11.83 -1.00088
11.84 -1.03045
11.85 -1.04869
11.86 -1.05408
11.87 -1.04422
11.88 -1.02005
11.89 -0.9789
11.9 -0.922928
11.91 -0.851723
11.92 -0.766327
11.93 -0.668957
11.94 -0.559808
11.95 -0.442369
11.96 -0.317742
11.97 -0.18864
11.98 -0.0571274
11.99 0.0745162
12 0.204334
12.01 0.329793
12.02 0.449491
12.03 0.56135
12.04 0.663577
12.05 0.755536
12.06 0.83427
12.07 0.90059
12.08 0.952075
12.09 0.988913
12.1 1.01078
12.11 1.0164
12.12 1.00772
12.13 0.982942
12.14 0.944704
12.15 0.893118
12.16 0.829562
12.17 0.756298
12.18 0.673997
12.19 0.585846
12.2 0.493284
12.21 0.398833
12.22 0.304458
12.23 0.212394
12.24 0.124006
12.25 0.0415264
12.26 -0.0345862
12.27 -0.103192
12.28 -0.163872
12.29 -0.217241
12.3 -0.262755
12.31 -0.3023
12.32 -0.33626
12.33 -0.366321
12.34 -0.39379
12.35 -0.420026
12.36 -0.446327
12.37 -0.473866
12.38 -0.503244
12.39 -0.534933
12.4 -0.568887
12.41 -0.604509
12.42 -0.640983
