# xPDFsuite Configuration #
[PDF]
wavelength = 0.1432
dataformat = twotheta
inputfile = 1_1Pd_CeO2_cycle-00432.chi
backgroundfile = background-00000.chi
mode = xray
bgscale = 1.007
composition = CeO2
outputtype = gr
qmaxinst = 28.8974762299
qmin = 0.5
qmax = 27.9
rmax = 50.0
rmin = 0.0
rstep = 0.01
rpoly = 1.8657

[Misc]
inputdir = G:/SankarDec16/1Pd/Chi
savedir = D:/DATA/APS_CeO2/1Pd
backgroundfilefull = G:/SankarDec16/Background/background-00000.chi

#### start data
#S 1
#L r($\AA$)  G($\AA^{-2}$)
0 0
0.01 -0.00493693
0.02 -0.00950269
0.03 -0.013315
0.04 -0.0160859
0.05 -0.0176549
0.06 -0.0177639
0.07 -0.0165838
0.08 -0.0140309
0.09 -0.010432
0.1 -0.00601285
0.11 -0.00111933
0.12 0.00387018
0.13 0.00853217
0.14 0.0125648
0.15 0.0155997
0.16 0.0174196
0.17 0.0179371
0.18 0.0169743
0.19 0.0147819
0.2 0.0113672
0.21 0.00711071
0.22 0.00229303
0.23 -0.00269756
0.24 -0.00750413
0.25 -0.0116703
0.26 -0.0149774
0.27 -0.0170877
0.28 -0.0178653
0.29 -0.0172994
0.3 -0.0153012
0.31 -0.0121895
0.32 -0.00806239
0.33 -0.00333712
0.34 0.00166389
0.35 0.00652755
0.36 0.0109349
0.37 0.0144177
0.38 0.0168503
0.39 0.017942
0.4 0.0176439
0.41 0.0160232
0.42 0.0130843
0.43 0.00919959
0.44 0.00455399
0.45 -0.000417659
0.46 -0.00536589
0.47 -0.00987154
0.48 -0.0136686
0.49 -0.0162984
0.5 -0.0177347
0.51 -0.017747
0.52 -0.0163765
0.53 -0.0137655
0.54 -0.0100118
0.55 -0.00552471
0.56 -0.000567523
0.57 0.00442692
0.58 0.00909831
0.59 0.0130404
0.6 0.0160529
0.61 0.0177079
0.62 0.0180803
0.63 0.0170107
0.64 0.014629
0.65 0.0111466
0.66 0.00675077
0.67 0.00186925
0.68 -0.00316796
0.69 -0.00794963
0.7 -0.0121212
0.71 -0.0153075
0.72 -0.0173834
0.73 -0.0179714
0.74 -0.0172436
0.75 -0.0151194
0.76 -0.0118111
0.77 -0.00758893
0.78 -0.00272082
0.79 0.00236708
0.8 0.00729442
0.81 0.0116903
0.82 0.0152229
0.83 0.0175659
0.84 0.018674
0.85 0.0182374
0.86 0.0165158
0.87 0.0135083
0.88 0.00949661
0.89 0.0047931
0.9 -0.00027333
0.91 -0.00530249
0.92 -0.00989279
0.93 -0.0137374
0.94 -0.0165532
0.95 -0.0180909
0.96 -0.018391
0.97 -0.0172482
0.98 -0.0149936
0.99 -0.0117217
1 -0.00777223
1.01 -0.00348274
1.02 0.000764827
1.03 0.0046354
1.04 0.00772696
1.05 0.00983797
1.06 0.01077
1.07 0.0103959
1.08 0.0088743
1.09 0.00617112
1.1 0.00270855
1.11 -0.0012619
1.12 -0.00530254
1.13 -0.00902262
1.14 -0.0119076
1.15 -0.013701
1.16 -0.0139108
1.17 -0.0124518
1.18 -0.00917375
1.19 -0.00403609
1.2 0.00263876
1.21 0.0107917
1.22 0.0198065
1.23 0.0292859
1.24 0.0386218
1.25 0.0472885
1.26 0.0545643
1.27 0.060133
1.28 0.0632829
1.29 0.0638881
1.3 0.0616815
1.31 0.0564948
1.32 0.0487029
1.33 0.0381209
1.34 0.0255285
1.35 0.0111944
1.36 -0.0042273
1.37 -0.0201353
1.38 -0.0358652
1.39 -0.0508644
1.4 -0.0644302
1.41 -0.0761872
1.42 -0.085711
1.43 -0.0926035
1.44 -0.0969748
1.45 -0.0983227
1.46 -0.0971527
1.47 -0.0933614
1.48 -0.0872711
1.49 -0.0792336
1.5 -0.0694097
1.51 -0.0583496
1.52 -0.0462455
1.53 -0.0335315
1.54 -0.0204779
1.55 -0.00737775
1.56 0.00554522
1.57 0.0180098
1.58 0.0298922
1.59 0.0409584
1.6 0.0510479
1.61 0.0600445
1.62 0.0676348
1.63 0.0738338
1.64 0.0782601
1.65 0.0808953
1.66 0.0815399
1.67 0.0799729
1.68 0.0763326
1.69 0.0702137
1.7 0.0620136
1.71 0.0516311
1.72 0.0393336
1.73 0.0254486
1.74 0.0102089
1.75 -0.00581305
1.76 -0.02222
1.77 -0.0384546
1.78 -0.0540314
1.79 -0.068388
1.8 -0.0812598
1.81 -0.0919829
1.82 -0.10063
1.83 -0.106868
1.84 -0.110764
1.85 -0.112529
1.86 -0.112216
1.87 -0.110427
1.88 -0.107424
1.89 -0.103823
1.9 -0.100089
1.91 -0.096758
1.92 -0.0941781
1.93 -0.0928777
1.94 -0.0928935
1.95 -0.0944457
1.96 -0.0974351
1.97 -0.101623
1.98 -0.106757
1.99 -0.112287
2 -0.117686
2.01 -0.122336
2.02 -0.125623
2.03 -0.126812
2.04 -0.125606
2.05 -0.121038
2.06 -0.113236
2.07 -0.101643
2.08 -0.0862448
2.09 -0.067217
2.1 -0.0443291
2.11 -0.018314
2.12 0.0109077
2.13 0.0426532
2.14 0.0766039
2.15 0.112397
2.16 0.149508
2.17 0.18778
2.18 0.226765
2.19 0.266307
2.2 0.306186
2.21 0.34624
2.22 0.386304
2.23 0.426197
2.24 0.46564
2.25 0.504333
2.26 0.541851
2.27 0.57754
2.28 0.610989
2.29 0.640909
2.3 0.666954
2.31 0.687828
2.32 0.702651
2.33 0.710848
2.34 0.710766
2.35 0.702863
2.36 0.6856
2.37 0.659629
2.38 0.624848
2.39 0.581411
2.4 0.530883
2.41 0.473285
2.42 0.411004
2.43 0.345143
2.44 0.277663
2.45 0.210279
2.46 0.145035
2.47 0.0832236
2.48 0.026872
2.49 -0.0232722
2.5 -0.0662551
2.51 -0.101276
2.52 -0.12908
2.53 -0.148809
2.54 -0.162346
2.55 -0.170101
2.56 -0.173588
2.57 -0.174287
2.58 -0.173576
2.59 -0.172991
2.6 -0.173924
2.61 -0.177354
2.62 -0.18408
2.63 -0.194727
2.64 -0.208977
2.65 -0.227141
2.66 -0.248051
2.67 -0.271114
2.68 -0.295128
2.69 -0.318981
2.7 -0.341308
2.71 -0.361278
2.72 -0.377602
2.73 -0.389921
2.74 -0.397817
2.75 -0.401116
2.76 -0.400602
2.77 -0.396409
2.78 -0.390039
2.79 -0.382447
2.8 -0.37507
2.81 -0.369107
2.82 -0.366128
2.83 -0.366734
2.84 -0.37223
2.85 -0.382626
2.86 -0.398068
2.87 -0.418345
2.88 -0.442279
2.89 -0.469221
2.9 -0.497356
2.91 -0.525258
2.92 -0.551178
2.93 -0.573766
2.94 -0.591058
2.95 -0.602699
2.96 -0.607156
2.97 -0.604767
2.98 -0.595567
2.99 -0.580036
3 -0.55983
3.01 -0.535873
3.02 -0.510477
3.03 -0.485409
3.04 -0.462769
3.05 -0.444124
3.06 -0.431719
3.07 -0.425871
3.08 -0.428236
3.09 -0.438296
3.1 -0.455882
3.11 -0.480306
3.12 -0.509635
3.13 -0.54269
3.14 -0.57693
3.15 -0.610376
3.16 -0.640813
3.17 -0.66667
3.18 -0.685713
3.19 -0.697869
3.2 -0.701736
3.21 -0.698217
3.22 -0.687912
3.23 -0.672078
3.24 -0.652966
3.25 -0.632582
3.26 -0.613531
3.27 -0.598348
3.28 -0.589398
3.29 -0.588162
3.3 -0.597114
3.31 -0.615633
3.32 -0.645027
3.33 -0.683571
3.34 -0.730049
3.35 -0.782389
3.36 -0.837575
3.37 -0.892604
3.38 -0.944343
3.39 -0.989455
3.4 -1.02512
3.41 -1.04974
3.42 -1.06037
3.43 -1.05826
3.44 -1.04205
3.45 -1.01432
3.46 -0.976881
3.47 -0.932625
3.48 -0.885403
3.49 -0.839074
3.5 -0.797281
3.51 -0.763846
3.52 -0.741613
3.53 -0.731786
3.54 -0.73653
3.55 -0.753231
3.56 -0.781106
3.57 -0.815256
3.58 -0.850873
3.59 -0.880792
3.6 -0.898902
3.61 -0.893956
3.62 -0.861082
3.63 -0.789927
3.64 -0.673692
3.65 -0.509105
3.66 -0.285948
3.67 -0.0100069
3.68 0.325425
3.69 0.712222
3.7 1.14623
3.71 1.62055
3.72 2.12177
3.73 2.64049
3.74 3.16056
3.75 3.66777
3.76 4.1463
3.77 4.58415
3.78 4.9611
3.79 5.27376
3.8 5.503
3.81 5.64825
3.82 5.70356
3.83 5.6634
3.84 5.53911
3.85 5.32174
3.86 5.03202
3.87 4.67303
3.88 4.2591
3.89 3.80484
3.9 3.32164
3.91 2.82675
3.92 2.33315
3.93 1.85407
3.94 1.40048
3.95 0.984154
3.96 0.607889
3.97 0.284324
3.98 0.00863918
3.99 -0.214382
4 -0.387676
4.01 -0.516726
4.02 -0.602071
4.03 -0.655153
4.04 -0.678692
4.05 -0.682368
4.06 -0.67217
4.07 -0.654472
4.08 -0.634988
4.09 -0.618522
4.1 -0.607923
4.11 -0.605756
4.12 -0.612817
4.13 -0.628502
4.14 -0.652515
4.15 -0.681965
4.16 -0.715021
4.17 -0.748544
4.18 -0.779908
4.19 -0.806052
4.2 -0.825403
4.21 -0.834651
4.22 -0.833901
4.23 -0.821528
4.24 -0.797609
4.25 -0.763046
4.26 -0.717582
4.27 -0.663813
4.28 -0.602178
4.29 -0.534994
4.3 -0.463671
4.31 -0.389709
4.32 -0.314593
4.33 -0.239397
4.34 -0.164983
4.35 -0.092009
4.36 -0.0208524
4.37 0.0483904
4.38 0.115396
4.39 0.180418
4.4 0.243113
4.41 0.303501
4.42 0.361242
4.43 0.415664
4.44 0.466499
4.45 0.512144
4.46 0.552317
4.47 0.585425
4.48 0.610366
4.49 0.626526
4.5 0.631754
4.51 0.626763
4.52 0.609666
4.53 0.581298
4.54 0.541652
4.55 0.490874
4.56 0.431
4.57 0.361997
4.58 0.286763
4.59 0.20654
4.6 0.123562
4.61 0.0398008
4.62 -0.0425887
4.63 -0.122063
4.64 -0.196555
4.65 -0.265116
4.66 -0.32673
4.67 -0.380401
4.68 -0.426745
4.69 -0.464661
4.7 -0.495774
4.71 -0.520179
4.72 -0.538993
4.73 -0.553445
4.74 -0.564288
4.75 -0.573039
4.76 -0.580496
4.77 -0.587697
4.78 -0.595327
4.79 -0.604009
4.8 -0.613941
4.81 -0.625498
4.82 -0.638414
4.83 -0.652624
4.84 -0.667773
4.85 -0.683468
4.86 -0.699295
4.87 -0.714837
4.88 -0.729649
4.89 -0.743446
4.9 -0.75597
4.91 -0.766968
4.92 -0.776521
4.93 -0.784379
4.94 -0.790843
4.95 -0.79591
4.96 -0.799782
4.97 -0.802689
4.98 -0.804749
4.99 -0.806269
5 -0.807388
5.01 -0.808344
5.02 -0.809311
5.03 -0.810492
5.04 -0.812021
5.05 -0.814152
5.06 -0.816958
5.07 -0.820634
5.08 -0.825282
5.09 -0.830908
5.1 -0.837614
5.11 -0.845149
5.12 -0.853371
5.13 -0.861815
5.14 -0.869948
5.15 -0.876906
5.16 -0.881948
5.17 -0.883446
5.18 -0.880579
5.19 -0.871546
5.2 -0.854811
5.21 -0.829366
5.22 -0.7925
5.23 -0.7445
5.24 -0.682801
5.25 -0.607786
5.26 -0.518999
5.27 -0.416044
5.28 -0.301125
5.29 -0.173807
5.3 -0.0377804
5.31 0.105236
5.32 0.251847
5.33 0.398756
5.34 0.541751
5.35 0.677692
5.36 0.801604
5.37 0.910613
5.38 1.00134
5.39 1.06968
5.4 1.11597
5.41 1.13477
5.42 1.1292
5.43 1.09729
5.44 1.0406
5.45 0.962021
5.46 0.861828
5.47 0.745905
5.48 0.615996
5.49 0.477348
5.5 0.33368
5.51 0.189282
5.52 0.0477135
5.53 -0.0865861
5.54 -0.211646
5.55 -0.324349
5.56 -0.42304
5.57 -0.507497
5.58 -0.575589
5.59 -0.629764
5.6 -0.669061
5.61 -0.695993
5.62 -0.711879
5.63 -0.718161
5.64 -0.717511
5.65 -0.710769
5.66 -0.700342
5.67 -0.687174
5.68 -0.672349
5.69 -0.656494
5.7 -0.639744
5.71 -0.622108
5.72 -0.603056
5.73 -0.582078
5.74 -0.558486
5.75 -0.531356
5.76 -0.500504
5.77 -0.464818
5.78 -0.424799
5.79 -0.380235
5.8 -0.33175
5.81 -0.280331
5.82 -0.226988
5.83 -0.173381
5.84 -0.121246
5.85 -0.0723504
5.86 -0.0284522
5.87 0.00825945
5.88 0.0371502
5.89 0.0554873
5.9 0.0638311
5.91 0.0608729
5.92 0.0467599
5.93 0.0224516
5.94 -0.0123447
5.95 -0.0550831
5.96 -0.105237
5.97 -0.160448
5.98 -0.21909
5.99 -0.279316
6 -0.339416
6.01 -0.397646
6.02 -0.453015
6.03 -0.504379
6.04 -0.551167
6.05 -0.59341
6.06 -0.630661
6.07 -0.663962
6.08 -0.693443
6.09 -0.720207
6.1 -0.74501
6.11 -0.768679
6.12 -0.792005
6.13 -0.815596
6.14 -0.839792
6.15 -0.864783
6.16 -0.89045
6.17 -0.916468
6.18 -0.94229
6.19 -0.967324
6.2 -0.990708
6.21 -1.01181
6.22 -1.03
6.23 -1.04452
6.24 -1.05547
6.25 -1.06212
6.26 -1.06517
6.27 -1.06462
6.28 -1.06105
6.29 -1.05516
6.3 -1.04736
6.31 -1.03838
6.32 -1.0284
6.33 -1.01751
6.34 -1.00532
6.35 -0.990784
6.36 -0.972886
6.37 -0.948849
6.38 -0.917013
6.39 -0.873842
6.4 -0.815908
6.41 -0.740807
6.42 -0.642336
6.43 -0.520418
6.44 -0.368872
6.45 -0.187511
6.46 0.0254649
6.47 0.272281
6.48 0.548723
6.49 0.857476
6.5 1.19081
6.51 1.5462
6.52 1.91688
6.53 2.2956
6.54 2.6742
6.55 3.04445
6.56 3.39585
6.57 3.72039
6.58 4.00956
6.59 4.25248
6.6 4.44771
6.61 4.58082
6.62 4.65606
6.63 4.66627
6.64 4.61173
6.65 4.49713
6.66 4.3186
6.67 4.08939
6.68 3.80959
6.69 3.4911
6.7 3.1416
6.71 2.76979
6.72 2.38668
6.73 2.00109
6.74 1.6223
6.75 1.25886
6.76 0.91834
6.77 0.604869
6.78 0.327031
6.79 0.0829324
6.8 -0.121403
6.81 -0.288826
6.82 -0.419989
6.83 -0.515457
6.84 -0.581907
6.85 -0.618867
6.86 -0.634569
6.87 -0.631593
6.88 -0.614944
6.89 -0.589138
6.9 -0.557289
6.91 -0.523236
6.92 -0.489357
6.93 -0.457636
6.94 -0.429294
6.95 -0.405306
6.96 -0.3854
6.97 -0.370057
6.98 -0.358229
6.99 -0.349641
7 -0.343608
7.01 -0.339521
7.02 -0.337219
7.03 -0.336331
7.04 -0.337147
7.05 -0.339885
7.06 -0.345063
7.07 -0.353562
7.08 -0.365695
7.09 -0.382876
7.1 -0.405044
7.11 -0.433021
7.12 -0.466928
7.13 -0.506321
7.14 -0.551373
7.15 -0.600571
7.16 -0.653309
7.17 -0.707916
7.18 -0.76298
7.19 -0.816715
7.2 -0.867806
7.21 -0.91412
7.22 -0.955005
7.23 -0.989053
7.24 -1.01565
7.25 -1.03498
7.26 -1.04632
7.27 -1.05128
7.28 -1.04999
7.29 -1.04415
7.3 -1.03499
7.31 -1.02394
7.32 -1.01245
7.33 -1.00184
7.34 -0.992932
7.35 -0.986402
7.36 -0.982359
7.37 -0.98034
7.38 -0.979627
7.39 -0.97878
7.4 -0.975974
7.41 -0.969206
7.42 -0.956328
7.43 -0.934402
7.44 -0.902371
7.45 -0.856304
7.46 -0.796433
7.47 -0.720562
7.48 -0.628296
7.49 -0.520699
7.5 -0.396798
7.51 -0.260312
7.52 -0.111968
7.53 0.0443664
7.54 0.205627
7.55 0.367941
7.56 0.52765
7.57 0.67987
7.58 0.821766
7.59 0.949085
7.6 1.05861
7.61 1.14905
7.62 1.21576
7.63 1.26081
7.64 1.28094
7.65 1.27825
7.66 1.25343
7.67 1.20697
7.68 1.14308
7.69 1.06172
7.7 0.96801
7.71 0.863854
7.72 0.752651
7.73 0.637507
7.74 0.521162
7.75 0.40626
7.76 0.295394
7.77 0.190358
7.78 0.0927503
7.79 0.00446568
7.8 -0.07461
7.81 -0.142204
7.82 -0.199436
7.83 -0.245352
7.84 -0.280137
7.85 -0.304673
7.86 -0.318124
7.87 -0.322547
7.88 -0.317535
7.89 -0.304671
7.9 -0.284826
7.91 -0.258864
7.92 -0.228594
7.93 -0.194871
7.94 -0.159651
7.95 -0.124355
7.96 -0.0907587
7.97 -0.0602475
7.98 -0.0350487
7.99 -0.0158568
8 -0.00480738
8.01 -0.00244596
8.02 -0.00958059
8.03 -0.0272738
8.04 -0.0544608
8.05 -0.0923545
8.06 -0.138852
8.07 -0.19359
8.08 -0.254994
8.09 -0.321193
8.1 -0.39073
8.11 -0.46134
8.12 -0.53121
8.13 -0.598542
8.14 -0.66186
8.15 -0.719505
8.16 -0.771254
8.17 -0.815537
8.18 -0.853197
8.19 -0.883963
8.2 -0.908518
8.21 -0.927982
8.22 -0.942829
8.23 -0.954681
8.24 -0.964157
8.25 -0.972229
8.26 -0.979312
8.27 -0.985398
8.28 -0.990198
8.29 -0.992414
8.3 -0.990868
8.31 -0.983317
8.32 -0.967167
8.33 -0.940442
8.34 -0.898408
8.35 -0.840361
8.36 -0.761415
8.37 -0.660582
8.38 -0.536037
8.39 -0.385179
8.4 -0.210693
8.41 -0.00961382
8.42 0.212734
8.43 0.455148
8.44 0.713193
8.45 0.981547
8.46 1.2551
8.47 1.52721
8.48 1.79083
8.49 2.03956
8.5 2.26717
8.51 2.46553
8.52 2.63283
8.53 2.75886
8.54 2.84547
8.55 2.88744
8.56 2.88405
8.57 2.83837
8.58 2.74673
8.59 2.61823
8.6 2.45234
8.61 2.2569
8.62 2.03703
8.63 1.79814
8.64 1.54809
8.65 1.29219
8.66 1.0373
8.67 0.788916
8.68 0.552395
8.69 0.330787
8.7 0.129814
8.71 -0.0511413
8.72 -0.208142
8.73 -0.342418
8.74 -0.454244
8.75 -0.543564
8.76 -0.61445
8.77 -0.666417
8.78 -0.704479
8.79 -0.730223
8.8 -0.746712
8.81 -0.756891
8.82 -0.762694
8.83 -0.766739
8.84 -0.770614
8.85 -0.77576
8.86 -0.783088
8.87 -0.793397
8.88 -0.806586
8.89 -0.823071
8.9 -0.842142
8.91 -0.863546
8.92 -0.886656
8.93 -0.910809
8.94 -0.935445
8.95 -0.959956
8.96 -0.983823
8.97 -1.00668
8.98 -1.02825
8.99 -1.04824
9 -1.06674
9.01 -1.08346
9.02 -1.09863
9.03 -1.11217
9.04 -1.12411
9.05 -1.13454
9.06 -1.14319
9.07 -1.15018
9.08 -1.15511
9.09 -1.15784
9.1 -1.15806
9.11 -1.15518
9.12 -1.14918
9.13 -1.13905
9.14 -1.12492
9.15 -1.10609
9.16 -1.08226
9.17 -1.05349
9.18 -1.01898
9.19 -0.979502
9.2 -0.934547
9.21 -0.884775
9.22 -0.830561
9.23 -0.772269
9.24 -0.710995
9.25 -0.647208
9.26 -0.582196
9.27 -0.516892
9.28 -0.452519
9.29 -0.390066
9.3 -0.33112
9.31 -0.276272
9.32 -0.227123
9.33 -0.184271
9.34 -0.148477
9.35 -0.120879
9.36 -0.100954
9.37 -0.0901596
9.38 -0.0872842
9.39 -0.0926316
9.4 -0.105594
9.41 -0.125028
9.42 -0.150736
9.43 -0.180804
9.44 -0.214532
9.45 -0.250327
9.46 -0.286985
9.47 -0.323147
9.48 -0.357803
9.49 -0.389556
9.5 -0.417929
9.51 -0.442065
9.52 -0.461561
9.53 -0.476579
9.54 -0.486636
9.55 -0.492744
9.56 -0.494974
9.57 -0.494345
9.58 -0.491634
9.59 -0.48774
9.6 -0.483651
9.61 -0.480353
9.62 -0.478582
9.63 -0.479143
9.64 -0.482645
9.65 -0.489264
9.66 -0.499683
9.67 -0.513423
9.68 -0.530786
9.69 -0.551268
9.7 -0.574542
9.71 -0.600297
9.72 -0.627816
9.73 -0.656822
9.74 -0.686618
9.75 -0.716785
9.76 -0.746794
9.77 -0.776217
9.78 -0.804391
9.79 -0.830942
9.8 -0.854978
9.81 -0.875812
9.82 -0.892504
9.83 -0.903412
9.84 -0.907828
9.85 -0.902748
9.86 -0.887342
9.87 -0.858688
9.88 -0.814188
9.89 -0.752571
9.9 -0.668591
9.91 -0.563032
9.92 -0.430973
9.93 -0.272336
9.94 -0.0859535
9.95 0.130548
9.96 0.373579
9.97 0.646076
9.98 0.942143
9.99 1.26039
10 1.59623
10.01 1.94394
10.02 2.29838
10.03 2.65234
10.04 2.9985
10.05 3.32972
10.06 3.63919
10.07 3.91761
10.08 4.16247
10.09 4.36196
10.1 4.51699
10.11 4.62095
10.12 4.67151
10.13 4.67136
10.14 4.61425
10.15 4.51005
10.16 4.35641
10.17 4.16146
10.18 3.93044
10.19 3.66828
10.2 3.38485
10.21 3.08488
10.22 2.7778
10.23 2.46993
10.24 2.16837
10.25 1.87797
10.26 1.6059
10.27 1.35332
10.28 1.12549
10.29 0.922474
10.3 0.744767
10.31 0.593455
10.32 0.464305
10.33 0.358433
10.34 0.270139
10.35 0.197596
10.36 0.137104
10.37 0.0848197
10.38 0.0381684
10.39 -0.00643225
10.4 -0.0512913
10.41 -0.0984815
10.42 -0.149335
10.43 -0.205056
10.44 -0.265378
10.45 -0.330799
10.46 -0.400016
10.47 -0.472309
10.48 -0.546283
10.49 -0.620533
10.5 -0.693382
10.51 -0.763627
10.52 -0.829557
10.53 -0.890221
10.54 -0.944732
10.55 -0.991883
10.56 -1.03208
10.57 -1.06398
10.58 -1.08862
10.59 -1.10571
10.6 -1.11564
10.61 -1.1193
10.62 -1.11645
10.63 -1.10853
10.64 -1.09552
10.65 -1.0783
10.66 -1.05738
10.67 -1.03303
10.68 -1.00604
10.69 -0.976448
10.7 -0.944979
10.71 -0.911895
10.72 -0.877664
10.73 -0.84278
10.74 -0.807744
10.75 -0.773121
10.76 -0.739603
10.77 -0.707819
10.78 -0.678415
10.79 -0.652345
10.8 -0.629861
10.81 -0.612251
10.82 -0.599479
10.83 -0.592318
10.84 -0.591119
10.85 -0.595639
10.86 -0.606679
10.87 -0.623156
10.88 -0.645378
10.89 -0.672424
10.9 -0.70366
10.91 -0.738466
10.92 -0.775621
10.93 -0.814429
10.94 -0.853694
10.95 -0.892509
10.96 -0.929876
10.97 -0.965144
10.98 -0.997201
10.99 -1.02596
11 -1.0506
11.01 -1.07116
11.02 -1.0876
11.03 -1.0998
11.04 -1.10851
11.05 -1.11366
11.06 -1.11627
11.07 -1.11678
11.08 -1.11597
11.09 -1.11455
11.1 -1.11323
11.11 -1.11256
11.12 -1.11312
11.13 -1.11515
11.14 -1.11877
11.15 -1.12398
11.16 -1.13026
11.17 -1.1371
11.18 -1.14352
11.19 -1.14838
11.2 -1.15013
11.21 -1.14755
11.22 -1.13795
11.23 -1.1205
11.24 -1.09223
11.25 -1.0518
11.26 -0.997574
11.27 -0.926796
11.28 -0.840125
11.29 -0.733991
11.3 -0.610278
11.31 -0.467834
11.32 -0.307282
11.33 -0.130919
11.34 0.0614339
11.35 0.265235
11.36 0.47886
11.37 0.69806
11.38 0.919224
11.39 1.1378
11.4 1.35009
11.41 1.55023
11.42 1.73534
11.43 1.90052
11.44 2.04174
11.45 2.1578
11.46 2.24223
11.47 2.29776
11.48 2.31984
11.49 2.31041
11.5 2.27021
11.51 2.19878
11.52 2.1017
11.53 1.97816
11.54 1.83488
11.55 1.67427
11.56 1.50085
11.57 1.31934
11.58 1.13341
11.59 0.947557
11.6 0.765551
11.61 0.590567
11.62 0.425086
11.63 0.272132
11.64 0.131624
11.65 0.00643154
11.66 -0.105116
11.67 -0.202491
11.68 -0.286613
11.69 -0.359542
11.7 -0.42147
11.71 -0.47561
11.72 -0.522843
11.73 -0.565421
11.74 -0.604828
11.75 -0.642337
11.76 -0.679091
11.77 -0.715688
11.78 -0.752397
11.79 -0.789079
11.8 -0.825159
11.81 -0.859901
11.82 -0.891789
11.83 -0.919905
11.84 -0.942245
11.85 -0.957513
11.86 -0.964321
11.87 -0.960476
11.88 -0.946063
11.89 -0.918339
11.9 -0.878248
11.91 -0.824693
11.92 -0.757711
11.93 -0.678647
11.94 -0.586722
11.95 -0.484899
11.96 -0.373528
11.97 -0.255095
11.98 -0.131525
11.99 -0.00493684
12 0.122208
12.01 0.247387
12.02 0.368479
12.03 0.483062
12.04 0.588826
12.05 0.684687
12.06 0.767333
12.07 0.83733
12.08 0.892099
12.09 0.931846
12.1 0.956349
12.11 0.964556
12.12 0.958666
12.13 0.937247
12.14 0.903182
12.15 0.856883
12.16 0.799927
12.17 0.73455
12.18 0.661556
12.19 0.583757
12.2 0.502401
12.21 0.419522
12.22 0.336615
12.23 0.255292
12.24 0.17649
12.25 0.10169
12.26 0.0311349
12.27 -0.0344779
12.28 -0.0949288
12.29 -0.15064
12.3 -0.201247
12.31 -0.247915
12.32 -0.290771
12.33 -0.330747
12.34 -0.368498
12.35 -0.404597
12.36 -0.439742
12.37 -0.474246
12.38 -0.508418
