# xPDFsuite Configuration #
[PDF]
wavelength = 0.1432
dataformat = twotheta
inputfile = 1_1Pd_CeO2_cycle-00161.chi
backgroundfile = background-00000.chi
mode = xray
bgscale = 1.007
composition = CeO2
outputtype = gr
qmaxinst = 28.8974762299
qmin = 0.5
qmax = 27.9
rmax = 50.0
rmin = 0.0
rstep = 0.01
rpoly = 1.8657

[Misc]
inputdir = G:/SankarDec16/1Pd/Chi
savedir = D:/DATA/APS_CeO2/1Pd
backgroundfilefull = G:/SankarDec16/Background/background-00000.chi

#### start data
#S 1
#L r($\AA$)  G($\AA^{-2}$)
0 0
0.01 -0.00824231
0.02 -0.0158641
0.03 -0.0222262
0.04 -0.0268475
0.05 -0.0294599
0.06 -0.0296326
0.07 -0.0276521
0.08 -0.0233796
0.09 -0.0173619
0.1 -0.0099774
0.11 -0.00180538
0.12 0.0065219
0.13 0.0142955
0.14 0.0210124
0.15 0.026057
0.16 0.0290683
0.17 0.0299017
0.18 0.0282625
0.19 0.0245717
0.2 0.0188445
0.21 0.0117186
0.22 0.00366471
0.23 -0.00466669
0.24 -0.01268
0.25 -0.0196113
0.26 -0.0250985
0.27 -0.0285789
0.28 -0.0298288
0.29 -0.0288338
0.3 -0.02545
0.31 -0.020213
0.32 -0.0132918
0.33 -0.00538529
0.34 0.00296558
0.35 0.0110693
0.36 0.0183952
0.37 0.0241604
0.38 0.0281609
0.39 0.0299138
0.4 0.0293434
0.41 0.0265671
0.42 0.0215985
0.43 0.0150636
0.44 0.0072774
0.45 -0.00103249
0.46 -0.00928038
0.47 -0.0167658
0.48 -0.0230485
0.49 -0.0273637
0.5 -0.0296754
0.51 -0.029604
0.52 -0.027226
0.53 -0.0227854
0.54 -0.0164542
0.55 -0.00891911
0.56 -0.000627018
0.57 0.00769958
0.58 0.0154581
0.59 0.0219717
0.6 0.0269123
0.61 0.0295692
0.62 0.0300773
0.63 0.0281784
0.64 0.024099
0.65 0.0181989
0.66 0.010801
0.67 0.00262099
0.68 -0.00578295
0.69 -0.0137272
0.7 -0.0206209
0.71 -0.0258425
0.72 -0.0291921
0.73 -0.0300472
0.74 -0.0287074
0.75 -0.0250488
0.76 -0.019437
0.77 -0.0123307
0.78 -0.00418856
0.79 0.00427929
0.8 0.012431
0.81 0.0196544
0.82 0.0254002
0.83 0.0291327
0.84 0.0307902
0.85 0.0298695
0.86 0.02682
0.87 0.0216578
0.88 0.0148686
0.89 0.00698503
0.9 -0.00142473
0.91 -0.00969513
0.92 -0.0171404
0.93 -0.0232569
0.94 -0.0275734
0.95 -0.0296799
0.96 -0.0296623
0.97 -0.0271854
0.98 -0.0228271
0.99 -0.0167623
1 -0.00958121
1.01 -0.0018669
1.02 0.00571409
1.03 0.0125898
1.04 0.0180553
1.05 0.0217626
1.06 0.0233575
1.07 0.0226009
1.08 0.0197577
1.09 0.0147205
1.1 0.008211
1.11 0.00061409
1.12 -0.00734492
1.13 -0.0150117
1.14 -0.0215561
1.15 -0.0265116
1.16 -0.0290764
1.17 -0.0290621
1.18 -0.0261919
1.19 -0.0203539
1.2 -0.0120196
1.21 -0.00121594
1.22 0.011113
1.23 0.0244089
1.24 0.0377656
1.25 0.0503976
1.26 0.0612727
1.27 0.0698976
1.28 0.0752796
1.29 0.0772318
1.3 0.0754018
1.31 0.0695974
1.32 0.0603649
1.33 0.0475444
1.34 0.0322324
1.35 0.0148829
1.36 -0.00356607
1.37 -0.0222788
1.38 -0.0402986
1.39 -0.0569527
1.4 -0.0712945
1.41 -0.0829427
1.42 -0.0914329
1.43 -0.096392
1.44 -0.098123
1.45 -0.0961973
1.46 -0.0914248
1.47 -0.0839037
1.48 -0.0742247
1.49 -0.0629511
1.5 -0.050523
1.51 -0.0375718
1.52 -0.0245195
1.53 -0.0117833
1.54 0.000332094
1.55 0.01155
1.56 0.0218261
1.57 0.0309024
1.58 0.0389272
1.59 0.0457957
1.6 0.0515514
1.61 0.0562399
1.62 0.0597225
1.63 0.062105
1.64 0.0631447
1.65 0.0628479
1.66 0.0610576
1.67 0.0575812
1.68 0.0524974
1.69 0.0454633
1.7 0.0367814
1.71 0.0263839
1.72 0.0145264
1.73 0.00153183
1.74 -0.0122865
1.75 -0.0263897
1.76 -0.0402702
1.77 -0.0533925
1.78 -0.0652417
1.79 -0.0752481
1.8 -0.0832557
1.81 -0.0886239
1.82 -0.0916448
1.83 -0.0921551
1.84 -0.0904862
1.85 -0.0870963
1.86 -0.0824248
1.87 -0.0772549
1.88 -0.0722835
1.89 -0.0682476
1.9 -0.0658178
1.91 -0.0656981
1.92 -0.0680386
1.93 -0.0735278
1.94 -0.0816953
1.95 -0.0925594
1.96 -0.10552
1.97 -0.119848
1.98 -0.134679
1.99 -0.148987
2 -0.161546
2.01 -0.17139
2.02 -0.177495
2.03 -0.178758
2.04 -0.175071
2.05 -0.165103
2.06 -0.149655
2.07 -0.128351
2.08 -0.101825
2.09 -0.0709132
2.1 -0.0361414
2.11 0.00104222
2.12 0.039838
2.13 0.0790236
2.14 0.11772
2.15 0.155048
2.16 0.190649
2.17 0.223887
2.18 0.255092
2.19 0.284308
2.2 0.312092
2.21 0.339088
2.22 0.366046
2.23 0.393672
2.24 0.422762
2.25 0.453689
2.26 0.486724
2.27 0.521858
2.28 0.558489
2.29 0.59594
2.3 0.632924
2.31 0.667928
2.32 0.699147
2.33 0.725037
2.34 0.742865
2.35 0.752001
2.36 0.749627
2.37 0.735553
2.38 0.708825
2.39 0.668779
2.4 0.617159
2.41 0.553182
2.42 0.480292
2.43 0.399752
2.44 0.314535
2.45 0.227436
2.46 0.141631
2.47 0.0596995
2.48 -0.0149679
2.49 -0.0806153
2.5 -0.135322
2.51 -0.17735
2.52 -0.207545
2.53 -0.224139
2.54 -0.230056
2.55 -0.225818
2.56 -0.213945
2.57 -0.197014
2.58 -0.177522
2.59 -0.158353
2.6 -0.142254
2.61 -0.131259
2.62 -0.127143
2.63 -0.131478
2.64 -0.143867
2.65 -0.165494
2.66 -0.194174
2.67 -0.229174
2.68 -0.26828
2.69 -0.309282
2.7 -0.349673
2.71 -0.387313
2.72 -0.41955
2.73 -0.445022
2.74 -0.462371
2.75 -0.470533
2.76 -0.470431
2.77 -0.4614
2.78 -0.446011
2.79 -0.425434
2.8 -0.402162
2.81 -0.378518
2.82 -0.357266
2.83 -0.340273
2.84 -0.330226
2.85 -0.328076
2.86 -0.334858
2.87 -0.351189
2.88 -0.375669
2.89 -0.408366
2.9 -0.446327
2.91 -0.487837
2.92 -0.530038
2.93 -0.570433
2.94 -0.605819
2.95 -0.63462
2.96 -0.653914
2.97 -0.663171
2.98 -0.661586
2.99 -0.648884
3 -0.627015
3.01 -0.596264
3.02 -0.560127
3.03 -0.520717
3.04 -0.48126
3.05 -0.44446
3.06 -0.413798
3.07 -0.390741
3.08 -0.378272
3.09 -0.376657
3.1 -0.386475
3.11 -0.407685
3.12 -0.438009
3.13 -0.476777
3.14 -0.520278
3.15 -0.566138
3.16 -0.611046
3.17 -0.652363
3.18 -0.686686
3.19 -0.712943
3.2 -0.728545
3.21 -0.733789
3.22 -0.728694
3.23 -0.714076
3.24 -0.692614
3.25 -0.666064
3.26 -0.638156
3.27 -0.611945
3.28 -0.590856
3.29 -0.577337
3.3 -0.574989
3.31 -0.583924
3.32 -0.60648
3.33 -0.641254
3.34 -0.68736
3.35 -0.742867
3.36 -0.804142
3.37 -0.868067
3.38 -0.930349
3.39 -0.986911
3.4 -1.03384
3.41 -1.06865
3.42 -1.08722
3.43 -1.0904
3.44 -1.07593
3.45 -1.04641
3.46 -1.00367
3.47 -0.950831
3.48 -0.892679
3.49 -0.833702
3.5 -0.778874
3.51 -0.733153
3.52 -0.700668
3.53 -0.683564
3.54 -0.685439
3.55 -0.703767
3.56 -0.738778
3.57 -0.785112
3.58 -0.837716
3.59 -0.888791
3.6 -0.930808
3.61 -0.951394
3.62 -0.943851
3.63 -0.89613
3.64 -0.799629
3.65 -0.649791
3.66 -0.434263
3.67 -0.158774
3.68 0.185026
3.69 0.588449
3.7 1.04722
3.71 1.55392
3.72 2.09324
3.73 2.65488
3.74 3.22007
3.75 3.77272
3.76 4.2946
3.77 4.77184
3.78 5.18151
3.79 5.51948
3.8 5.76424
3.81 5.91518
3.82 5.96582
3.83 5.91038
3.84 5.76191
3.85 5.51126
3.86 5.18201
3.87 4.77848
3.88 4.31731
3.89 3.81517
3.9 3.28577
3.91 2.74793
3.92 2.21683
3.93 1.70662
3.94 1.22929
3.95 0.797488
3.96 0.413244
3.97 0.0900867
3.98 -0.178697
3.99 -0.388716
4 -0.544365
4.01 -0.652589
4.02 -0.715165
4.03 -0.745081
4.04 -0.746313
4.05 -0.729563
4.06 -0.70163
4.07 -0.669622
4.08 -0.639158
4.09 -0.615625
4.1 -0.601094
4.11 -0.598005
4.12 -0.606484
4.13 -0.625227
4.14 -0.653355
4.15 -0.687225
4.16 -0.72444
4.17 -0.761403
4.18 -0.795165
4.19 -0.822415
4.2 -0.841679
4.21 -0.849548
4.22 -0.846509
4.23 -0.831116
4.24 -0.803792
4.25 -0.765737
4.26 -0.716993
4.27 -0.660325
4.28 -0.596361
4.29 -0.527408
4.3 -0.454835
4.31 -0.380017
4.32 -0.304223
4.33 -0.228295
4.34 -0.152866
4.35 -0.0783595
4.36 -0.00499125
4.37 0.0671865
4.38 0.137924
4.39 0.207262
4.4 0.274717
4.41 0.339956
4.42 0.402302
4.43 0.460625
4.44 0.514363
4.45 0.561326
4.46 0.601155
4.47 0.631915
4.48 0.652468
4.49 0.662358
4.5 0.659459
4.51 0.645064
4.52 0.617617
4.53 0.578622
4.54 0.528649
4.55 0.46856
4.56 0.400818
4.57 0.326217
4.58 0.247715
4.59 0.166984
4.6 0.086252
4.61 0.00722758
4.62 -0.0680167
4.63 -0.138727
4.64 -0.203288
4.65 -0.261605
4.66 -0.313387
4.67 -0.358505
4.68 -0.39807
4.69 -0.431941
4.7 -0.46177
4.71 -0.488102
4.72 -0.51199
4.73 -0.534303
4.74 -0.555621
4.75 -0.576521
4.76 -0.597211
4.77 -0.61774
4.78 -0.637941
4.79 -0.657425
4.8 -0.675865
4.81 -0.692514
4.82 -0.707139
4.83 -0.719161
4.84 -0.728326
4.85 -0.734668
4.86 -0.737945
4.87 -0.738826
4.88 -0.737482
4.89 -0.734736
4.9 -0.731248
4.91 -0.727845
4.92 -0.72521
4.93 -0.724255
4.94 -0.725301
4.95 -0.728892
4.96 -0.735167
4.97 -0.743948
4.98 -0.755234
4.99 -0.76826
5 -0.782624
5.01 -0.797493
5.02 -0.812191
5.03 -0.82594
5.04 -0.838301
5.05 -0.848536
5.06 -0.856689
5.07 -0.862531
5.08 -0.866272
5.09 -0.868313
5.1 -0.868976
5.11 -0.868936
5.12 -0.86863
5.13 -0.868494
5.14 -0.868733
5.15 -0.869304
5.16 -0.869835
5.17 -0.869469
5.18 -0.867207
5.19 -0.861429
5.2 -0.850269
5.21 -0.832178
5.22 -0.803922
5.23 -0.76489
5.24 -0.711681
5.25 -0.643831
5.26 -0.560119
5.27 -0.459299
5.28 -0.343431
5.29 -0.211239
5.3 -0.0669222
5.31 0.0878856
5.32 0.249228
5.33 0.413042
5.34 0.574393
5.35 0.729013
5.36 0.870868
5.37 0.996057
5.38 1.10026
5.39 1.17832
5.4 1.23037
5.41 1.24987
5.42 1.24049
5.43 1.19999
5.44 1.13044
5.45 1.03553
5.46 0.916029
5.47 0.779142
5.48 0.627483
5.49 0.467459
5.5 0.303736
5.51 0.141663
5.52 -0.0147954
5.53 -0.160142
5.54 -0.292649
5.55 -0.408839
5.56 -0.507318
5.57 -0.5884
5.58 -0.650204
5.59 -0.696205
5.6 -0.725972
5.61 -0.742913
5.62 -0.749005
5.63 -0.746393
5.64 -0.738092
5.65 -0.725518
5.66 -0.710971
5.67 -0.695505
5.68 -0.67996
5.69 -0.664574
5.7 -0.649123
5.71 -0.633032
5.72 -0.615265
5.73 -0.594837
5.74 -0.570675
5.75 -0.541482
5.76 -0.507099
5.77 -0.466184
5.78 -0.41964
5.79 -0.367452
5.8 -0.310731
5.81 -0.250968
5.82 -0.189806
5.83 -0.129371
5.84 -0.0720685
5.85 -0.0199802
5.86 0.024826
5.87 0.0598812
5.88 0.0848404
5.89 0.0968092
5.9 0.0970373
5.91 0.0845495
5.92 0.0601606
5.93 0.0254662
5.94 -0.019073
5.95 -0.0703946
5.96 -0.127243
5.97 -0.186963
5.98 -0.247645
5.99 -0.307214
6 -0.364326
6.01 -0.41716
6.02 -0.465491
6.03 -0.508587
6.04 -0.546604
6.05 -0.580227
6.06 -0.609809
6.07 -0.636849
6.08 -0.66219
6.09 -0.687141
6.1 -0.712655
6.11 -0.739671
6.12 -0.768516
6.13 -0.799717
6.14 -0.832787
6.15 -0.867384
6.16 -0.9026
6.17 -0.93745
6.18 -0.970523
6.19 -1.00089
6.2 -1.02699
6.21 -1.04814
6.22 -1.06364
6.23 -1.07283
6.24 -1.07642
6.25 -1.07404
6.26 -1.06735
6.27 -1.05713
6.28 -1.04496
6.29 -1.03225
6.3 -1.02054
6.31 -1.01079
6.32 -1.00406
6.33 -1.00033
6.34 -0.999185
6.35 -0.999402
6.36 -0.999003
6.37 -0.994679
6.38 -0.983393
6.39 -0.960486
6.4 -0.921125
6.41 -0.861814
6.42 -0.774606
6.43 -0.659012
6.44 -0.507321
6.45 -0.319252
6.46 -0.0926895
6.47 0.174843
6.48 0.477972
6.49 0.819487
6.5 1.18975
6.51 1.58527
6.52 1.99757
6.53 2.41785
6.54 2.83602
6.55 3.2426
6.56 3.62508
6.57 3.97454
6.58 4.28142
6.59 4.53369
6.6 4.73044
6.61 4.85592
6.62 4.91593
6.63 4.90331
6.64 4.81943
6.65 4.67037
6.66 4.45309
6.67 4.18275
6.68 3.86064
6.69 3.5002
6.7 3.1103
6.71 2.70106
6.72 2.28403
6.73 1.86946
6.74 1.4665
6.75 1.08438
6.76 0.730682
6.77 0.409119
6.78 0.128582
6.79 -0.113958
6.8 -0.312476
6.81 -0.470761
6.82 -0.590009
6.83 -0.671316
6.84 -0.722124
6.85 -0.742313
6.86 -0.740728
6.87 -0.72029
6.88 -0.686354
6.89 -0.643662
6.9 -0.595615
6.91 -0.546116
6.92 -0.49778
6.93 -0.452642
6.94 -0.412043
6.95 -0.377149
6.96 -0.347653
6.97 -0.324399
6.98 -0.30624
6.99 -0.293147
7 -0.284526
7.01 -0.279726
7.02 -0.278862
7.03 -0.281252
7.04 -0.287337
7.05 -0.297029
7.06 -0.310656
7.07 -0.328861
7.08 -0.351506
7.09 -0.379691
7.1 -0.412862
7.11 -0.45141
7.12 -0.494991
7.13 -0.542842
7.14 -0.594575
7.15 -0.648641
7.16 -0.703992
7.17 -0.759012
7.18 -0.812263
7.19 -0.861952
7.2 -0.907181
7.21 -0.945847
7.22 -0.977905
7.23 -1.00227
7.24 -1.01882
7.25 -1.02823
7.26 -1.03029
7.27 -1.02695
7.28 -1.01886
7.29 -1.00793
7.3 -0.995632
7.31 -0.983648
7.32 -0.973233
7.33 -0.965955
7.34 -0.962179
7.35 -0.962499
7.36 -0.966661
7.37 -0.973793
7.38 -0.982828
7.39 -0.991833
7.4 -0.998547
7.41 -1.00055
7.42 -0.995324
7.43 -0.979477
7.44 -0.951859
7.45 -0.90801
7.46 -0.848301
7.47 -0.770295
7.48 -0.673623
7.49 -0.559544
7.5 -0.426989
7.51 -0.280172
7.52 -0.119891
7.53 0.0495284
7.54 0.224685
7.55 0.401304
7.56 0.575298
7.57 0.741289
7.58 0.896077
7.59 1.03493
7.6 1.15422
7.61 1.25242
7.62 1.32428
7.63 1.372
7.64 1.39179
7.65 1.38589
7.66 1.35492
7.67 1.29931
7.68 1.22374
7.69 1.12806
7.7 1.01806
7.71 0.895924
7.72 0.765603
7.73 0.630764
7.74 0.494745
7.75 0.360763
7.76 0.232113
7.77 0.111097
7.78 -0.000181892
7.79 -0.0991815
7.8 -0.186
7.81 -0.25758
7.82 -0.31539
7.83 -0.358189
7.84 -0.386321
7.85 -0.401085
7.86 -0.40165
7.87 -0.390942
7.88 -0.368837
7.89 -0.337713
7.9 -0.299049
7.91 -0.254439
7.92 -0.206274
7.93 -0.156239
7.94 -0.10664
7.95 -0.0595017
7.96 -0.0169655
7.97 0.0195356
7.98 0.0472705
7.99 0.0660412
8 0.0734972
8.01 0.0696125
8.02 0.0539163
8.03 0.025733
8.04 -0.0131863
8.05 -0.0636277
8.06 -0.122813
8.07 -0.189862
8.08 -0.262662
8.09 -0.339004
8.1 -0.416883
8.11 -0.494054
8.12 -0.568348
8.13 -0.638118
8.14 -0.70197
8.15 -0.75837
8.16 -0.807554
8.17 -0.848153
8.18 -0.881571
8.19 -0.907916
8.2 -0.928343
8.21 -0.94432
8.22 -0.956804
8.23 -0.967523
8.24 -0.977438
8.25 -0.987486
8.26 -0.998058
8.27 -1.00906
8.28 -1.01982
8.29 -1.02882
8.3 -1.03432
8.31 -1.03362
8.32 -1.02358
8.33 -1.00176
8.34 -0.962687
8.35 -0.905492
8.36 -0.824616
8.37 -0.718972
8.38 -0.586564
8.39 -0.424577
8.4 -0.236152
8.41 -0.0181509
8.42 0.223316
8.43 0.486706
8.44 0.766881
8.45 1.0578
8.46 1.35352
8.47 1.64667
8.48 1.92926
8.49 2.19422
8.5 2.43466
8.51 2.6416
8.52 2.81328
8.53 2.93847
8.54 3.01955
8.55 3.051
8.56 3.0324
8.57 2.96743
8.58 2.85255
8.59 2.69805
8.6 2.50392
8.61 2.27908
8.62 2.02954
8.63 1.76175
8.64 1.48433
8.65 1.20379
8.66 0.927399
8.67 0.661498
8.68 0.411899
8.69 0.181651
8.7 -0.0228274
8.71 -0.202946
8.72 -0.354502
8.73 -0.479516
8.74 -0.578794
8.75 -0.652874
8.76 -0.706837
8.77 -0.740863
8.78 -0.760934
8.79 -0.769411
8.8 -0.77014
8.81 -0.766536
8.82 -0.761346
8.83 -0.757114
8.84 -0.755928
8.85 -0.75898
8.86 -0.767016
8.87 -0.780618
8.88 -0.798971
8.89 -0.822148
8.9 -0.848597
8.91 -0.877474
8.92 -0.907441
8.93 -0.937339
8.94 -0.96588
8.95 -0.992352
8.96 -1.01575
8.97 -1.03581
8.98 -1.05235
8.99 -1.06522
9 -1.07511
9.01 -1.0821
9.02 -1.0872
9.03 -1.09095
9.04 -1.0941
9.05 -1.09728
9.06 -1.10105
9.07 -1.10564
9.08 -1.11124
9.09 -1.11761
9.1 -1.12436
9.11 -1.13079
9.12 -1.13612
9.13 -1.139
9.14 -1.13856
9.15 -1.13337
9.16 -1.12215
9.17 -1.10428
9.18 -1.0778
9.19 -1.04324
9.2 -0.999206
9.21 -0.946315
9.22 -0.884871
9.23 -0.81518
9.24 -0.739174
9.25 -0.657494
9.26 -0.572666
9.27 -0.486429
9.28 -0.401177
9.29 -0.318894
9.3 -0.242544
9.31 -0.173325
9.32 -0.114076
9.33 -0.0657603
9.34 -0.0295164
9.35 -0.00692187
9.36 0.00329381
9.37 -0.000596636
9.38 -0.0160503
9.39 -0.0427577
9.4 -0.0789308
9.41 -0.122249
9.42 -0.171215
9.43 -0.22288
9.44 -0.275226
9.45 -0.325909
9.46 -0.37307
9.47 -0.414585
9.48 -0.449867
9.49 -0.476899
9.5 -0.496291
9.51 -0.507507
9.52 -0.51109
9.53 -0.508296
9.54 -0.499628
9.55 -0.487278
9.56 -0.47243
9.57 -0.456981
9.58 -0.442421
9.59 -0.43044
9.6 -0.421876
9.61 -0.41834
9.62 -0.419808
9.63 -0.4269
9.64 -0.439513
9.65 -0.456955
9.66 -0.479146
9.67 -0.504634
9.68 -0.532859
9.69 -0.562616
9.7 -0.593049
9.71 -0.623304
9.72 -0.652838
9.73 -0.68108
9.74 -0.708018
9.75 -0.733592
9.76 -0.758025
9.77 -0.781663
9.78 -0.804762
9.79 -0.827615
9.8 -0.850226
9.81 -0.872327
9.82 -0.893297
9.83 -0.911786
9.84 -0.926553
9.85 -0.934536
9.86 -0.933843
9.87 -0.920766
9.88 -0.891504
9.89 -0.843723
9.9 -0.770576
9.91 -0.672138
9.92 -0.541958
9.93 -0.379445
9.94 -0.182911
9.95 0.0506724
9.96 0.316826
9.97 0.618903
9.98 0.949333
9.99 1.30593
10 1.68252
10.01 2.07176
10.02 2.46662
10.03 2.85834
10.04 3.23754
10.05 3.59579
10.06 3.92509
10.07 4.21459
10.08 4.46221
10.09 4.65458
10.1 4.79407
10.11 4.87404
10.12 4.89323
10.13 4.85595
10.14 4.75683
10.15 4.60799
10.16 4.40849
10.17 4.16831
10.18 3.89414
10.19 3.5926
10.2 3.27417
10.21 2.94527
10.22 2.61512
10.23 2.29067
10.24 1.97894
10.25 1.68407
10.26 1.41335
10.27 1.16643
10.28 0.94821
10.29 0.757533
10.3 0.59404
10.31 0.457974
10.32 0.344292
10.33 0.253446
10.34 0.179313
10.35 0.119702
10.36 0.0707373
10.37 0.0286384
10.38 -0.00926327
10.39 -0.0462009
10.4 -0.0844154
10.41 -0.125699
10.42 -0.171214
10.43 -0.222057
10.44 -0.277848
10.45 -0.339149
10.46 -0.404686
10.47 -0.473905
10.48 -0.545605
10.49 -0.618506
10.5 -0.691272
10.51 -0.762659
10.52 -0.83119
10.53 -0.895805
10.54 -0.955512
10.55 -1.00894
10.56 -1.05608
10.57 -1.09522
10.58 -1.12689
10.59 -1.15028
10.6 -1.16521
10.61 -1.17223
10.62 -1.1704
10.63 -1.1612
10.64 -1.14416
10.65 -1.12035
10.66 -1.09042
10.67 -1.05486
10.68 -1.01513
10.69 -0.971685
10.7 -0.926086
10.71 -0.879277
10.72 -0.83252
10.73 -0.786845
10.74 -0.743664
10.75 -0.703608
10.76 -0.667993
10.77 -0.637341
10.78 -0.612205
10.79 -0.593436
10.8 -0.580538
10.81 -0.574504
10.82 -0.574359
10.83 -0.580229
10.84 -0.591646
10.85 -0.60776
10.86 -0.628521
10.87 -0.652646
10.88 -0.679852
10.89 -0.709237
10.9 -0.740201
10.91 -0.772182
10.92 -0.804574
10.93 -0.836912
10.94 -0.868783
10.95 -0.899802
10.96 -0.929623
10.97 -0.958072
10.98 -0.984662
10.99 -1.00943
11 -1.03195
11.01 -1.05215
11.02 -1.0699
11.03 -1.08491
11.04 -1.09744
11.05 -1.10712
11.06 -1.1144
11.07 -1.11931
11.08 -1.1222
11.09 -1.12356
11.1 -1.12374
11.11 -1.12343
11.12 -1.12314
11.13 -1.12344
11.14 -1.12477
11.15 -1.12754
11.16 -1.1317
11.17 -1.1373
11.18 -1.14368
11.19 -1.15009
11.2 -1.15521
11.21 -1.15771
11.22 -1.15499
11.23 -1.14562
11.24 -1.12626
11.25 -1.09482
11.26 -1.04893
11.27 -0.984827
11.28 -0.902591
11.29 -0.797416
11.3 -0.670943
11.31 -0.521302
11.32 -0.348839
11.33 -0.156181
11.34 0.0571274
11.35 0.285326
11.36 0.526334
11.37 0.774566
11.38 1.02523
11.39 1.27225
11.4 1.51077
11.41 1.73304
11.42 1.93546
11.43 2.11181
11.44 2.25723
11.45 2.37062
11.46 2.44444
11.47 2.48282
11.48 2.48109
11.49 2.4426
11.5 2.36927
11.51 2.26198
11.52 2.12804
11.53 1.96823
11.54 1.79073
11.55 1.59945
11.56 1.40016
11.57 1.19805
11.58 0.998199
11.59 0.804355
11.6 0.620884
11.61 0.450069
11.62 0.293678
11.63 0.153987
11.64 0.0294036
11.65 -0.0781307
11.66 -0.171728
11.67 -0.251945
11.68 -0.320802
11.69 -0.380956
11.7 -0.433611
11.71 -0.481781
11.72 -0.526788
11.73 -0.570428
11.74 -0.613768
11.75 -0.657596
11.76 -0.702112
11.77 -0.747259
11.78 -0.792404
11.79 -0.836689
11.8 -0.878846
11.81 -0.917809
11.82 -0.951437
11.83 -0.979044
11.84 -0.998413
11.85 -1.00864
11.86 -1.00867
11.87 -0.996713
11.88 -0.973458
11.89 -0.936614
11.9 -0.887631
11.91 -0.825799
11.92 -0.751459
11.93 -0.666028
11.94 -0.568886
11.95 -0.462723
11.96 -0.347768
11.97 -0.226141
11.98 -0.0994473
11.99 0.030578
12 0.161715
12.01 0.291772
12.02 0.418631
12.03 0.539898
12.04 0.653073
12.05 0.756736
12.06 0.847115
12.07 0.92426
12.08 0.984898
12.09 1.02866
12.1 1.05479
12.11 1.06151
12.12 1.05105
12.13 1.02129
12.14 0.975601
12.15 0.914422
12.16 0.839825
12.17 0.75484
12.18 0.660939
12.19 0.562033
12.2 0.46038
12.21 0.359029
12.22 0.260338
12.23 0.167018
12.24 0.0801398
12.25 0.00221651
12.26 -0.0669946
12.27 -0.126681
12.28 -0.177097
12.29 -0.219587
12.3 -0.254371
12.31 -0.284009
12.32 -0.309652
12.33 -0.333464
12.34 -0.357104
12.35 -0.382358
12.36 -0.410231
12.37 -0.442125
12.38 -0.477981
12.39 -0.517943
12.4 -0.561333
