# xPDFsuite Configuration #
[PDF]
wavelength = 0.1432
dataformat = twotheta
inputfile = 1_1Pd_CeO2_cycle-00418.chi
backgroundfile = background-00000.chi
mode = xray
bgscale = 1.007
composition = CeO2
outputtype = gr
qmaxinst = 28.8974762299
qmin = 0.5
qmax = 27.9
rmax = 50.0
rmin = 0.0
rstep = 0.01
rpoly = 1.8657

[Misc]
inputdir = G:/SankarDec16/1Pd/Chi
savedir = D:/DATA/APS_CeO2/1Pd
backgroundfilefull = G:/SankarDec16/Background/background-00000.chi

#### start data
#S 1
#L r($\AA$)  G($\AA^{-2}$)
0 0
0.01 -0.00451308
0.02 -0.00868703
0.03 -0.0121726
0.04 -0.0147066
0.05 -0.0161422
0.06 -0.0162437
0.07 -0.015167
0.08 -0.0128355
0.09 -0.00954757
0.1 -0.00550928
0.11 -0.00103656
0.12 0.00352489
0.13 0.00778835
0.14 0.0114778
0.15 0.0142564
0.16 0.0159258
0.17 0.0164053
0.18 0.0155323
0.19 0.0135353
0.2 0.0104204
0.21 0.00653492
0.22 0.0021349
0.23 -0.00242532
0.24 -0.00681952
0.25 -0.0106311
0.26 -0.0136596
0.27 -0.0155965
0.28 -0.0163169
0.29 -0.0158103
0.3 -0.0139949
0.31 -0.0111611
0.32 -0.00739768
0.33 -0.00308534
0.34 0.00148195
0.35 0.00592728
0.36 0.00995904
0.37 0.0131499
0.38 0.0153841
0.39 0.0163956
0.4 0.016139
0.41 0.0146747
0.42 0.0120052
0.43 0.00847015
0.44 0.0042369
0.45 -0.000297904
0.46 -0.00481577
0.47 -0.00893436
0.48 -0.0124102
0.49 -0.0148249
0.5 -0.0161529
0.51 -0.0161832
0.52 -0.014952
0.53 -0.0125878
0.54 -0.00917837
0.55 -0.00509638
0.56 -0.000580499
0.57 0.00397463
0.58 0.00824081
0.59 0.0118476
0.6 0.0146112
0.61 0.0161413
0.62 0.0165042
0.63 0.0155535
0.64 0.0134057
0.65 0.010252
0.66 0.00626116
0.67 0.0018222
0.68 -0.00276599
0.69 -0.0071287
0.7 -0.0109433
0.71 -0.013868
0.72 -0.0157873
0.73 -0.016357
0.74 -0.0157316
0.75 -0.0138359
0.76 -0.0108611
0.77 -0.00705107
0.78 -0.00264687
0.79 0.00196483
0.8 0.00644106
0.81 0.0104452
0.82 0.013677
0.83 0.0158416
0.84 0.0168972
0.85 0.0165653
0.86 0.0150802
0.87 0.0124429
0.88 0.00890894
0.89 0.00476163
0.9 0.000300806
0.91 -0.00411297
0.92 -0.00811487
0.93 -0.0114301
0.94 -0.0138049
0.95 -0.0150183
0.96 -0.0151131
0.97 -0.0139136
0.98 -0.0117282
0.99 -0.00865707
1 -0.00502206
1.01 -0.00114143
1.02 0.00261346
1.03 0.00593464
1.04 0.00842811
1.05 0.00990791
1.06 0.0101799
1.07 0.00911602
1.08 0.00687325
1.09 0.0034015
1.1 -0.000881181
1.11 -0.00573953
1.12 -0.0107426
1.13 -0.0154989
1.14 -0.0194945
1.15 -0.0224473
1.16 -0.0238399
1.17 -0.0235402
1.18 -0.0213436
1.19 -0.0171317
1.2 -0.0111739
1.21 -0.00339881
1.22 0.00560713
1.23 0.0155588
1.24 0.0259034
1.25 0.0361384
1.26 0.0456305
1.27 0.0539794
1.28 0.0605178
1.29 0.0649985
1.3 0.0670783
1.31 0.0664655
1.32 0.0633727
1.33 0.0574412
1.34 0.049279
1.35 0.0389506
1.36 0.026931
1.37 0.0136964
1.38 -0.000322469
1.39 -0.0145467
1.4 -0.0284698
1.41 -0.0416291
1.42 -0.0535993
1.43 -0.0639305
1.44 -0.0725209
1.45 -0.0788115
1.46 -0.0830024
1.47 -0.0848125
1.48 -0.0843053
1.49 -0.0816198
1.5 -0.0766415
1.51 -0.0698025
1.52 -0.0610405
1.53 -0.0507528
1.54 -0.0391262
1.55 -0.0264101
1.56 -0.012976
1.57 0.000933887
1.58 0.0149094
1.59 0.028597
1.6 0.0415912
1.61 0.0535563
1.62 0.0639257
1.63 0.0725372
1.64 0.0787586
1.65 0.0824738
1.66 0.0833676
1.67 0.0811367
1.68 0.0760202
1.69 0.0675516
1.7 0.0563811
1.71 0.0425153
1.72 0.026462
1.73 0.00877367
1.74 -0.0100415
1.75 -0.0292128
1.76 -0.0480464
1.77 -0.0658536
1.78 -0.0819878
1.79 -0.0957478
1.8 -0.106957
1.81 -0.114807
1.82 -0.119647
1.83 -0.121208
1.84 -0.119805
1.85 -0.115903
1.86 -0.109826
1.87 -0.10246
1.88 -0.094391
1.89 -0.0864572
1.9 -0.079354
1.91 -0.0738498
1.92 -0.0702781
1.93 -0.0694318
1.94 -0.0711161
1.95 -0.0755862
1.96 -0.082549
1.97 -0.0915379
1.98 -0.102111
1.99 -0.113377
2 -0.124544
2.01 -0.134695
2.02 -0.142955
2.03 -0.148307
2.04 -0.150367
2.05 -0.147852
2.06 -0.140999
2.07 -0.129131
2.08 -0.112325
2.09 -0.0909027
2.1 -0.0647076
2.11 -0.034777
2.12 -0.00118617
2.13 0.0350973
2.14 0.073539
2.15 0.113533
2.16 0.154414
2.17 0.195781
2.18 0.237181
2.19 0.278339
2.2 0.319057
2.21 0.359243
2.22 0.398752
2.23 0.437608
2.24 0.475613
2.25 0.512665
2.26 0.548477
2.27 0.582549
2.28 0.614566
2.29 0.643375
2.3 0.668632
2.31 0.689087
2.32 0.703823
2.33 0.712196
2.34 0.712488
2.35 0.70503
2.36 0.688173
2.37 0.662455
2.38 0.627682
2.39 0.58391
2.4 0.532702
2.41 0.474012
2.42 0.410317
2.43 0.342764
2.44 0.273436
2.45 0.20418
2.46 0.137211
2.47 0.0739595
2.48 0.0166541
2.49 -0.0338575
2.5 -0.0765069
2.51 -0.110393
2.52 -0.136332
2.53 -0.153381
2.54 -0.16364
2.55 -0.167609
2.56 -0.167025
2.57 -0.163589
2.58 -0.158957
2.59 -0.154879
2.6 -0.153062
2.61 -0.15464
2.62 -0.160592
2.63 -0.171706
2.64 -0.187574
2.65 -0.208662
2.66 -0.233499
2.67 -0.261404
2.68 -0.290883
2.69 -0.320525
2.7 -0.348624
2.71 -0.374028
2.72 -0.395049
2.73 -0.411084
2.74 -0.421458
2.75 -0.425749
2.76 -0.424808
2.77 -0.418522
2.78 -0.408729
2.79 -0.396438
2.8 -0.383405
2.81 -0.371171
2.82 -0.361665
2.83 -0.355897
2.84 -0.355609
2.85 -0.361137
2.86 -0.37294
2.87 -0.391119
2.88 -0.41447
2.89 -0.44265
2.9 -0.473514
2.91 -0.505611
2.92 -0.53687
2.93 -0.565583
2.94 -0.589422
2.95 -0.607579
2.96 -0.618066
2.97 -0.620852
2.98 -0.615631
2.99 -0.602543
3 -0.583249
3.01 -0.558347
3.02 -0.53048
3.03 -0.501441
3.04 -0.473657
3.05 -0.449073
3.06 -0.430315
3.07 -0.41817
3.08 -0.41477
3.09 -0.419974
3.1 -0.433961
3.11 -0.456382
3.12 -0.485278
3.13 -0.519776
3.14 -0.556966
3.15 -0.594803
3.16 -0.630687
3.17 -0.662631
3.18 -0.687942
3.19 -0.70606
3.2 -0.715033
3.21 -0.715388
3.22 -0.707355
3.23 -0.691843
3.24 -0.671187
3.25 -0.647087
3.26 -0.622617
3.27 -0.60044
3.28 -0.583406
3.29 -0.573506
3.3 -0.573802
3.31 -0.584233
3.32 -0.606797
3.33 -0.640207
3.34 -0.68369
3.35 -0.735604
3.36 -0.792812
3.37 -0.852724
3.38 -0.911612
3.39 -0.966021
3.4 -1.01256
3.41 -1.04901
3.42 -1.07176
3.43 -1.08136
3.44 -1.07566
3.45 -1.05665
3.46 -1.02562
3.47 -0.98488
3.48 -0.938374
3.49 -0.889405
3.5 -0.842232
3.51 -0.800734
3.52 -0.768333
3.53 -0.746891
3.54 -0.73922
3.55 -0.743532
3.56 -0.759856
3.57 -0.783961
3.58 -0.811657
3.59 -0.836407
3.6 -0.8521
3.61 -0.848097
3.62 -0.818964
3.63 -0.754337
3.64 -0.64686
3.65 -0.492615
3.66 -0.280754
3.67 -0.0162072
3.68 0.30854
3.69 0.686068
3.7 1.11286
3.71 1.58268
3.72 2.08214
3.73 2.60246
3.74 3.12698
3.75 3.64147
3.76 4.12956
3.77 4.57862
3.78 4.96778
3.79 5.2928
3.8 5.53372
3.81 5.68924
3.82 5.75275
3.83 5.71805
3.84 5.59642
3.85 5.37824
3.86 5.08477
3.87 4.71905
3.88 4.29593
3.89 3.83067
3.9 3.33525
3.91 2.82779
3.92 2.32205
3.93 1.83199
3.94 1.36925
3.95 0.94626
3.96 0.565901
3.97 0.241453
3.98 -0.0323786
3.99 -0.250771
4 -0.417144
4.01 -0.537578
4.02 -0.613157
4.03 -0.656148
4.04 -0.669991
4.05 -0.665046
4.06 -0.647889
4.07 -0.62549
4.08 -0.603615
4.09 -0.587605
4.1 -0.579844
4.11 -0.582868
4.12 -0.596982
4.13 -0.620997
4.14 -0.654031
4.15 -0.692453
4.16 -0.733698
4.17 -0.774034
4.18 -0.810301
4.19 -0.838903
4.2 -0.858308
4.21 -0.864737
4.22 -0.858843
4.23 -0.839102
4.24 -0.806152
4.25 -0.761522
4.26 -0.705618
4.27 -0.641766
4.28 -0.571197
4.29 -0.496801
4.3 -0.420519
4.31 -0.344383
4.32 -0.26978
4.33 -0.198265
4.34 -0.130077
4.35 -0.0657518
4.36 -0.00506235
4.37 0.0525626
4.38 0.107486
4.39 0.160734
4.4 0.212777
4.41 0.26423
4.42 0.315309
4.43 0.365899
4.44 0.415646
4.45 0.463463
4.46 0.508456
4.47 0.548949
4.48 0.583268
4.49 0.610152
4.5 0.626832
4.51 0.633246
4.52 0.626771
4.53 0.607647
4.54 0.575345
4.55 0.529488
4.56 0.472155
4.57 0.402851
4.58 0.324993
4.59 0.239895
4.6 0.150289
4.61 0.0587091
4.62 -0.0321568
4.63 -0.1201
4.64 -0.202434
4.65 -0.277718
4.66 -0.344522
4.67 -0.401451
4.68 -0.449192
4.69 -0.48634
4.7 -0.514992
4.71 -0.535381
4.72 -0.5491
4.73 -0.557871
4.74 -0.562977
4.75 -0.566434
4.76 -0.5696
4.77 -0.573843
4.78 -0.580135
4.79 -0.589341
4.8 -0.60147
4.81 -0.617015
4.82 -0.635177
4.83 -0.655611
4.84 -0.677418
4.85 -0.699696
4.86 -0.721394
4.87 -0.741701
4.88 -0.759557
4.89 -0.774461
4.9 -0.785927
4.91 -0.793535
4.92 -0.797697
4.93 -0.798117
4.94 -0.795774
4.95 -0.791045
4.96 -0.784787
4.97 -0.777824
4.98 -0.771024
4.99 -0.765116
5 -0.760959
5.01 -0.759013
5.02 -0.759714
5.03 -0.763475
5.04 -0.770049
5.05 -0.779808
5.06 -0.792059
5.07 -0.806637
5.08 -0.82295
5.09 -0.84036
5.1 -0.858218
5.11 -0.87576
5.12 -0.892112
5.13 -0.906504
5.14 -0.918087
5.15 -0.925718
5.16 -0.928966
5.17 -0.925994
5.18 -0.916677
5.19 -0.899484
5.2 -0.873485
5.21 -0.838266
5.22 -0.791738
5.23 -0.734717
5.24 -0.665253
5.25 -0.584057
5.26 -0.49097
5.27 -0.385862
5.28 -0.270724
5.29 -0.145305
5.3 -0.0127535
5.31 0.125421
5.32 0.266307
5.33 0.407077
5.34 0.544014
5.35 0.674389
5.36 0.793698
5.37 0.899306
5.38 0.988035
5.39 1.05595
5.4 1.10318
5.41 1.12435
5.42 1.12214
5.43 1.09434
5.44 1.04208
5.45 0.967882
5.46 0.871566
5.47 0.758745
5.48 0.630761
5.49 0.492741
5.5 0.348291
5.51 0.201634
5.52 0.0565855
5.53 -0.082383
5.54 -0.212845
5.55 -0.331398
5.56 -0.43596
5.57 -0.525943
5.58 -0.598745
5.59 -0.656608
5.6 -0.698162
5.61 -0.725854
5.62 -0.740911
5.63 -0.74473
5.64 -0.740274
5.65 -0.728412
5.66 -0.712033
5.67 -0.69236
5.68 -0.670907
5.69 -0.648666
5.7 -0.626231
5.71 -0.603831
5.72 -0.581335
5.73 -0.558318
5.74 -0.534197
5.75 -0.508118
5.76 -0.479642
5.77 -0.447667
5.78 -0.412255
5.79 -0.372963
5.8 -0.330033
5.81 -0.284113
5.82 -0.235816
5.83 -0.186572
5.84 -0.137757
5.85 -0.0910267
5.86 -0.0480179
5.87 -0.0108223
5.88 0.019735
5.89 0.0409757
5.9 0.0530992
5.91 0.0546345
5.92 0.0454184
5.93 0.0261233
5.94 -0.00386179
5.95 -0.0422211
5.96 -0.0887314
5.97 -0.141173
5.98 -0.198055
5.99 -0.257663
6 -0.318169
6.01 -0.377943
6.02 -0.43573
6.03 -0.490306
6.04 -0.540884
6.05 -0.58727
6.06 -0.628808
6.07 -0.666309
6.08 -0.699679
6.09 -0.729854
6.1 -0.757445
6.11 -0.783121
6.12 -0.807695
6.13 -0.831619
6.14 -0.855375
6.15 -0.879143
6.16 -0.902919
6.17 -0.92652
6.18 -0.949504
6.19 -0.971487
6.2 -0.991757
6.21 -1.00987
6.22 -1.02533
6.23 -1.0376
6.24 -1.04684
6.25 -1.05251
6.26 -1.05531
6.27 -1.05534
6.28 -1.0532
6.29 -1.0495
6.3 -1.04468
6.31 -1.03926
6.32 -1.03337
6.33 -1.02688
6.34 -1.01921
6.35 -1.00909
6.36 -0.995319
6.37 -0.974809
6.38 -0.94577
6.39 -0.904413
6.4 -0.84715
6.41 -0.771526
6.42 -0.671112
6.43 -0.546009
6.44 -0.389929
6.45 -0.20291
6.46 0.016696
6.47 0.2709
6.48 0.555151
6.49 0.871841
6.5 1.21288
6.51 1.57539
6.52 1.95224
6.53 2.33596
6.54 2.71797
6.55 3.09007
6.56 3.44142
6.57 3.76415
6.58 4.04977
6.59 4.28751
6.6 4.47628
6.61 4.60182
6.62 4.66886
6.63 4.6706
6.64 4.60775
6.65 4.48538
6.66 4.30009
6.67 4.0653
6.68 3.78153
6.69 3.46071
6.7 3.11061
6.71 2.73998
6.72 2.35956
6.73 1.97814
6.74 1.60454
6.75 1.24706
6.76 0.912852
6.77 0.605686
6.78 0.333724
6.79 0.0948122
6.8 -0.1054
6.81 -0.269897
6.82 -0.399459
6.83 -0.494759
6.84 -0.562273
6.85 -0.601587
6.86 -0.620554
6.87 -0.621583
6.88 -0.609356
6.89 -0.588096
6.9 -0.560602
6.91 -0.530489
6.92 -0.499863
6.93 -0.4706
6.94 -0.443836
6.95 -0.420484
6.96 -0.400427
6.97 -0.384151
6.98 -0.370884
6.99 -0.360507
7 -0.352578
7.01 -0.346687
7.02 -0.342905
7.03 -0.340962
7.04 -0.341303
7.05 -0.344146
7.06 -0.349988
7.07 -0.359642
7.08 -0.373238
7.09 -0.392031
7.1 -0.415728
7.11 -0.444928
7.12 -0.479531
7.13 -0.518961
7.14 -0.56316
7.15 -0.610671
7.16 -0.660792
7.17 -0.712005
7.18 -0.763035
7.19 -0.812311
7.2 -0.858807
7.21 -0.900715
7.22 -0.937673
7.23 -0.968608
7.24 -0.993187
7.25 -1.01173
7.26 -1.02383
7.27 -1.03092
7.28 -1.03326
7.29 -1.03229
7.3 -1.02903
7.31 -1.02462
7.32 -1.02009
7.33 -1.01637
7.34 -1.01385
7.35 -1.01282
7.36 -1.013
7.37 -1.01378
7.38 -1.01403
7.39 -1.0125
7.4 -1.00719
7.41 -0.996411
7.42 -0.978224
7.43 -0.950008
7.44 -0.91118
7.45 -0.858223
7.46 -0.79183
7.47 -0.710242
7.48 -0.613452
7.49 -0.502713
7.5 -0.377436
7.51 -0.241158
7.52 -0.09475
7.53 0.0582375
7.54 0.214995
7.55 0.372002
7.56 0.526083
7.57 0.672824
7.58 0.809836
7.59 0.933326
7.6 1.04045
7.61 1.13008
7.62 1.19793
7.63 1.24584
7.64 1.27061
7.65 1.27398
7.66 1.25629
7.67 1.21758
7.68 1.16156
7.69 1.08758
7.7 1.00028
7.71 0.901037
7.72 0.79283
7.73 0.678613
7.74 0.560679
7.75 0.442006
7.76 0.325054
7.77 0.212087
7.78 0.10507
7.79 0.00639034
7.8 -0.0834305
7.81 -0.161483
7.82 -0.228314
7.83 -0.282354
7.84 -0.323283
7.85 -0.35176
7.86 -0.366403
7.87 -0.36957
7.88 -0.360622
7.89 -0.341583
7.9 -0.313648
7.91 -0.278111
7.92 -0.237449
7.93 -0.193065
7.94 -0.147562
7.95 -0.10295
7.96 -0.0615445
7.97 -0.025014
7.98 0.0038599
7.99 0.0245671
8 0.0347009
8.01 0.0340443
8.02 0.0220298
8.03 -0.00208894
8.04 -0.0366654
8.05 -0.082507
8.06 -0.136926
8.07 -0.19909
8.08 -0.266964
8.09 -0.338423
8.1 -0.411584
8.11 -0.484293
8.12 -0.554546
8.13 -0.620794
8.14 -0.681761
8.15 -0.736054
8.16 -0.783883
8.17 -0.824022
8.18 -0.857726
8.19 -0.885074
8.2 -0.907056
8.21 -0.92493
8.22 -0.939426
8.23 -0.952002
8.24 -0.96332
8.25 -0.974076
8.26 -0.98445
8.27 -0.994118
8.28 -1.00245
8.29 -1.00776
8.3 -1.00862
8.31 -1.00249
8.32 -0.986568
8.33 -0.958879
8.34 -0.914535
8.35 -0.853115
8.36 -0.769799
8.37 -0.663955
8.38 -0.534057
8.39 -0.377884
8.4 -0.198444
8.41 0.00679312
8.42 0.232323
8.43 0.476663
8.44 0.735259
8.45 1.00285
8.46 1.27426
8.47 1.54318
8.48 1.80275
8.49 2.04694
8.5 2.26989
8.51 2.46387
8.52 2.62738
8.53 2.75067
8.54 2.83569
8.55 2.87747
8.56 2.87533
8.57 2.83218
8.58 2.74435
8.59 2.62049
8.6 2.45984
8.61 2.26975
8.62 2.05494
8.63 1.82035
8.64 1.57355
8.65 1.31932
8.66 1.06449
8.67 0.814338
8.68 0.574226
8.69 0.347437
8.7 0.139768
8.71 -0.0488492
8.72 -0.214147
8.73 -0.356795
8.74 -0.47659
8.75 -0.572893
8.76 -0.649475
8.77 -0.70523
8.78 -0.745156
8.79 -0.770566
8.8 -0.784543
8.81 -0.790288
8.82 -0.789792
8.83 -0.786295
8.84 -0.781716
8.85 -0.778113
8.86 -0.77691
8.87 -0.779514
8.88 -0.786173
8.89 -0.79794
8.9 -0.814155
8.91 -0.834856
8.92 -0.859417
8.93 -0.886932
8.94 -0.916799
8.95 -0.947802
8.96 -0.979108
8.97 -1.00975
8.98 -1.03895
8.99 -1.06585
9 -1.09018
9.01 -1.11106
9.02 -1.1287
9.03 -1.14274
9.04 -1.15322
9.05 -1.16049
9.06 -1.16435
9.07 -1.16548
9.08 -1.16382
9.09 -1.15979
9.1 -1.15353
9.11 -1.145
9.12 -1.13445
9.13 -1.12141
9.14 -1.10598
9.15 -1.08767
9.16 -1.06607
9.17 -1.04099
9.18 -1.01144
9.19 -0.977642
9.2 -0.938692
9.21 -0.894713
9.22 -0.845622
9.23 -0.791249
9.24 -0.732492
9.25 -0.669304
9.26 -0.603091
9.27 -0.534666
9.28 -0.465426
9.29 -0.396722
9.3 -0.330411
9.31 -0.267701
9.32 -0.210689
9.33 -0.160554
9.34 -0.118562
9.35 -0.0864458
9.36 -0.0638462
9.37 -0.0528058
9.38 -0.0519163
9.39 -0.061604
9.4 -0.0810378
9.41 -0.108637
9.42 -0.143903
9.43 -0.184202
9.44 -0.228284
9.45 -0.273887
9.46 -0.31924
9.47 -0.362304
9.48 -0.401863
9.49 -0.435847
9.5 -0.463955
9.51 -0.485151
9.52 -0.499221
9.53 -0.506767
9.54 -0.507539
9.55 -0.503326
9.56 -0.494703
9.57 -0.483395
9.58 -0.470766
9.59 -0.4584
9.6 -0.44756
9.61 -0.439907
9.62 -0.436084
9.63 -0.437111
9.64 -0.443474
9.65 -0.454976
9.66 -0.472139
9.67 -0.493771
9.68 -0.519757
9.69 -0.548947
9.7 -0.580491
9.71 -0.613484
9.72 -0.646937
9.73 -0.680013
9.74 -0.712075
9.75 -0.742537
9.76 -0.770989
9.77 -0.797331
9.78 -0.821081
9.79 -0.842459
9.8 -0.860965
9.81 -0.876444
9.82 -0.888386
9.83 -0.895634
9.84 -0.89764
9.85 -0.891819
9.86 -0.877192
9.87 -0.850877
9.88 -0.81005
9.89 -0.753067
9.9 -0.674347
9.91 -0.574133
9.92 -0.447001
9.93 -0.292391
9.94 -0.108724
9.95 0.106857
9.96 0.350784
9.97 0.626411
9.98 0.927524
9.99 1.25269
10 1.59696
10.01 1.95413
10.02 2.31858
10.03 2.68245
10.04 3.03779
10.05 3.37689
10.06 3.69244
10.07 3.97457
10.08 4.22074
10.09 4.41863
10.1 4.56951
10.11 4.66679
10.12 4.70853
10.13 4.69798
10.14 4.62934
10.15 4.51326
10.16 4.34805
10.17 4.14251
10.18 3.90245
10.19 3.63344
10.2 3.34544
10.21 3.04378
10.22 2.73756
10.23 2.43312
10.24 2.13725
10.25 1.85424
10.26 1.59084
10.27 1.34741
10.28 1.12859
10.29 0.933745
10.3 0.762813
10.31 0.616215
10.32 0.489605
10.33 0.383506
10.34 0.292523
10.35 0.21479
10.36 0.146945
10.37 0.0856945
10.38 0.0289063
10.39 -0.0262054
10.4 -0.0812743
10.41 -0.137662
10.42 -0.1961
10.43 -0.25707
10.44 -0.320182
10.45 -0.385253
10.46 -0.451292
10.47 -0.517482
10.48 -0.58274
10.49 -0.646233
10.5 -0.706666
10.51 -0.763714
10.52 -0.816325
10.53 -0.864337
10.54 -0.907521
10.55 -0.945467
10.56 -0.978808
10.57 -1.00698
10.58 -1.03082
10.59 -1.05025
10.6 -1.06547
10.61 -1.07688
10.62 -1.08402
10.63 -1.08745
10.64 -1.08661
10.65 -1.08163
10.66 -1.07233
10.67 -1.05826
10.68 -1.03984
10.69 -1.01639
10.7 -0.988634
10.71 -0.956578
10.72 -0.920738
10.73 -0.881968
10.74 -0.840842
10.75 -0.798672
10.76 -0.756516
10.77 -0.715683
10.78 -0.677365
10.79 -0.643141
10.8 -0.613624
10.81 -0.590711
10.82 -0.574423
10.83 -0.565786
10.84 -0.565152
10.85 -0.572021
10.86 -0.587157
10.87 -0.608899
10.88 -0.637263
10.89 -0.670788
10.9 -0.708402
10.91 -0.748975
10.92 -0.790996
10.93 -0.833277
10.94 -0.874575
10.95 -0.913786
10.96 -0.949919
10.97 -0.982539
10.98 -1.01059
10.99 -1.03445
11 -1.05358
11.01 -1.06845
11.02 -1.07941
11.03 -1.08676
11.04 -1.09148
11.05 -1.09394
11.06 -1.09515
11.07 -1.09574
11.08 -1.09646
11.09 -1.09782
11.1 -1.10048
11.11 -1.10458
11.12 -1.11044
11.13 -1.11795
11.14 -1.12687
11.15 -1.13682
11.16 -1.1471
11.17 -1.1568
11.18 -1.16495
11.19 -1.17023
11.2 -1.17113
11.21 -1.16656
11.22 -1.15388
11.23 -1.13261
11.24 -1.09995
11.25 -1.05492
11.26 -0.996117
11.27 -0.921116
11.28 -0.830751
11.29 -0.721751
11.3 -0.596033
11.31 -0.452567
11.32 -0.291981
11.33 -0.116446
11.34 0.0742309
11.35 0.27579
11.36 0.486747
11.37 0.703111
11.38 0.921483
11.39 1.13755
11.4 1.34777
11.41 1.54649
11.42 1.73086
11.43 1.89609
11.44 2.03812
11.45 2.15566
11.46 2.24221
11.47 2.30029
11.48 2.32521
11.49 2.31869
11.5 2.28129
11.51 2.21234
11.52 2.1173
11.53 1.99513
11.54 1.85252
11.55 1.6918
11.56 1.51745
11.57 1.33426
11.58 1.14591
11.59 0.957066
11.6 0.771594
11.61 0.592861
11.62 0.423513
11.63 0.266767
11.64 0.122696
11.65 -0.0056145
11.66 -0.119741
11.67 -0.219008
11.68 -0.304238
11.69 -0.377497
11.7 -0.438848
11.71 -0.491653
11.72 -0.536758
11.73 -0.576562
11.74 -0.612665
11.75 -0.646471
11.76 -0.679323
11.77 -0.71199
11.78 -0.744935
11.79 -0.778212
11.8 -0.811441
11.81 -0.843995
11.82 -0.874606
11.83 -0.902326
11.84 -0.925322
11.85 -0.942253
11.86 -0.951693
11.87 -0.951425
11.88 -0.941305
11.89 -0.918502
11.9 -0.88366
11.91 -0.835454
11.92 -0.773619
11.93 -0.699256
11.94 -0.611195
11.95 -0.512266
11.96 -0.402474
11.97 -0.284201
11.98 -0.159279
11.99 -0.0296834
12 0.101891
12.01 0.232995
12.02 0.361106
12.03 0.483585
12.04 0.597733
12.05 0.702062
12.06 0.792767
12.07 0.870051
12.08 0.930807
12.09 0.974925
12.1 1.00191
12.11 1.01033
12.12 1.00254
12.13 0.976804
12.14 0.936427
12.15 0.881947
12.16 0.815342
12.17 0.739371
12.18 0.655319
12.19 0.566624
12.2 0.475155
12.21 0.383494
12.22 0.293599
12.23 0.207676
12.24 0.126663
12.25 0.0525855
12.26 -0.0146635
12.27 -0.0743737
12.28 -0.126653
12.29 -0.172484
12.3 -0.211898
12.31 -0.246864
12.32 -0.278146
12.33 -0.307394
12.34 -0.335863
12.35 -0.364867
12.36 -0.395273
12.37 -0.428097
12.38 -0.46342
12.39 -0.501371
