# xPDFsuite Configuration #
[PDF]
wavelength = 0.1432
dataformat = twotheta
inputfile = 1_1Pd_CeO2_cycle-00209.chi
backgroundfile = background-00000.chi
mode = xray
bgscale = 1.007
composition = CeO2
outputtype = gr
qmaxinst = 28.8974762299
qmin = 0.5
qmax = 27.9
rmax = 50.0
rmin = 0.0
rstep = 0.01
rpoly = 1.8657

[Misc]
inputdir = G:/SankarDec16/1Pd/Chi
savedir = D:/DATA/APS_CeO2/1Pd
backgroundfilefull = G:/SankarDec16/Background/background-00000.chi

#### start data
#S 1
#L r($\AA$)  G($\AA^{-2}$)
0 0
0.01 -0.00605815
0.02 -0.0116606
0.03 -0.0163381
0.04 -0.019737
0.05 -0.0216605
0.06 -0.0217918
0.07 -0.020341
0.08 -0.0172057
0.09 -0.0127872
0.1 -0.00736289
0.11 -0.00135771
0.12 0.0047639
0.13 0.0104818
0.14 0.0154258
0.15 0.0191438
0.16 0.0213698
0.17 0.0219967
0.18 0.0208071
0.19 0.0181091
0.2 0.0139126
0.21 0.00868506
0.22 0.00277144
0.23 -0.00335132
0.24 -0.00924539
0.25 -0.0143504
0.26 -0.0183987
0.27 -0.0209765
0.28 -0.0219179
0.29 -0.0212107
0.3 -0.0187471
0.31 -0.0149191
0.32 -0.00984861
0.33 -0.00404788
0.34 0.00208677
0.35 0.0080482
0.36 0.0134457
0.37 0.0177046
0.38 0.0206726
0.39 0.0219935
0.4 0.0216092
0.41 0.0196037
0.42 0.0159838
0.43 0.0112075
0.44 0.0055032
0.45 -0.000595362
0.46 -0.00665912
0.47 -0.012174
0.48 -0.0168148
0.49 -0.0200196
0.5 -0.0217583
0.51 -0.0217498
0.52 -0.0200468
0.53 -0.0168253
0.54 -0.0122077
0.55 -0.00669666
0.56 -0.000616804
0.57 0.00550139
0.58 0.0112161
0.59 0.0160298
0.6 0.0196987
0.61 0.0216998
0.62 0.0221271
0.63 0.0207878
0.64 0.0178435
0.65 0.0135549
0.66 0.00815436
0.67 0.00216609
0.68 -0.00400381
0.69 -0.00985249
0.7 -0.0149461
0.71 -0.0188267
0.72 -0.0213434
0.73 -0.0220361
0.74 -0.0211192
0.75 -0.0184965
0.76 -0.0144312
0.77 -0.0092557
0.78 -0.00330088
0.79 0.00291241
0.8 0.00891749
0.81 0.0142631
0.82 0.0185452
0.83 0.0213684
0.84 0.0226819
0.85 0.0221127
0.86 0.0199835
0.87 0.0163003
0.88 0.0114131
0.89 0.00570776
0.9 -0.000405684
0.91 -0.00643974
0.92 -0.0118973
0.93 -0.0164075
0.94 -0.0196258
0.95 -0.0212515
0.96 -0.0213435
0.97 -0.0196577
0.98 -0.0166121
0.99 -0.0123349
1 -0.00725671
1.01 -0.00180346
1.02 0.00353495
1.03 0.00834128
1.04 0.0120965
1.05 0.014547
1.06 0.0154332
1.07 0.0145817
1.08 0.0121912
1.09 0.00818877
1.1 0.00311319
1.11 -0.00274054
1.12 -0.00882424
1.13 -0.0146422
1.14 -0.0195557
1.15 -0.0232108
1.16 -0.0249804
1.17 -0.0247134
1.18 -0.0221817
1.19 -0.0172764
1.2 -0.0103509
1.21 -0.00138482
1.22 0.00889263
1.23 0.0200789
1.24 0.0314784
1.25 0.0424766
1.26 0.0522785
1.27 0.0604576
1.28 0.0662203
1.29 0.0693585
1.3 0.0695387
1.31 0.0665274
1.32 0.060686
1.33 0.0517624
1.34 0.0405701
1.35 0.0273531
1.36 0.012784
1.37 -0.00251186
1.38 -0.0178765
1.39 -0.0327107
1.4 -0.0463255
1.41 -0.0583171
1.42 -0.0682626
1.43 -0.0757718
1.44 -0.0809387
1.45 -0.0832982
1.46 -0.083328
1.47 -0.0809442
1.48 -0.0764578
1.49 -0.0702014
1.5 -0.0623307
1.51 -0.0533453
1.52 -0.0434137
1.53 -0.0329144
1.54 -0.0220726
1.55 -0.0111259
1.56 -0.000261506
1.57 0.0103032
1.58 0.0204521
1.59 0.0299871
1.6 0.0387488
1.61 0.0466068
1.62 0.0532454
1.63 0.0586277
1.64 0.0623522
1.65 0.0643504
1.66 0.0643909
1.67 0.0622237
1.68 0.0579739
1.69 0.051238
1.7 0.0424374
1.71 0.0315163
1.72 0.0188093
1.73 0.00471242
1.74 -0.0104143
1.75 -0.0259483
1.76 -0.0413397
1.77 -0.0559938
1.78 -0.0693521
1.79 -0.0807943
1.8 -0.0901312
1.81 -0.0966474
1.82 -0.100609
1.83 -0.101775
1.84 -0.100418
1.85 -0.096952
1.86 -0.0917057
1.87 -0.0854788
1.88 -0.0788646
1.89 -0.0726411
1.9 -0.0674818
1.91 -0.0641303
1.92 -0.0628701
1.93 -0.0644792
1.94 -0.0686986
1.95 -0.0757407
1.96 -0.0852469
1.97 -0.0966896
1.98 -0.109533
1.99 -0.122837
2 -0.135697
2.01 -0.147155
2.02 -0.156271
2.03 -0.161964
2.04 -0.163885
2.05 -0.160675
2.06 -0.152686
2.07 -0.13926
2.08 -0.120581
2.09 -0.0970851
2.1 -0.0687404
2.11 -0.036723
2.12 -0.00126266
2.13 0.0365604
2.14 0.0761005
2.15 0.116646
2.16 0.157547
2.17 0.198305
2.18 0.238603
2.19 0.278203
2.2 0.317055
2.21 0.355226
2.22 0.39277
2.23 0.42989
2.24 0.466634
2.25 0.503048
2.26 0.539011
2.27 0.574183
2.28 0.608212
2.29 0.640109
2.3 0.669312
2.31 0.694531
2.32 0.714628
2.33 0.728716
2.34 0.734796
2.35 0.7329
2.36 0.721015
2.37 0.699413
2.38 0.667612
2.39 0.625366
2.4 0.574226
2.41 0.513779
2.42 0.446752
2.43 0.374205
2.44 0.298429
2.45 0.221542
2.46 0.145968
2.47 0.0735934
2.48 0.00698786
2.49 -0.0525676
2.5 -0.103622
2.51 -0.144835
2.52 -0.176836
2.53 -0.198162
2.54 -0.210984
2.55 -0.215537
2.56 -0.213596
2.57 -0.207012
2.58 -0.19743
2.59 -0.187057
2.6 -0.177739
2.61 -0.171078
2.62 -0.168396
2.63 -0.170902
2.64 -0.17853
2.65 -0.192221
2.66 -0.210693
2.67 -0.233618
2.68 -0.259673
2.69 -0.28749
2.7 -0.315589
2.71 -0.342547
2.72 -0.366776
2.73 -0.387347
2.74 -0.403401
2.75 -0.41426
2.76 -0.420414
2.77 -0.421473
2.78 -0.41892
2.79 -0.413453
2.8 -0.406527
2.81 -0.399489
2.82 -0.393933
2.83 -0.390888
2.84 -0.39183
2.85 -0.397193
2.86 -0.407431
2.87 -0.422686
2.88 -0.44202
2.89 -0.465125
2.9 -0.490238
2.91 -0.516103
2.92 -0.540965
2.93 -0.563383
2.94 -0.581363
2.95 -0.594285
2.96 -0.600486
2.97 -0.600043
2.98 -0.592797
2.99 -0.579011
3 -0.560214
3.01 -0.537131
3.02 -0.512079
3.03 -0.486751
3.04 -0.463287
3.05 -0.443338
3.06 -0.429209
3.07 -0.421384
3.08 -0.421623
3.09 -0.429557
3.1 -0.445127
3.11 -0.467754
3.12 -0.495543
3.13 -0.527402
3.14 -0.560744
3.15 -0.5936
3.16 -0.6237
3.17 -0.649413
3.18 -0.66846
3.19 -0.680702
3.2 -0.684706
3.21 -0.681356
3.22 -0.671259
3.23 -0.655714
3.24 -0.637013
3.25 -0.617267
3.26 -0.599129
3.27 -0.585236
3.28 -0.578014
3.29 -0.578958
3.3 -0.590593
3.31 -0.61219
3.32 -0.645008
3.33 -0.687144
3.34 -0.737204
3.35 -0.792863
3.36 -0.850907
3.37 -0.907968
3.38 -0.960793
3.39 -1.00576
3.4 -1.03994
3.41 -1.06173
3.42 -1.06807
3.43 -1.06053
3.44 -1.03786
3.45 -1.00307
3.46 -0.958393
3.47 -0.907261
3.48 -0.853983
3.49 -0.803192
3.5 -0.758828
3.51 -0.725343
3.52 -0.705909
3.53 -0.701805
3.54 -0.715596
3.55 -0.744116
3.56 -0.78662
3.57 -0.837435
3.58 -0.89115
3.59 -0.939728
3.6 -0.976143
3.61 -0.987918
3.62 -0.969381
3.63 -0.908982
3.64 -0.79904
3.65 -0.635815
3.66 -0.407917
3.67 -0.12166
3.68 0.230421
3.69 0.639367
3.7 1.1006
3.71 1.60651
3.72 2.14225
3.73 2.69745
3.74 3.25427
3.75 3.79707
3.76 4.30842
3.77 4.77517
3.78 5.17517
3.79 5.50479
3.8 5.74323
3.81 5.89003
3.82 5.93895
3.83 5.88427
3.84 5.73864
3.85 5.49283
3.86 5.16968
3.87 4.77307
3.88 4.31898
3.89 3.82354
3.9 3.29978
3.91 2.76626
3.92 2.23764
3.93 1.72805
3.94 1.24944
3.95 0.814532
3.96 0.425803
3.97 0.0970102
3.98 -0.177914
3.99 -0.394105
4 -0.555389
4.01 -0.668293
4.02 -0.734023
4.03 -0.765495
4.04 -0.766306
4.05 -0.747321
4.06 -0.715436
4.07 -0.677994
4.08 -0.641121
4.09 -0.610583
4.1 -0.589061
4.11 -0.579515
4.12 -0.582602
4.13 -0.597356
4.14 -0.623432
4.15 -0.657117
4.16 -0.696318
4.17 -0.737159
4.18 -0.776507
4.19 -0.810735
4.2 -0.837822
4.21 -0.853923
4.22 -0.858939
4.23 -0.850906
4.24 -0.829768
4.25 -0.796438
4.26 -0.750492
4.27 -0.694828
4.28 -0.629838
4.29 -0.558146
4.3 -0.481331
4.31 -0.401095
4.32 -0.319207
4.33 -0.236913
4.34 -0.15533
4.35 -0.075301
4.36 0.00260163
4.37 0.0781491
4.38 0.150802
4.39 0.220779
4.4 0.287534
4.41 0.351061
4.42 0.410936
4.43 0.466383
4.44 0.517216
4.45 0.561652
4.46 0.599597
4.47 0.629415
4.48 0.650111
4.49 0.661219
4.5 0.660655
4.51 0.649391
4.52 0.62568
4.53 0.590605
4.54 0.544362
4.55 0.487346
4.56 0.421739
4.57 0.347805
4.58 0.26848
4.59 0.185187
4.6 0.100208
4.61 0.0154747
4.62 -0.0667845
4.63 -0.145258
4.64 -0.217907
4.65 -0.284033
4.66 -0.342798
4.67 -0.393425
4.68 -0.436744
4.69 -0.471885
4.7 -0.500616
4.71 -0.523196
4.72 -0.540836
4.73 -0.554769
4.74 -0.565812
4.75 -0.575329
4.76 -0.584078
4.77 -0.592903
4.78 -0.602333
4.79 -0.612791
4.8 -0.624314
4.81 -0.637051
4.82 -0.650652
4.83 -0.664909
4.84 -0.679416
4.85 -0.693807
4.86 -0.707638
4.87 -0.720673
4.88 -0.732539
4.89 -0.74316
4.9 -0.75245
4.91 -0.760368
4.92 -0.767147
4.93 -0.772779
4.94 -0.777621
4.95 -0.781813
4.96 -0.785592
4.97 -0.789147
4.98 -0.792621
4.99 -0.79613
5 -0.799752
5.01 -0.803518
5.02 -0.807449
5.03 -0.811571
5.04 -0.815883
5.05 -0.820466
5.06 -0.825351
5.07 -0.830652
5.08 -0.836476
5.09 -0.842886
5.1 -0.850023
5.11 -0.857786
5.12 -0.866135
5.13 -0.874746
5.14 -0.883201
5.15 -0.890746
5.16 -0.89667
5.17 -0.899404
5.18 -0.898037
5.19 -0.890699
5.2 -0.875685
5.21 -0.851812
5.22 -0.816086
5.23 -0.768618
5.24 -0.706499
5.25 -0.62995
5.26 -0.538317
5.27 -0.43099
5.28 -0.310279
5.29 -0.175537
5.3 -0.0308014
5.31 0.122112
5.32 0.279459
5.33 0.437552
5.34 0.591729
5.35 0.738389
5.36 0.871973
5.37 0.989182
5.38 1.08619
5.39 1.15839
5.4 1.20609
5.41 1.22325
5.42 1.21334
5.43 1.17426
5.44 1.1078
5.45 1.01729
5.46 0.903242
5.47 0.772268
5.48 0.626554
5.49 0.472023
5.5 0.312951
5.51 0.15427
5.52 -0.000132568
5.53 -0.145114
5.54 -0.278705
5.55 -0.397429
5.56 -0.499614
5.57 -0.585228
5.58 -0.652062
5.59 -0.703143
5.6 -0.737634
5.61 -0.758594
5.62 -0.767715
5.63 -0.766856
5.64 -0.759069
5.65 -0.745558
5.66 -0.728926
5.67 -0.710321
5.68 -0.690893
5.69 -0.671213
5.7 -0.651403
5.71 -0.631221
5.72 -0.609987
5.73 -0.586926
5.74 -0.561136
5.75 -0.531455
5.76 -0.497591
5.77 -0.458236
5.78 -0.413956
5.79 -0.364536
5.8 -0.310748
5.81 -0.253784
5.82 -0.194917
5.83 -0.136087
5.84 -0.0793968
5.85 -0.026883
5.86 0.0194238
5.87 0.0570251
5.88 0.0853121
5.89 0.101234
5.9 0.105639
5.91 0.0972235
5.92 0.0764106
5.93 0.0445094
5.94 0.00154941
5.95 -0.0494506
5.96 -0.107526
5.97 -0.169913
5.98 -0.234624
5.99 -0.299419
6 -0.36255
6.01 -0.421895
6.02 -0.476731
6.03 -0.52589
6.04 -0.569071
6.05 -0.606661
6.06 -0.638524
6.07 -0.666202
6.08 -0.690248
6.09 -0.712183
6.1 -0.733109
6.11 -0.754223
6.12 -0.776347
6.13 -0.800398
6.14 -0.826446
6.15 -0.854641
6.16 -0.88456
6.17 -0.915507
6.18 -0.946563
6.19 -0.97669
6.2 -1.00457
6.21 -1.02925
6.22 -1.04979
6.23 -1.0652
6.24 -1.07565
6.25 -1.08028
6.26 -1.08021
6.27 -1.07571
6.28 -1.06784
6.29 -1.05781
6.3 -1.04669
6.31 -1.03563
6.32 -1.02552
6.33 -1.0167
6.34 -1.00908
6.35 -1.00186
6.36 -0.993621
6.37 -0.981639
6.38 -0.963402
6.39 -0.934799
6.4 -0.891434
6.41 -0.829996
6.42 -0.74295
6.43 -0.629502
6.44 -0.482038
6.45 -0.299796
6.46 -0.080279
6.47 0.179513
6.48 0.474805
6.49 0.809044
6.5 1.17308
6.51 1.56397
6.52 1.97363
6.53 2.39336
6.54 2.8134
6.55 3.22383
6.56 3.61215
6.57 3.96879
6.58 4.28375
6.59 4.54431
6.6 4.74896
6.61 4.88114
6.62 4.94622
6.63 4.93646
6.64 4.85289
6.65 4.70158
6.66 4.47922
6.67 4.20158
6.68 3.87007
6.69 3.49889
6.7 3.09758
6.71 2.67705
6.72 2.24958
6.73 1.8264
6.74 1.41711
6.75 1.03164
6.76 0.677932
6.77 0.359655
6.78 0.0860411
6.79 -0.146705
6.8 -0.332705
6.81 -0.476669
6.82 -0.580538
6.83 -0.646367
6.84 -0.682456
6.85 -0.689835
6.86 -0.677904
6.87 -0.650435
6.88 -0.613261
6.89 -0.571149
6.9 -0.528001
6.91 -0.486919
6.92 -0.450498
6.93 -0.419816
6.94 -0.395473
6.95 -0.377692
6.96 -0.36519
6.97 -0.357696
6.98 -0.353335
6.99 -0.351179
7 -0.350028
7.01 -0.349081
7.02 -0.347831
7.03 -0.346257
7.04 -0.344677
7.05 -0.343835
7.06 -0.344684
7.07 -0.348657
7.08 -0.356575
7.09 -0.370467
7.1 -0.390564
7.11 -0.41808
7.12 -0.453293
7.13 -0.495672
7.14 -0.545444
7.15 -0.600588
7.16 -0.660241
7.17 -0.722144
7.18 -0.784382
7.19 -0.844546
7.2 -0.900932
7.21 -0.950721
7.22 -0.99317
7.23 -1.02653
7.24 -1.05015
7.25 -1.06448
7.26 -1.06881
7.27 -1.06543
7.28 -1.05483
7.29 -1.03943
7.3 -1.02104
7.31 -1.00181
7.32 -0.983631
7.33 -0.968605
7.34 -0.957618
7.35 -0.951753
7.36 -0.951135
7.37 -0.95503
7.38 -0.962695
7.39 -0.971923
7.4 -0.9805
7.41 -0.985615
7.42 -0.984436
7.43 -0.973182
7.44 -0.95026
7.45 -0.910762
7.46 -0.854739
7.47 -0.779412
7.48 -0.684194
7.49 -0.570322
7.5 -0.436572
7.51 -0.287458
7.52 -0.123853
7.53 0.0495412
7.54 0.229012
7.55 0.409894
7.56 0.587775
7.57 0.75684
7.58 0.91372
7.59 1.05341
7.6 1.17219
7.61 1.26859
7.62 1.3373
7.63 1.38089
7.64 1.39571
7.65 1.38439
7.66 1.3479
7.67 1.28705
7.68 1.20684
7.69 1.10754
7.7 0.995072
7.71 0.871863
7.72 0.741941
7.73 0.608878
7.74 0.476071
7.75 0.346365
7.76 0.222922
7.77 0.107657
7.78 0.00236433
7.79 -0.0907852
7.8 -0.172171
7.81 -0.239131
7.82 -0.293264
7.83 -0.333567
7.84 -0.360473
7.85 -0.375225
7.86 -0.377085
7.87 -0.368679
7.88 -0.349829
7.89 -0.322612
7.9 -0.288285
7.91 -0.248186
7.92 -0.204473
7.93 -0.158576
7.94 -0.112666
7.95 -0.0686075
7.96 -0.0284581
7.97 0.00633738
7.98 0.033118
7.99 0.05153
8 0.0592078
8.01 0.0559705
8.02 0.0412403
8.03 0.0142303
8.04 -0.0234259
8.05 -0.0725966
8.06 -0.130566
8.07 -0.196492
8.08 -0.268271
8.09 -0.343677
8.1 -0.420679
8.11 -0.496987
8.12 -0.570386
8.13 -0.639189
8.14 -0.701978
8.15 -0.757199
8.16 -0.805111
8.17 -0.844365
8.18 -0.876428
8.19 -0.901477
8.2 -0.920755
8.21 -0.935801
8.22 -0.947695
8.23 -0.95819
8.24 -0.96835
8.25 -0.979107
8.26 -0.990855
8.27 -1.0035
8.28 -1.01625
8.29 -1.02753
8.3 -1.03547
8.31 -1.03726
8.32 -1.02958
8.33 -1.00989
8.34 -0.972545
8.35 -0.916629
8.36 -0.836451
8.37 -0.73092
8.38 -0.598034
8.39 -0.434977
8.4 -0.245015
8.41 -0.0250394
8.42 0.218664
8.43 0.484444
8.44 0.767017
8.45 1.06022
8.46 1.35797
8.47 1.65284
8.48 1.93673
8.49 2.20256
8.5 2.44345
8.51 2.65041
8.52 2.8218
8.53 2.94639
8.54 3.02671
8.55 3.05731
8.56 3.03786
8.57 2.9721
8.58 2.85658
8.59 2.70159
8.6 2.50714
8.61 2.28212
8.62 2.03249
8.63 1.76464
8.64 1.48712
8.65 1.20635
8.66 0.929529
8.67 0.662933
8.68 0.412334
8.69 0.180787
8.7 -0.0253048
8.71 -0.207259
8.72 -0.360815
8.73 -0.487869
8.74 -0.589104
8.75 -0.664898
8.76 -0.720233
8.77 -0.755086
8.78 -0.775402
8.79 -0.783423
8.8 -0.782958
8.81 -0.77747
8.82 -0.769673
8.83 -0.762301
8.84 -0.757517
8.85 -0.756723
8.86 -0.760845
8.87 -0.77069
8.88 -0.785612
8.89 -0.80595
8.9 -0.83024
8.91 -0.857808
8.92 -0.887399
8.93 -0.917821
8.94 -0.947878
8.95 -0.976646
8.96 -1.00309
8.97 -1.02673
8.98 -1.04718
8.99 -1.06411
9 -1.07799
9.01 -1.08867
9.02 -1.097
9.03 -1.10337
9.04 -1.10842
9.05 -1.11277
9.06 -1.11689
9.07 -1.12116
9.08 -1.12575
9.09 -1.13062
9.1 -1.13551
9.11 -1.13985
9.12 -1.14307
9.13 -1.14395
9.14 -1.14175
9.15 -1.13516
9.16 -1.12298
9.17 -1.10459
9.18 -1.07808
9.19 -1.04388
9.2 -1.00058
9.21 -0.948673
9.22 -0.888364
9.23 -0.819845
9.24 -0.744947
9.25 -0.66419
9.26 -0.580047
9.27 -0.494185
9.28 -0.408969
9.29 -0.326402
9.3 -0.24943
9.31 -0.179338
9.32 -0.118994
9.33 -0.0694455
9.34 -0.0318957
9.35 -0.00798956
9.36 0.00349328
9.37 0.000773498
9.38 -0.0136167
9.39 -0.039381
9.4 -0.0747192
9.41 -0.117283
9.42 -0.165551
9.43 -0.216532
9.44 -0.26818
9.45 -0.318132
9.46 -0.36452
9.47 -0.405232
9.48 -0.439712
9.49 -0.466
9.5 -0.484765
9.51 -0.495558
9.52 -0.499012
9.53 -0.496435
9.54 -0.488462
9.55 -0.477264
9.56 -0.464106
9.57 -0.450837
9.58 -0.438904
9.59 -0.429926
9.6 -0.424591
9.61 -0.424371
9.62 -0.429055
9.63 -0.439072
9.64 -0.454112
9.65 -0.473357
9.66 -0.49647
9.67 -0.522017
9.68 -0.549264
9.69 -0.577075
9.7 -0.604645
9.71 -0.631196
9.72 -0.656435
9.73 -0.679948
9.74 -0.702037
9.75 -0.722906
9.76 -0.743086
9.77 -0.763136
9.78 -0.783672
9.79 -0.805023
9.8 -0.827453
9.81 -0.850655
9.82 -0.873986
9.83 -0.896055
9.84 -0.915324
9.85 -0.928609
9.86 -0.933623
9.87 -0.926379
9.88 -0.902715
9.89 -0.860022
9.9 -0.791057
9.91 -0.695796
9.92 -0.567491
9.93 -0.405544
9.94 -0.208263
9.95 0.0273746
9.96 0.296599
9.97 0.602673
9.98 0.937624
9.99 1.299
10 1.68028
10.01 2.07384
10.02 2.47227
10.03 2.86671
10.04 3.2475
10.05 3.60624
10.06 3.93491
10.07 4.22271
10.08 4.46785
10.09 4.65711
10.1 4.79322
10.11 4.86985
10.12 4.88611
10.13 4.84652
10.14 4.74615
10.15 4.59714
10.16 4.39883
10.17 4.16111
10.18 3.89064
10.19 3.59392
10.2 3.28109
10.21 2.95834
10.22 2.63446
10.23 2.316
10.24 2.0096
10.25 1.71906
10.26 1.45121
10.27 1.20565
10.28 0.986937
10.29 0.793994
10.3 0.626512
10.31 0.484808
10.32 0.364264
10.33 0.265525
10.34 0.183012
10.35 0.114934
10.36 0.0579139
10.37 0.00854472
10.38 -0.0352798
10.39 -0.0766688
10.4 -0.11744
10.41 -0.159374
10.42 -0.203619
10.43 -0.251254
10.44 -0.302302
10.45 -0.357416
10.46 -0.415882
10.47 -0.477499
10.48 -0.541565
10.49 -0.607216
10.5 -0.673656
10.51 -0.739872
10.52 -0.804834
10.53 -0.867592
10.54 -0.927245
10.55 -0.982537
10.56 -1.03314
10.57 -1.07737
10.58 -1.11526
10.59 -1.14572
10.6 -1.16816
10.61 -1.18272
10.62 -1.18798
10.63 -1.18516
10.64 -1.17333
10.65 -1.15339
10.66 -1.12582
10.67 -1.09092
10.68 -1.05033
10.69 -1.00439
10.7 -0.955016
10.71 -0.903285
10.72 -0.850762
10.73 -0.798806
10.74 -0.74912
10.75 -0.702656
10.76 -0.661029
10.77 -0.624985
10.78 -0.595256
10.79 -0.572891
10.8 -0.557349
10.81 -0.549792
10.82 -0.549065
10.83 -0.555273
10.84 -0.567821
10.85 -0.585672
10.86 -0.608686
10.87 -0.63536
10.88 -0.6653
10.89 -0.697465
10.9 -0.731162
10.91 -0.765752
10.92 -0.800608
10.93 -0.83523
10.94 -0.869238
10.95 -0.902269
10.96 -0.934015
10.97 -0.964343
10.98 -0.992798
10.99 -1.01944
11 -1.04382
11.01 -1.06586
11.02 -1.08539
11.03 -1.10202
11.04 -1.11594
11.05 -1.12665
11.06 -1.13451
11.07 -1.13946
11.08 -1.1417
11.09 -1.14173
11.1 -1.13974
11.11 -1.13654
11.12 -1.13259
11.13 -1.12859
11.14 -1.12508
11.15 -1.12263
11.16 -1.12141
11.17 -1.12168
11.18 -1.12302
11.19 -1.12491
11.2 -1.12629
11.21 -1.12596
11.22 -1.12164
11.23 -1.11186
11.24 -1.09348
11.25 -1.06434
11.26 -1.02201
11.27 -0.96271
11.28 -0.886203
11.29 -0.787589
11.3 -0.668136
11.31 -0.525722
11.32 -0.360348
11.33 -0.174369
11.34 0.0330769
11.35 0.256374
11.36 0.493794
11.37 0.739851
11.38 0.98985
11.39 1.23787
11.4 1.47883
11.41 1.70509
11.42 1.91269
11.43 2.09525
11.44 2.24762
11.45 2.36835
11.46 2.44958
11.47 2.4951
11.48 2.49986
11.49 2.46695
11.5 2.39806
11.51 2.29377
11.52 2.16144
11.53 2.00157
11.54 1.82258
11.55 1.62836
11.56 1.42486
11.57 1.21757
11.58 1.01174
11.59 0.811527
11.6 0.62157
11.61 0.444495
11.62 0.282345
11.63 0.13772
11.64 0.00913308
11.65 -0.101163
11.66 -0.196347
11.67 -0.276889
11.68 -0.344868
11.69 -0.403138
11.7 -0.452964
11.71 -0.497707
11.72 -0.538876
11.73 -0.578572
11.74 -0.618102
11.75 -0.658533
11.76 -0.700204
11.77 -0.743314
11.78 -0.787229
11.79 -0.831171
11.8 -0.87384
11.81 -0.914023
11.82 -0.949512
11.83 -0.979347
11.84 -1.00113
11.85 -1.01371
11.86 -1.01581
11.87 -1.0054
11.88 -0.983076
11.89 -0.946316
11.9 -0.896616
11.91 -0.833221
11.92 -0.756547
11.93 -0.668184
11.94 -0.567635
11.95 -0.457873
11.96 -0.339356
11.97 -0.214469
11.98 -0.0850385
11.99 0.0469246
12 0.179139
12.01 0.309161
12.02 0.434967
12.03 0.554129
12.04 0.664263
12.05 0.764165
12.06 0.850221
12.07 0.922816
12.08 0.978946
12.09 1.01854
12.1 1.04111
12.11 1.04517
12.12 1.03303
12.13 1.00283
12.14 0.957844
12.15 0.898526
12.16 0.826825
12.17 0.74552
12.18 0.655908
12.19 0.561533
12.2 0.464362
12.21 0.367117
12.22 0.271893
12.23 0.181083
12.24 0.0957023
12.25 0.0179929
12.26 -0.0521503
12.27 -0.113918
12.28 -0.167402
12.29 -0.21367
12.3 -0.25272
12.31 -0.286731
12.32 -0.316526
12.33 -0.343939
12.34 -0.370363
12.35 -0.39726
12.36 -0.425621
12.37 -0.45659
12.38 -0.490301
12.39 -0.526939
