# xPDFsuite Configuration #
[PDF]
wavelength = 0.1432
dataformat = twotheta
inputfile = 1_1Pd_CeO2_cycle-00033.chi
backgroundfile = background-00000.chi
mode = xray
bgscale = 1.007
composition = CeO2
outputtype = gr
qmaxinst = 28.8974762299
qmin = 0.5
qmax = 27.9
rmax = 50.0
rmin = 0.0
rstep = 0.01
rpoly = 1.8657

[Misc]
inputdir = G:/SankarDec16/1Pd/Chi
savedir = D:/DATA/APS_CeO2/1Pd
backgroundfilefull = G:/SankarDec16/Background/background-00000.chi

#### start data
#S 1
#L r($\AA$)  G($\AA^{-2}$)
0 0
0.01 -0.00710295
0.02 -0.0136694
0.03 -0.0191471
0.04 -0.0231202
0.05 -0.0253578
0.06 -0.0254886
0.07 -0.0237614
0.08 -0.0200581
0.09 -0.0148527
0.1 -0.00847391
0.11 -0.00142396
0.12 0.005751
0.13 0.0124367
0.14 0.0182008
0.15 0.0225123
0.16 0.0250623
0.17 0.0257291
0.18 0.0242624
0.19 0.0210295
0.2 0.016049
0.21 0.00987448
0.22 0.0029158
0.23 -0.00426263
0.24 -0.0111479
0.25 -0.0170784
0.26 -0.0217472
0.27 -0.0246711
0.28 -0.0256631
0.29 -0.0247172
0.3 -0.0217167
0.31 -0.0171296
0.32 -0.01111
0.33 -0.00426439
0.34 0.00293658
0.35 0.00989386
0.36 0.0161534
0.37 0.021039
0.38 0.0243843
0.39 0.0257782
0.4 0.0251653
0.41 0.0226557
0.42 0.0182726
0.43 0.0125617
0.44 0.00580576
0.45 -0.00136601
0.46 -0.00844533
0.47 -0.0148278
0.48 -0.0201411
0.49 -0.0237282
0.5 -0.0255716
0.51 -0.0253535
0.52 -0.023153
0.53 -0.0191915
0.54 -0.0136318
0.55 -0.00707041
0.56 9.5124e-05
0.57 0.00724331
0.58 0.0138538
0.59 0.0193465
0.6 0.02345
0.61 0.0255589
0.62 0.0258065
0.63 0.0239841
0.64 0.0203023
0.65 0.0150833
0.66 0.00862177
0.67 0.00153603
0.68 -0.00568127
0.69 -0.012447
0.7 -0.018255
0.71 -0.022578
0.72 -0.0252595
0.73 -0.0257763
0.74 -0.024406
0.75 -0.0210593
0.76 -0.0160681
0.77 -0.00983862
0.78 -0.00278227
0.79 0.00449282
0.8 0.0114255
0.81 0.0175013
0.82 0.0222561
0.83 0.0252443
0.84 0.0264337
0.85 0.0254138
0.86 0.0225919
0.87 0.0180056
0.88 0.0120908
0.89 0.00531573
0.9 -0.00181303
0.91 -0.00873437
0.92 -0.0148526
0.93 -0.0197566
0.94 -0.0230582
0.95 -0.0244311
0.96 -0.0239789
0.97 -0.021451
0.98 -0.0173713
0.99 -0.011928
1 -0.0056556
1.01 0.000928549
1.02 0.00721762
1.03 0.0127352
1.04 0.0168531
1.05 0.0192987
1.06 0.0197798
1.07 0.0181139
1.08 0.0145694
1.09 0.00908235
1.1 0.00232179
1.11 -0.00534019
1.12 -0.0132348
1.13 -0.020764
1.14 -0.0271568
1.15 -0.0320002
1.16 -0.034545
1.17 -0.0346231
1.18 -0.0319688
1.19 -0.026457
1.2 -0.0185141
1.21 -0.00810778
1.22 0.00389744
1.23 0.0170416
1.24 0.0305182
1.25 0.043618
1.26 0.0554398
1.27 0.0654876
1.28 0.072871
1.29 0.0773495
1.3 0.0785492
1.31 0.076209
1.32 0.0707281
1.33 0.0618231
1.34 0.0503904
1.35 0.036688
1.36 0.0214443
1.37 0.00533312
1.38 -0.0109543
1.39 -0.0267708
1.4 -0.0414045
1.41 -0.0544255
1.42 -0.0653974
1.43 -0.0739186
1.44 -0.0800783
1.45 -0.0834007
1.46 -0.0843588
1.47 -0.0828522
1.48 -0.0791725
1.49 -0.0736316
1.5 -0.0663394
1.51 -0.0577797
1.52 -0.0480601
1.53 -0.0375427
1.54 -0.0264195
1.55 -0.0148989
1.56 -0.0031942
1.57 0.00850725
1.58 0.0200116
1.59 0.0310897
1.6 0.0414993
1.61 0.0510262
1.62 0.0592462
1.63 0.0660381
1.64 0.0708723
1.65 0.0736173
1.66 0.0739664
1.67 0.0716048
1.68 0.0666951
1.69 0.0587751
1.7 0.0483971
1.71 0.0355504
1.72 0.0207003
1.73 0.00437213
1.74 -0.0129216
1.75 -0.0304332
1.76 -0.0474492
1.77 -0.0632972
1.78 -0.0773385
1.79 -0.0888991
1.8 -0.0978594
1.81 -0.103491
1.82 -0.106244
1.83 -0.105992
1.84 -0.103204
1.85 -0.0984746
1.86 -0.0923717
1.87 -0.0858114
1.88 -0.0796146
1.89 -0.0745931
1.9 -0.0714761
1.91 -0.071003
1.92 -0.0732789
1.93 -0.0789906
1.94 -0.087553
1.95 -0.0989098
1.96 -0.112346
1.97 -0.127035
1.98 -0.141988
1.99 -0.156131
2 -0.168136
2.01 -0.177043
2.02 -0.18182
2.03 -0.181388
2.04 -0.175739
2.05 -0.163602
2.06 -0.145921
2.07 -0.122439
2.08 -0.0939251
2.09 -0.0613212
2.1 -0.0253037
2.11 0.0126602
2.12 0.0516529
2.13 0.0904872
2.14 0.128288
2.15 0.164216
2.16 0.19804
2.17 0.229185
2.18 0.258156
2.19 0.285117
2.2 0.310774
2.21 0.335881
2.22 0.361339
2.23 0.387881
2.24 0.416415
2.25 0.447286
2.26 0.480762
2.27 0.516799
2.28 0.554679
2.29 0.593669
2.3 0.632327
2.31 0.669034
2.32 0.701855
2.33 0.72915
2.34 0.74806
2.35 0.757933
2.36 0.755859
2.37 0.741673
2.38 0.714425
2.39 0.67348
2.4 0.620677
2.41 0.555273
2.42 0.480836
2.43 0.398706
2.44 0.311949
2.45 0.223432
2.46 0.136415
2.47 0.0534954
2.48 -0.0218779
2.49 -0.0879641
2.5 -0.142843
2.51 -0.18479
2.52 -0.214703
2.53 -0.23082
2.54 -0.23613
2.55 -0.231171
2.56 -0.218491
2.57 -0.200685
2.58 -0.180249
2.59 -0.16007
2.6 -0.142875
2.61 -0.130691
2.62 -0.125278
2.63 -0.128198
2.64 -0.139068
2.65 -0.159081
2.66 -0.186102
2.67 -0.219449
2.68 -0.256992
2.69 -0.296601
2.7 -0.335903
2.71 -0.372819
2.72 -0.404856
2.73 -0.430699
2.74 -0.449065
2.75 -0.458959
2.76 -0.461229
2.77 -0.455269
2.78 -0.443458
2.79 -0.426881
2.8 -0.407829
2.81 -0.388425
2.82 -0.371168
2.83 -0.357731
2.84 -0.350485
2.85 -0.350224
2.86 -0.357792
2.87 -0.373614
2.88 -0.396363
2.89 -0.425899
2.9 -0.459556
2.91 -0.495663
2.92 -0.531632
2.93 -0.565263
2.94 -0.593669
2.95 -0.615639
2.96 -0.628658
2.97 -0.632507
2.98 -0.626697
2.99 -0.611282
3 -0.588218
3.01 -0.558154
3.02 -0.524305
3.03 -0.488829
3.04 -0.454692
3.05 -0.42428
3.06 -0.400788
3.07 -0.385203
3.08 -0.380102
3.09 -0.385321
3.1 -0.401062
3.11 -0.426873
3.12 -0.460378
3.13 -0.500478
3.14 -0.543675
3.15 -0.587499
3.16 -0.628856
3.17 -0.665413
3.18 -0.694028
3.19 -0.714132
3.2 -0.723541
3.21 -0.723015
3.22 -0.712976
3.23 -0.69468
3.24 -0.670934
3.25 -0.643947
3.26 -0.617254
3.27 -0.594018
3.28 -0.577446
3.29 -0.569669
3.3 -0.574013
3.31 -0.590058
3.32 -0.619704
3.33 -0.661053
3.34 -0.712779
3.35 -0.772466
3.36 -0.836345
3.37 -0.900785
3.38 -0.961707
3.39 -1.0149
3.4 -1.05669
3.41 -1.08491
3.42 -1.09575
3.43 -1.09064
3.44 -1.06778
3.45 -1.03036
3.46 -0.980661
3.47 -0.922383
3.48 -0.860483
3.49 -0.80004
3.5 -0.745835
3.51 -0.703013
3.52 -0.6755
3.53 -0.665096
3.54 -0.675155
3.55 -0.702503
3.56 -0.746914
3.57 -0.802409
3.58 -0.863404
3.59 -0.921498
3.6 -0.968909
3.61 -0.992606
3.62 -0.986016
3.63 -0.936825
3.64 -0.836564
3.65 -0.68097
3.66 -0.457839
3.67 -0.173546
3.68 0.179891
3.69 0.593153
3.7 1.06146
3.71 1.5768
3.72 2.12355
3.73 2.69079
3.74 3.25977
3.75 3.8141
3.76 4.3356
3.77 4.81063
3.78 5.2163
3.79 5.54905
3.8 5.78763
3.81 5.93196
3.82 5.97601
3.83 5.91446
3.84 5.76068
3.85 5.50599
3.86 5.174
3.87 4.76925
3.88 4.30833
3.89 3.80776
3.9 3.28113
3.91 2.74685
3.92 2.21983
3.93 1.71379
3.94 1.24038
3.95 0.811835
3.96 0.430004
3.97 0.108019
3.98 -0.160781
3.99 -0.37214
4 -0.530345
4.01 -0.642134
4.02 -0.70912
4.03 -0.74389
4.04 -0.750113
4.05 -0.738111
4.06 -0.714353
4.07 -0.685588
4.08 -0.657316
4.09 -0.634569
4.1 -0.619556
4.11 -0.614641
4.12 -0.620128
4.13 -0.634971
4.14 -0.658525
4.15 -0.687567
4.16 -0.720063
4.17 -0.752796
4.18 -0.783157
4.19 -0.808203
4.2 -0.826537
4.21 -0.835116
4.22 -0.834221
4.23 -0.822457
4.24 -0.800024
4.25 -0.767813
4.26 -0.725584
4.27 -0.675638
4.28 -0.618186
4.29 -0.555115
4.3 -0.487417
4.31 -0.416048
4.32 -0.342194
4.33 -0.266259
4.34 -0.1891
4.35 -0.111041
4.36 -0.0325136
4.37 0.0461167
4.38 0.124364
4.39 0.201755
4.4 0.277424
4.41 0.350577
4.42 0.420141
4.43 0.484547
4.44 0.543086
4.45 0.593111
4.46 0.634399
4.47 0.664867
4.48 0.68351
4.49 0.690117
4.5 0.682704
4.51 0.663027
4.52 0.629806
4.53 0.584966
4.54 0.529417
4.55 0.464393
4.56 0.392533
4.57 0.315001
4.58 0.234709
4.59 0.153467
4.6 0.0734307
4.61 -0.00385597
4.62 -0.0764054
4.63 -0.143808
4.64 -0.204637
4.65 -0.259117
4.66 -0.307197
4.67 -0.349018
4.68 -0.385824
4.69 -0.417727
4.7 -0.446349
4.71 -0.472325
4.72 -0.496651
4.73 -0.520078
4.74 -0.543119
4.75 -0.56612
4.76 -0.589162
4.77 -0.612094
4.78 -0.634605
4.79 -0.656156
4.8 -0.676358
4.81 -0.694353
4.82 -0.709957
4.83 -0.722584
4.84 -0.732056
4.85 -0.738505
4.86 -0.741782
4.87 -0.742672
4.88 -0.741451
4.89 -0.739014
4.9 -0.736067
4.91 -0.733467
4.92 -0.731842
4.93 -0.732071
4.94 -0.734351
4.95 -0.73911
4.96 -0.746335
4.97 -0.755733
4.98 -0.767108
4.99 -0.779665
5 -0.79285
5.01 -0.805859
5.02 -0.818027
5.03 -0.828633
5.04 -0.83742
5.05 -0.843781
5.06 -0.848017
5.07 -0.850129
5.08 -0.850591
5.09 -0.850001
5.1 -0.848997
5.11 -0.848286
5.12 -0.848553
5.13 -0.850177
5.14 -0.853349
5.15 -0.857963
5.16 -0.863366
5.17 -0.868561
5.18 -0.872157
5.19 -0.872238
5.2 -0.866566
5.21 -0.853306
5.22 -0.828797
5.23 -0.792331
5.24 -0.740156
5.25 -0.671822
5.26 -0.58607
5.27 -0.481665
5.28 -0.36098
5.29 -0.222812
5.3 -0.0718383
5.31 0.0900129
5.32 0.258356
5.33 0.428773
5.34 0.595858
5.35 0.755147
5.36 0.900193
5.37 1.02702
5.38 1.13121
5.39 1.20753
5.4 1.2564
5.41 1.27123
5.42 1.25619
5.43 1.20929
5.44 1.13299
5.45 1.03137
5.46 0.90566
5.47 0.763313
5.48 0.607367
5.49 0.444376
5.5 0.279168
5.51 0.117228
5.52 -0.0376786
5.53 -0.179957
5.54 -0.308294
5.55 -0.419384
5.56 -0.512192
5.57 -0.587379
5.58 -0.643442
5.59 -0.684161
5.6 -0.709483
5.61 -0.723013
5.62 -0.726921
5.63 -0.723538
5.64 -0.715761
5.65 -0.705172
5.66 -0.693747
5.67 -0.682459
5.68 -0.671874
5.69 -0.661943
5.7 -0.652168
5.71 -0.641667
5.72 -0.629102
5.73 -0.613258
5.74 -0.592857
5.75 -0.566383
5.76 -0.533696
5.77 -0.493228
5.78 -0.446066
5.79 -0.392163
5.8 -0.332764
5.81 -0.269535
5.82 -0.204214
5.83 -0.139189
5.84 -0.0770027
5.85 -0.0199491
5.86 0.029746
5.87 0.0694378
5.88 0.0986869
5.89 0.114413
5.9 0.117848
5.91 0.107901
5.92 0.0853397
5.93 0.0517617
5.94 0.00751259
5.95 -0.0442474
5.96 -0.102361
5.97 -0.164102
5.98 -0.227548
5.99 -0.290627
6 -0.351869
6.01 -0.409472
6.02 -0.463027
6.03 -0.511723
6.04 -0.555548
6.05 -0.595018
6.06 -0.630267
6.07 -0.662612
6.08 -0.692618
6.09 -0.721408
6.1 -0.749727
6.11 -0.77825
6.12 -0.807303
6.13 -0.837083
6.14 -0.867282
6.15 -0.897459
6.16 -0.926841
6.17 -0.954671
6.18 -0.979674
6.19 -1.00135
6.2 -1.01845
6.21 -1.03072
6.22 -1.03785
6.23 -1.03966
6.24 -1.03714
6.25 -1.03048
6.26 -1.02138
6.27 -1.01095
6.28 -1.00083
6.29 -0.992295
6.3 -0.986995
6.31 -0.985366
6.32 -0.988319
6.33 -0.995272
6.34 -1.00538
6.35 -1.01684
6.36 -1.02719
6.37 -1.03244
6.38 -1.02924
6.39 -1.01241
6.4 -0.976791
6.41 -0.918836
6.42 -0.830203
6.43 -0.710822
6.44 -0.552855
6.45 -0.356516
6.46 -0.120037
6.47 0.158617
6.48 0.473463
6.49 0.826757
6.5 1.2083
6.51 1.61404
6.52 2.03504
6.53 2.46221
6.54 2.88493
6.55 3.29387
6.56 3.67621
6.57 4.02328
6.58 4.32572
6.59 4.57168
6.6 4.7608
6.61 4.87762
6.62 4.92853
6.63 4.9068
6.64 4.8143
6.65 4.65745
6.66 4.43373
6.67 4.15836
6.68 3.83299
6.69 3.471
6.7 3.08129
6.71 2.67391
6.72 2.26008
6.73 1.84996
6.74 1.45225
6.75 1.0759
6.76 0.728106
6.77 0.412291
6.78 0.136977
6.79 -0.101037
6.8 -0.296021
6.81 -0.451833
6.82 -0.569743
6.83 -0.650911
6.84 -0.702602
6.85 -0.724742
6.86 -0.72588
6.87 -0.708825
6.88 -0.678711
6.89 -0.640074
6.9 -0.596123
6.91 -0.550587
6.92 -0.505908
6.93 -0.464019
6.94 -0.42617
6.95 -0.393439
6.96 -0.365555
6.97 -0.343271
6.98 -0.325543
6.99 -0.312333
7 -0.303096
7.01 -0.297252
7.02 -0.294914
7.03 -0.295497
7.04 -0.29944
7.05 -0.306717
7.06 -0.317682
7.07 -0.333003
7.08 -0.352602
7.09 -0.377605
7.1 -0.407536
7.11 -0.442853
7.12 -0.483308
7.13 -0.528226
7.14 -0.577374
7.15 -0.629275
7.16 -0.683062
7.17 -0.737199
7.18 -0.79035
7.19 -0.840854
7.2 -0.887758
7.21 -0.929112
7.22 -0.964696
7.23 -0.99341
7.24 -1.01499
7.25 -1.02989
7.26 -1.03774
7.27 -1.0402
7.28 -1.03764
7.29 -1.03173
7.3 -1.02368
7.31 -1.01487
7.32 -1.0065
7.33 -0.999782
7.34 -0.995216
7.35 -0.993281
7.36 -0.993819
7.37 -0.996166
7.38 -0.999351
7.39 -1.00185
7.4 -1.00164
7.41 -0.9967
7.42 -0.984843
7.43 -0.963083
7.44 -0.930479
7.45 -0.883023
7.46 -0.821105
7.47 -0.742518
7.48 -0.646914
7.49 -0.535413
7.5 -0.406977
7.51 -0.265402
7.52 -0.111327
7.53 0.0513516
7.54 0.219582
7.55 0.389511
7.56 0.557371
7.57 0.718264
7.58 0.869148
7.59 1.0056
7.6 1.12413
7.61 1.22317
7.62 1.29762
7.63 1.34932
7.64 1.37444
7.65 1.37481
7.66 1.35075
7.67 1.30232
7.68 1.23382
7.69 1.14466
7.7 1.04039
7.71 0.922843
7.72 0.795742
7.73 0.662715
7.74 0.526857
7.75 0.391645
7.76 0.260314
7.77 0.135473
7.78 0.0194507
7.79 -0.0849373
7.8 -0.177432
7.81 -0.25466
7.82 -0.317792
7.83 -0.365296
7.84 -0.397284
7.85 -0.414958
7.86 -0.417263
7.87 -0.407265
7.88 -0.384765
7.89 -0.352343
7.9 -0.311631
7.91 -0.264412
7.92 -0.213351
7.93 -0.160355
7.94 -0.107968
7.95 -0.0584256
7.96 -0.0140425
7.97 0.023678
7.98 0.0518582
7.99 0.0704085
8 0.0769552
8.01 0.0716383
8.02 0.054125
8.03 0.0239192
8.04 -0.0170288
8.05 -0.0692889
8.06 -0.129933
8.07 -0.197911
8.08 -0.270999
8.09 -0.346977
8.1 -0.42375
8.11 -0.499227
8.12 -0.571273
8.13 -0.638434
8.14 -0.699488
8.15 -0.753111
8.16 -0.79973
8.17 -0.83823
8.18 -0.870129
8.19 -0.895711
8.2 -0.916221
8.21 -0.933108
8.22 -0.947408
8.23 -0.96065
8.24 -0.973746
8.25 -0.9874
8.26 -1.00181
8.27 -1.01665
8.28 -1.03103
8.29 -1.04316
8.3 -1.05119
8.31 -1.05223
8.32 -1.04303
8.33 -1.02118
8.34 -0.981133
8.35 -0.922206
8.36 -0.83889
8.37 -0.730329
8.38 -0.594712
8.39 -0.429445
8.4 -0.237869
8.41 -0.0170832
8.42 0.22669
8.43 0.491759
8.44 0.772926
8.45 1.06419
8.46 1.35958
8.47 1.65191
8.48 1.93331
8.49 2.19692
8.5 2.43604
8.51 2.64191
8.52 2.81293
8.53 2.93809
8.54 3.0198
8.55 3.05266
8.56 3.03618
8.57 2.97395
8.58 2.86233
8.59 2.71135
8.6 2.52077
8.61 2.29921
8.62 2.05241
8.63 1.78651
8.64 1.50999
8.65 1.22902
8.66 0.950919
8.67 0.681917
8.68 0.427912
8.69 0.192174
8.7 -0.018739
8.71 -0.205801
8.72 -0.364483
8.73 -0.496362
8.74 -0.60185
8.75 -0.680996
8.76 -0.738685
8.77 -0.774558
8.78 -0.794655
8.79 -0.801122
8.8 -0.797866
8.81 -0.788569
8.82 -0.776074
8.83 -0.763514
8.84 -0.753331
8.85 -0.747313
8.86 -0.74672
8.87 -0.752762
8.88 -0.76496
8.89 -0.784087
8.9 -0.808634
8.91 -0.838097
8.92 -0.87117
8.93 -0.906445
8.94 -0.942646
8.95 -0.978375
8.96 -1.01231
8.97 -1.04348
8.98 -1.07111
8.99 -1.09432
9 -1.11331
9.01 -1.12735
9.02 -1.13724
9.03 -1.14304
9.04 -1.14537
9.05 -1.14501
9.06 -1.14237
9.07 -1.13838
9.08 -1.13345
9.09 -1.12809
9.1 -1.12253
9.11 -1.11683
9.12 -1.11083
9.13 -1.10403
9.14 -1.09592
9.15 -1.08565
9.16 -1.07222
9.17 -1.05494
9.18 -1.03217
9.19 -1.00378
9.2 -0.968265
9.21 -0.92554
9.22 -0.875318
9.23 -0.8172
9.24 -0.752437
9.25 -0.680856
9.26 -0.604522
9.27 -0.524578
9.28 -0.443044
9.29 -0.361891
9.3 -0.283714
9.31 -0.21027
9.32 -0.144428
9.33 -0.087794
9.34 -0.0420307
9.35 -0.00935441
9.36 0.0108397
9.37 0.0160854
9.38 0.00844699
9.39 -0.0123302
9.4 -0.0448315
9.41 -0.0867752
9.42 -0.137011
9.43 -0.192093
9.44 -0.249971
9.45 -0.30771
9.46 -0.362956
9.47 -0.412983
9.48 -0.456588
9.49 -0.491054
9.5 -0.516561
9.51 -0.532057
9.52 -0.537762
9.53 -0.534927
9.54 -0.523781
9.55 -0.507021
9.56 -0.48593
9.57 -0.463012
9.58 -0.440273
9.59 -0.420047
9.6 -0.403751
9.61 -0.393745
9.62 -0.390372
9.63 -0.394766
9.64 -0.407105
9.65 -0.426641
9.66 -0.453538
9.67 -0.485752
9.68 -0.522569
9.69 -0.562104
9.7 -0.602926
9.71 -0.643464
9.72 -0.682564
9.73 -0.718825
9.74 -0.751872
9.75 -0.781094
9.76 -0.806425
9.77 -0.828298
9.78 -0.846708
9.79 -0.862613
9.8 -0.876188
9.81 -0.887908
9.82 -0.897779
9.83 -0.905222
9.84 -0.909659
9.85 -0.90891
9.86 -0.90148
9.87 -0.884246
9.88 -0.853716
9.89 -0.807464
9.9 -0.738916
9.91 -0.647446
9.92 -0.526416
9.93 -0.37445
9.94 -0.189196
9.95 0.0331934
9.96 0.288937
9.97 0.582326
9.98 0.906203
9.99 1.259
10 1.63488
10.01 2.0264
10.02 2.42681
10.03 2.82663
10.04 3.21627
10.05 3.58648
10.06 3.92857
10.07 4.23083
10.08 4.49044
10.09 4.69307
10.1 4.84061
10.11 4.92581
10.12 4.94704
10.13 4.90871
10.14 4.80513
10.15 4.64919
10.16 4.44015
10.17 4.18881
10.18 3.90261
10.19 3.58901
10.2 3.25928
10.21 2.92081
10.22 2.58329
10.23 2.2543
10.24 1.94125
10.25 1.64813
10.26 1.38255
10.27 1.14336
10.28 0.935248
10.29 0.756172
10.3 0.605022
10.31 0.481121
10.32 0.378654
10.33 0.297018
10.34 0.229646
10.35 0.173662
10.36 0.124839
10.37 0.0795304
10.38 0.0347532
10.39 -0.01187
10.4 -0.062345
10.41 -0.117521
10.42 -0.177763
10.43 -0.243184
10.44 -0.312577
10.45 -0.38538
10.46 -0.459825
10.47 -0.534616
10.48 -0.608149
10.49 -0.679259
10.5 -0.746226
10.51 -0.80869
10.52 -0.865363
10.53 -0.916151
10.54 -0.960874
10.55 -0.999143
10.56 -1.03184
10.57 -1.05839
10.58 -1.07988
10.59 -1.09628
10.6 -1.10787
10.61 -1.11514
10.62 -1.11759
10.63 -1.11587
10.64 -1.10937
10.65 -1.09824
10.66 -1.08236
10.67 -1.06127
10.68 -1.03553
10.69 -1.00455
10.7 -0.969273
10.71 -0.929877
10.72 -0.887147
10.73 -0.842134
10.74 -0.795796
10.75 -0.749529
10.76 -0.704742
10.77 -0.662817
10.78 -0.625027
10.79 -0.593082
10.8 -0.567344
10.81 -0.54979
10.82 -0.540028
10.83 -0.53889
10.84 -0.546363
10.85 -0.561582
10.86 -0.584915
10.87 -0.614378
10.88 -0.649594
10.89 -0.688872
10.9 -0.730948
10.91 -0.774469
10.92 -0.818055
10.93 -0.860346
10.94 -0.900414
10.95 -0.937253
10.96 -0.970133
10.97 -0.998923
10.98 -1.02281
10.99 -1.04249
11 -1.05766
11.01 -1.06902
11.02 -1.07704
11.03 -1.08218
11.04 -1.08537
11.05 -1.08706
11.06 -1.08811
11.07 -1.08908
11.08 -1.09058
11.09 -1.09299
11.1 -1.09687
11.11 -1.10223
11.12 -1.10935
11.13 -1.11808
11.14 -1.12822
11.15 -1.13943
11.16 -1.1511
11.17 -1.16245
11.18 -1.17255
11.19 -1.18022
11.2 -1.18396
11.21 -1.18266
11.22 -1.17364
11.23 -1.15623
11.24 -1.12744
11.25 -1.08596
11.26 -1.03007
11.27 -0.956868
11.28 -0.86694
11.29 -0.756364
11.3 -0.626957
11.31 -0.477283
11.32 -0.307782
11.33 -0.120774
11.34 0.0841807
11.35 0.302176
11.36 0.531562
11.37 0.767631
11.38 1.00633
11.39 1.24251
11.4 1.47186
11.41 1.68761
11.42 1.88632
11.43 2.06225
11.44 2.21065
11.45 2.33006
11.46 2.41302
11.47 2.46271
11.48 2.47403
11.49 2.44938
11.5 2.3899
11.51 2.2955
11.52 2.17287
11.53 2.02174
11.54 1.85007
11.55 1.66122
11.56 1.46078
11.57 1.25423
11.58 1.0465
11.59 0.842268
11.6 0.646239
11.61 0.461623
11.62 0.290956
11.63 0.137423
11.64 0.000123747
11.65 -0.118028
11.66 -0.219809
11.67 -0.305215
11.68 -0.376014
11.69 -0.435065
11.7 -0.483341
11.71 -0.524667
11.72 -0.560596
11.73 -0.593739
11.74 -0.625834
11.75 -0.658452
11.76 -0.692451
11.77 -0.728604
11.78 -0.76664
11.79 -0.806204
11.8 -0.84629
11.81 -0.885694
11.82 -0.922501
11.83 -0.955365
11.84 -0.981891
11.85 -1.0005
11.86 -1.00957
11.87 -1.00667
11.88 -0.991915
11.89 -0.962332
11.9 -0.919051
11.91 -0.860937
11.92 -0.788106
11.93 -0.702079
11.94 -0.602036
11.95 -0.491207
11.96 -0.369955
11.97 -0.240943
11.98 -0.106226
11.99 0.0319496
12 0.170908
12.01 0.307928
12.02 0.440631
12.03 0.566297
12.04 0.682255
12.05 0.787156
12.06 0.877078
12.07 0.952468
12.08 1.01014
12.09 1.05011
12.1 1.07193
12.11 1.07417
12.12 1.05933
12.13 1.02563
12.14 0.976575
12.15 0.912762
12.16 0.836322
12.17 0.750202
12.18 0.655871
12.19 0.556998
12.2 0.455711
12.21 0.354831
12.22 0.256544
12.23 0.163373
12.24 0.0763119
12.25 -0.00224316
12.26 -0.0724747
12.27 -0.133526
12.28 -0.185509
12.29 -0.229593
12.3 -0.265759
12.31 -0.296379
12.32 -0.32234
12.33 -0.345649
12.34 -0.367849
12.35 -0.390582
12.36 -0.414991
12.37 -0.442437
12.38 -0.473163
12.39 -0.507518
12.4 -0.545168
12.41 -0.585169
