# xPDFsuite Configuration #
[PDF]
wavelength = 0.1432
dataformat = twotheta
inputfile = 1_1Pd_CeO2_cycle-00469.chi
backgroundfile = background-00000.chi
mode = xray
bgscale = 1.007
composition = CeO2
outputtype = gr
qmaxinst = 28.8974762299
qmin = 0.5
qmax = 27.9
rmax = 50.0
rmin = 0.0
rstep = 0.01
rpoly = 1.8657

[Misc]
inputdir = G:/SankarDec16/1Pd/Chi
savedir = D:/DATA/APS_CeO2/1Pd
backgroundfilefull = G:/SankarDec16/Background/background-00000.chi

#### start data
#S 1
#L r($\AA$)  G($\AA^{-2}$)
0 0
0.01 -0.00395885
0.02 -0.00762014
0.03 -0.0106775
0.04 -0.0128998
0.05 -0.0141587
0.06 -0.0142469
0.07 -0.0133017
0.08 -0.0112557
0.09 -0.00837088
0.1 -0.00482811
0.11 -0.000904639
0.12 0.00309624
0.13 0.00683515
0.14 0.01007
0.15 0.0125055
0.16 0.0139675
0.17 0.0143856
0.18 0.0136173
0.19 0.0118631
0.2 0.00912888
0.21 0.00571936
0.22 0.00185929
0.23 -0.00214031
0.24 -0.00599336
0.25 -0.00933427
0.26 -0.0119875
0.27 -0.0136826
0.28 -0.0143102
0.29 -0.0138616
0.3 -0.0122652
0.31 -0.0097761
0.32 -0.0064727
0.33 -0.00268897
0.34 0.00131702
0.35 0.00521458
0.36 0.00874809
0.37 0.0115427
0.38 0.0134975
0.39 0.0143793
0.4 0.0141487
0.41 0.0128592
0.42 0.0105137
0.43 0.0074101
0.44 0.00369583
0.45 -0.000281205
0.46 -0.00424155
0.47 -0.00784992
0.48 -0.0108932
0.49 -0.0130045
0.5 -0.0141622
0.51 -0.0141817
0.52 -0.0130954
0.53 -0.0110165
0.54 -0.00802261
0.55 -0.00444077
0.56 -0.000480805
0.57 0.00351134
0.58 0.00724786
0.59 0.0104042
0.6 0.0128197
0.61 0.0141526
0.62 0.0144618
0.63 0.0136196
0.64 0.0117291
0.65 0.00895842
0.66 0.00545634
0.67 0.00156409
0.68 -0.00245563
0.69 -0.00627453
0.7 -0.0096097
0.71 -0.0121618
0.72 -0.0138301
0.73 -0.0143132
0.74 -0.0137474
0.75 -0.0120673
0.76 -0.00944114
0.77 -0.00608336
0.78 -0.00220588
0.79 0.00185201
0.8 0.00578892
0.81 0.00930947
0.82 0.0121499
0.83 0.0140507
0.84 0.0149749
0.85 0.014676
0.86 0.0133589
0.87 0.0110217
0.88 0.00788631
0.89 0.00419894
0.9 0.000217744
0.91 -0.00374149
0.92 -0.00736447
0.93 -0.0104102
0.94 -0.0126583
0.95 -0.013916
0.96 -0.0142168
0.97 -0.0134069
0.98 -0.0117474
0.99 -0.00931939
1 -0.00639323
1.01 -0.00323566
1.02 -0.000152247
1.03 0.00259956
1.04 0.00470243
1.05 0.00600793
1.06 0.00636853
1.07 0.0056984
1.08 0.00413734
1.09 0.00168339
1.1 -0.00131484
1.11 -0.00463033
1.12 -0.00789446
1.13 -0.0107813
1.14 -0.0128466
1.15 -0.0138909
1.16 -0.0134881
1.17 -0.01158
1.18 -0.00804104
1.19 -0.00283968
1.2 0.00373612
1.21 0.0116381
1.22 0.0203206
1.23 0.0294348
1.24 0.0384402
1.25 0.0468645
1.26 0.0540547
1.27 0.0597115
1.28 0.0631705
1.29 0.0642873
1.3 0.0627823
1.31 0.0584497
1.32 0.0515979
1.33 0.0419748
1.34 0.0302794
1.35 0.0166954
1.36 0.00180158
1.37 -0.0138478
1.38 -0.0296645
1.39 -0.0450678
1.4 -0.0593879
1.41 -0.0721768
1.42 -0.0829549
1.43 -0.0912319
1.44 -0.0970078
1.45 -0.0996468
1.46 -0.0995523
1.47 -0.0964885
1.48 -0.0906864
1.49 -0.0824524
1.5 -0.0718569
1.51 -0.0595289
1.52 -0.0456427
1.53 -0.0307722
1.54 -0.0152984
1.55 0.000317584
1.56 0.015679
1.57 0.0302671
1.58 0.0438145
1.59 0.0558665
1.6 0.0661221
1.61 0.0743974
1.62 0.0802173
1.63 0.083731
1.64 0.0844954
1.65 0.0827078
1.66 0.0783174
1.67 0.0713342
1.68 0.0621715
1.69 0.0507374
1.7 0.0376887
1.71 0.0232473
1.72 0.00792899
1.73 -0.00779155
1.74 -0.0233872
1.75 -0.0384053
1.76 -0.0522641
1.77 -0.0646323
1.78 -0.0751406
1.79 -0.0834375
1.8 -0.0896157
1.81 -0.0932822
1.82 -0.0949144
1.83 -0.0945373
1.84 -0.0925735
1.85 -0.0894819
1.86 -0.0857096
1.87 -0.0818475
1.88 -0.0784532
1.89 -0.0760026
1.9 -0.074927
1.91 -0.0756417
1.92 -0.0781455
1.93 -0.082806
1.94 -0.0891939
1.95 -0.097213
1.96 -0.106369
1.97 -0.11612
1.98 -0.125799
1.99 -0.134753
2 -0.142113
2.01 -0.147295
2.02 -0.149638
2.03 -0.148433
2.04 -0.143671
2.05 -0.13444
2.06 -0.121312
2.07 -0.103977
2.08 -0.0827949
2.09 -0.0582498
2.1 -0.0304965
2.11 -0.000439996
2.12 0.0316565
2.13 0.0650615
2.14 0.0993567
2.15 0.134134
2.16 0.16908
2.17 0.204013
2.18 0.238866
2.19 0.273656
2.2 0.308488
2.21 0.34348
2.22 0.378792
2.23 0.41445
2.24 0.45048
2.25 0.486682
2.26 0.522758
2.27 0.558137
2.28 0.592269
2.29 0.623936
2.3 0.652489
2.31 0.676517
2.32 0.694883
2.33 0.706773
2.34 0.710279
2.35 0.705657
2.36 0.691117
2.37 0.667197
2.38 0.633678
2.39 0.590624
2.4 0.539695
2.41 0.480848
2.42 0.416707
2.43 0.348468
2.44 0.278312
2.45 0.208154
2.46 0.140268
2.47 0.0761247
2.48 0.0179838
2.49 -0.0333009
2.5 -0.0766603
2.51 -0.1112
2.52 -0.137752
2.53 -0.155377
2.54 -0.166183
2.55 -0.170659
2.56 -0.170527
2.57 -0.16746
2.58 -0.163062
2.59 -0.159056
2.6 -0.157075
2.61 -0.158228
2.62 -0.163451
2.63 -0.1735
2.64 -0.187999
2.65 -0.20739
2.66 -0.230301
2.67 -0.256107
2.68 -0.283427
2.69 -0.310965
2.7 -0.337174
2.71 -0.361008
2.72 -0.380963
2.73 -0.396514
2.74 -0.407088
2.75 -0.412355
2.76 -0.413103
2.77 -0.409307
2.78 -0.402613
2.79 -0.393968
2.8 -0.384936
2.81 -0.376867
2.82 -0.371461
2.83 -0.369526
2.84 -0.372537
2.85 -0.380676
2.86 -0.394234
2.87 -0.413151
2.88 -0.436273
2.89 -0.463098
2.9 -0.49171
2.91 -0.5207
2.92 -0.548214
2.93 -0.572775
2.94 -0.592295
2.95 -0.606236
2.96 -0.612892
2.97 -0.612439
2.98 -0.604762
2.99 -0.590183
3 -0.57033
3.01 -0.545958
3.02 -0.519479
3.03 -0.492626
3.04 -0.467596
3.05 -0.446085
3.06 -0.43045
3.07 -0.421211
3.08 -0.420193
3.09 -0.42707
3.1 -0.441842
3.11 -0.464006
3.12 -0.491689
3.13 -0.523919
3.14 -0.558083
3.15 -0.592275
3.16 -0.624212
3.17 -0.652213
3.18 -0.673977
3.19 -0.68921
3.2 -0.696373
3.21 -0.696162
3.22 -0.689001
3.23 -0.675952
3.24 -0.659167
3.25 -0.640439
3.26 -0.622391
3.27 -0.607459
3.28 -0.598035
3.29 -0.595678
3.3 -0.602893
3.31 -0.619257
3.32 -0.646179
3.33 -0.682137
3.34 -0.726074
3.35 -0.776108
3.36 -0.829333
3.37 -0.882955
3.38 -0.93385
3.39 -0.978789
3.4 -1.01495
3.41 -1.04068
3.42 -1.053
3.43 -1.05301
3.44 -1.03923
3.45 -1.01405
3.46 -0.979124
3.47 -0.937135
3.48 -0.891808
3.49 -0.846759
3.5 -0.805598
3.51 -0.771997
3.52 -0.748764
3.53 -0.737135
3.54 -0.739232
3.55 -0.752629
3.56 -0.776592
3.57 -0.806442
3.58 -0.837544
3.59 -0.862964
3.6 -0.876789
3.61 -0.868071
3.62 -0.832082
3.63 -0.758728
3.64 -0.641376
3.65 -0.476836
3.66 -0.255138
3.67 0.0180655
3.68 0.349301
3.69 0.730612
3.7 1.15791
3.71 1.62439
3.72 2.11695
3.73 2.62627
3.74 3.1366
3.75 3.63397
3.76 4.10288
3.77 4.53163
3.78 4.9004
3.79 5.20598
3.8 5.42966
3.81 5.57101
3.82 5.62429
3.83 5.58422
3.84 5.462
3.85 5.24902
3.86 4.96564
3.87 4.61497
3.88 4.21109
3.89 3.76828
3.9 3.29773
3.91 2.81614
3.92 2.33616
3.93 1.87051
3.94 1.42978
3.95 1.0252
3.96 0.65933
3.97 0.344179
3.98 0.0749278
3.99 -0.144018
4 -0.315663
4.01 -0.44539
4.02 -0.533901
4.03 -0.592138
4.04 -0.622792
4.05 -0.63501
4.06 -0.634414
4.07 -0.626912
4.08 -0.617729
4.09 -0.611143
4.1 -0.609621
4.11 -0.61527
4.12 -0.628567
4.13 -0.648769
4.14 -0.675226
4.15 -0.705294
4.16 -0.736978
4.17 -0.767492
4.18 -0.794427
4.19 -0.815033
4.2 -0.828202
4.21 -0.830988
4.22 -0.823952
4.23 -0.805869
4.24 -0.77718
4.25 -0.739002
4.26 -0.691441
4.27 -0.636995
4.28 -0.576308
4.29 -0.511475
4.3 -0.44377
4.31 -0.374482
4.32 -0.304718
4.33 -0.235289
4.34 -0.166657
4.35 -0.0991573
4.36 -0.0328574
4.37 0.0323367
4.38 0.0963912
4.39 0.159501
4.4 0.22147
4.41 0.28214
4.42 0.341053
4.43 0.397346
4.44 0.450453
4.45 0.498532
4.46 0.541008
4.47 0.576038
4.48 0.602308
4.49 0.6191
4.5 0.624105
4.51 0.618155
4.52 0.599363
4.53 0.568793
4.54 0.526642
4.55 0.473344
4.56 0.411199
4.57 0.340555
4.58 0.264489
4.59 0.184534
4.6 0.103069
4.61 0.0220735
4.62 -0.0561743
4.63 -0.130424
4.64 -0.198687
4.65 -0.260404
4.66 -0.314886
4.67 -0.361574
4.68 -0.401446
4.69 -0.433956
4.7 -0.460946
4.71 -0.482918
4.72 -0.501188
4.73 -0.516988
4.74 -0.531279
4.75 -0.545176
4.76 -0.559438
4.77 -0.574603
4.78 -0.590964
4.79 -0.608635
4.8 -0.627321
4.81 -0.646776
4.82 -0.666388
4.83 -0.685593
4.84 -0.703743
4.85 -0.720371
4.86 -0.73475
4.87 -0.746851
4.88 -0.756181
4.89 -0.762954
4.9 -0.76728
4.91 -0.76939
4.92 -0.769911
4.93 -0.769165
4.94 -0.767889
4.95 -0.766577
4.96 -0.765779
4.97 -0.765854
4.98 -0.767264
4.99 -0.770005
5 -0.774315
5.01 -0.779996
5.02 -0.786914
5.03 -0.794857
5.04 -0.803458
5.05 -0.812484
5.06 -0.821589
5.07 -0.830537
5.08 -0.839113
5.09 -0.847196
5.1 -0.8546
5.11 -0.861326
5.12 -0.867169
5.13 -0.87203
5.14 -0.875652
5.15 -0.877538
5.16 -0.87737
5.17 -0.873952
5.18 -0.866795
5.19 -0.854468
5.2 -0.835683
5.21 -0.809515
5.22 -0.773477
5.23 -0.727612
5.24 -0.669383
5.25 -0.59884
5.26 -0.515278
5.27 -0.417977
5.28 -0.308792
5.29 -0.18692
5.3 -0.0557955
5.31 0.0831539
5.32 0.226714
5.33 0.371634
5.34 0.513859
5.35 0.650037
5.36 0.775202
5.37 0.886219
5.38 0.979522
5.39 1.05079
5.4 1.10012
5.41 1.12187
5.42 1.11901
5.43 1.08946
5.44 1.03472
5.45 0.957737
5.46 0.858806
5.47 0.743962
5.48 0.615077
5.49 0.477558
5.5 0.335266
5.51 0.192633
5.52 0.053245
5.53 -0.0783686
5.54 -0.200356
5.55 -0.30968
5.56 -0.404885
5.57 -0.485964
5.58 -0.551107
5.59 -0.602973
5.6 -0.640972
5.61 -0.667787
5.62 -0.684924
5.63 -0.694007
5.64 -0.697551
5.65 -0.696515
5.66 -0.692889
5.67 -0.687406
5.68 -0.680705
5.69 -0.672969
5.7 -0.66376
5.71 -0.65269
5.72 -0.638605
5.73 -0.620705
5.74 -0.597988
5.75 -0.569222
5.76 -0.534459
5.77 -0.492348
5.78 -0.44402
5.79 -0.389518
5.8 -0.330088
5.81 -0.267351
5.82 -0.203064
5.83 -0.139507
5.84 -0.0792401
5.85 -0.024497
5.86 0.0225006
5.87 0.0590864
5.88 0.0848569
5.89 0.096664
5.9 0.09581
5.91 0.0812081
5.92 0.0537135
5.93 0.0150504
5.94 -0.0342531
5.95 -0.0908229
5.96 -0.153179
5.97 -0.21831
5.98 -0.283972
5.99 -0.347658
6 -0.407796
6.01 -0.462014
6.02 -0.510051
6.03 -0.550853
6.04 -0.584513
6.05 -0.611848
6.06 -0.633134
6.07 -0.650385
6.08 -0.664636
6.09 -0.677781
6.1 -0.691266
6.11 -0.706667
6.12 -0.724802
6.13 -0.746996
6.14 -0.773039
6.15 -0.803166
6.16 -0.836757
6.17 -0.872822
6.18 -0.910303
6.19 -0.947684
6.2 -0.983403
6.21 -1.01608
6.22 -1.04447
6.23 -1.06718
6.24 -1.08417
6.25 -1.09413
6.26 -1.09809
6.27 -1.09601
6.28 -1.0888
6.29 -1.07764
6.3 -1.06327
6.31 -1.04711
6.32 -1.02981
6.33 -1.01197
6.34 -0.993609
6.35 -0.974071
6.36 -0.952393
6.37 -0.926088
6.38 -0.89324
6.39 -0.850265
6.4 -0.793455
6.41 -0.720086
6.42 -0.623667
6.43 -0.503788
6.44 -0.353996
6.45 -0.173936
6.46 0.0382779
6.47 0.284874
6.48 0.561464
6.49 0.870528
6.5 1.204
6.51 1.55898
6.52 1.92829
6.53 2.3044
6.54 2.67865
6.55 3.04286
6.56 3.3862
6.57 3.7009
6.58 3.97865
6.59 4.20894
6.6 4.39094
6.61 4.51089
6.62 4.57375
6.63 4.57323
6.64 4.51041
6.65 4.3905
6.66 4.21065
6.67 3.98396
6.68 3.71125
6.69 3.40404
6.7 3.06978
6.71 2.71683
6.72 2.35516
6.73 1.99296
6.74 1.63821
6.75 1.29842
6.76 0.979922
6.77 0.685973
6.78 0.423755
6.79 0.191175
6.8 -0.00682721
6.81 -0.17298
6.82 -0.307972
6.83 -0.412298
6.84 -0.491581
6.85 -0.545101
6.86 -0.579604
6.87 -0.596782
6.88 -0.600375
6.89 -0.593871
6.9 -0.579084
6.91 -0.559322
6.92 -0.53591
6.93 -0.510688
6.94 -0.484695
6.95 -0.45882
6.96 -0.433588
6.97 -0.409598
6.98 -0.387035
6.99 -0.366337
7 -0.347881
7.01 -0.331936
7.02 -0.319411
7.03 -0.31041
7.04 -0.306062
7.05 -0.306703
7.06 -0.31296
7.07 -0.325716
7.08 -0.344602
7.09 -0.3708
7.1 -0.40323
7.11 -0.442029
7.12 -0.486405
7.13 -0.535204
7.14 -0.58765
7.15 -0.641958
7.16 -0.696831
7.17 -0.750638
7.18 -0.801979
7.19 -0.849198
7.2 -0.891685
7.21 -0.927649
7.22 -0.957386
7.23 -0.980176
7.24 -0.996232
7.25 -1.00635
7.26 -1.01064
7.27 -1.01083
7.28 -1.00761
7.29 -1.00251
7.3 -0.99663
7.31 -0.991152
7.32 -0.986827
7.33 -0.984511
7.34 -0.984176
7.35 -0.985838
7.36 -0.988885
7.37 -0.9924
7.38 -0.994977
7.39 -0.995241
7.4 -0.991038
7.41 -0.980711
7.42 -0.962415
7.43 -0.933682
7.44 -0.894185
7.45 -0.840695
7.46 -0.774181
7.47 -0.693194
7.48 -0.597985
7.49 -0.489917
7.5 -0.368658
7.51 -0.237565
7.52 -0.0975559
7.53 0.0481193
7.54 0.196917
7.55 0.345692
7.56 0.491678
7.57 0.630984
7.58 0.761571
7.59 0.880114
7.6 0.98412
7.61 1.07256
7.62 1.14157
7.63 1.19266
7.64 1.2228
7.65 1.23329
7.66 1.22417
7.67 1.19511
7.68 1.14922
7.69 1.08538
7.7 1.00772
7.71 0.917101
7.72 0.816081
7.73 0.707412
7.74 0.592946
7.75 0.475873
7.76 0.358464
7.77 0.24331
7.78 0.132623
7.79 0.0291055
7.8 -0.0662157
7.81 -0.15004
7.82 -0.222439
7.83 -0.281436
7.84 -0.326349
7.85 -0.357667
7.86 -0.373686
7.87 -0.37693
7.88 -0.366674
7.89 -0.34523
7.9 -0.314038
7.91 -0.274719
7.92 -0.230147
7.93 -0.182141
7.94 -0.133635
7.95 -0.0869959
7.96 -0.0448001
7.97 -0.00878471
7.98 0.0180397
7.99 0.0354281
8 0.040983
8.01 0.0348515
8.02 0.0167758
8.03 -0.0135857
8.04 -0.0541866
8.05 -0.10533
8.06 -0.16404
8.07 -0.229089
8.08 -0.298193
8.09 -0.369192
8.1 -0.439943
8.11 -0.508634
8.12 -0.573245
8.13 -0.632639
8.14 -0.68586
8.15 -0.73192
8.16 -0.771471
8.17 -0.80376
8.18 -0.830378
8.19 -0.851788
8.2 -0.869251
8.21 -0.884088
8.22 -0.897291
8.23 -0.910042
8.24 -0.923042
8.25 -0.936647
8.26 -0.950773
8.27 -0.964778
8.28 -0.977657
8.29 -0.987375
8.3 -0.992218
8.31 -0.989376
8.32 -0.975889
8.33 -0.949747
8.34 -0.905966
8.35 -0.844364
8.36 -0.760224
8.37 -0.653231
8.38 -0.522151
8.39 -0.365135
8.4 -0.185459
8.41 0.0189601
8.42 0.242496
8.43 0.483398
8.44 0.737018
8.45 0.998195
8.46 1.26168
8.47 1.52159
8.48 1.77122
8.49 2.00505
8.5 2.21759
8.51 2.40168
8.52 2.55621
8.53 2.67208
8.54 2.75148
8.55 2.78991
8.56 2.78697
8.57 2.74555
8.58 2.66237
8.59 2.54561
8.6 2.39461
8.61 2.21625
8.62 2.0149
8.63 1.79506
8.64 1.56372
8.65 1.32517
8.66 1.08566
8.67 0.84994
8.68 0.622866
8.69 0.407429
8.7 0.208824
8.71 0.0270575
8.72 -0.134034
8.73 -0.274988
8.74 -0.395572
8.75 -0.495146
8.76 -0.577015
8.77 -0.640082
8.78 -0.688744
8.79 -0.724057
8.8 -0.74866
8.81 -0.765344
8.82 -0.775683
8.83 -0.782569
8.84 -0.787511
8.85 -0.792312
8.86 -0.798161
8.87 -0.806169
8.88 -0.816653
8.89 -0.830338
8.9 -0.846815
8.91 -0.866064
8.92 -0.887606
8.93 -0.910792
8.94 -0.935105
8.95 -0.959744
8.96 -0.984072
8.97 -1.00748
8.98 -1.02949
8.99 -1.04955
9 -1.06762
9.01 -1.0832
9.02 -1.09656
9.03 -1.10757
9.04 -1.11637
9.05 -1.12325
9.06 -1.12815
9.07 -1.13149
9.08 -1.13319
9.09 -1.13338
9.1 -1.13201
9.11 -1.1288
9.12 -1.12372
9.13 -1.11603
9.14 -1.10562
9.15 -1.09177
9.16 -1.0739
9.17 -1.05177
9.18 -1.02423
9.19 -0.99163
9.2 -0.953043
9.21 -0.908765
9.22 -0.858858
9.23 -0.803325
9.24 -0.743282
9.25 -0.678881
9.26 -0.611699
9.27 -0.54271
9.28 -0.473423
9.29 -0.405205
9.3 -0.33998
9.31 -0.278813
9.32 -0.223735
9.33 -0.175726
9.34 -0.135867
9.35 -0.105643
9.36 -0.0845169
9.37 -0.0742288
9.38 -0.0732828
9.39 -0.0819189
9.4 -0.099233
9.41 -0.123708
9.42 -0.154789
9.43 -0.190127
9.44 -0.22859
9.45 -0.268238
9.46 -0.307584
9.47 -0.344952
9.48 -0.379391
9.49 -0.409267
9.5 -0.434417
9.51 -0.454089
9.52 -0.468205
9.53 -0.47731
9.54 -0.481311
9.55 -0.481638
9.56 -0.478806
9.57 -0.474158
9.58 -0.468741
9.59 -0.463756
9.6 -0.460098
9.61 -0.458981
9.62 -0.460795
9.63 -0.466225
9.64 -0.475536
9.65 -0.488509
9.66 -0.505425
9.67 -0.525379
9.68 -0.548217
9.69 -0.5731
9.7 -0.599421
9.71 -0.626542
9.72 -0.653826
9.73 -0.680721
9.74 -0.706863
9.75 -0.7319
9.76 -0.755603
9.77 -0.777917
9.78 -0.798495
9.79 -0.817407
9.8 -0.834147
9.81 -0.848375
9.82 -0.859434
9.83 -0.866007
9.84 -0.867386
9.85 -0.860863
9.86 -0.845399
9.87 -0.818094
9.88 -0.776185
9.89 -0.718146
9.9 -0.638608
9.91 -0.538005
9.92 -0.411238
9.93 -0.257986
9.94 -0.0769159
9.95 0.134499
9.96 0.372716
9.97 0.640748
9.98 0.932634
9.99 1.24695
10 1.579
10.01 1.92296
10.02 2.2736
10.03 2.6236
10.04 2.96558
10.05 3.2924
10.06 3.59727
10.07 3.87096
10.08 4.11111
10.09 4.30611
10.1 4.45707
10.11 4.55762
10.12 4.60572
10.13 4.60423
10.14 4.54727
10.15 4.44469
10.16 4.29442
10.17 4.10453
10.18 3.88024
10.19 3.62645
10.2 3.35265
10.21 3.06349
10.22 2.76792
10.23 2.47191
10.24 2.18215
10.25 1.90308
10.26 1.64135
10.27 1.39788
10.28 1.17744
10.29 0.979943
10.3 0.805709
10.31 0.65559
10.32 0.525607
10.33 0.416663
10.34 0.323526
10.35 0.244502
10.36 0.176256
10.37 0.115371
10.38 0.0596279
10.39 0.00591526
10.4 -0.0476554
10.41 -0.102781
10.42 -0.16048
10.43 -0.221577
10.44 -0.28578
10.45 -0.353213
10.46 -0.422764
10.47 -0.493641
10.48 -0.564583
10.49 -0.634467
10.5 -0.701726
10.51 -0.765614
10.52 -0.824676
10.53 -0.87836
10.54 -0.926109
10.55 -0.96711
10.56 -1.00198
10.57 -1.02979
10.58 -1.05164
10.59 -1.06746
10.6 -1.07771
10.61 -1.08319
10.62 -1.08377
10.63 -1.08054
10.64 -1.07342
10.65 -1.06296
10.66 -1.04939
10.67 -1.03267
10.68 -1.01325
10.69 -0.990814
10.7 -0.965823
10.71 -0.938231
10.72 -0.908262
10.73 -0.876337
10.74 -0.842651
10.75 -0.80796
10.76 -0.772813
10.77 -0.738047
10.78 -0.704464
10.79 -0.673183
10.8 -0.644813
10.81 -0.62086
10.82 -0.601659
10.83 -0.588274
10.84 -0.581376
10.85 -0.580922
10.86 -0.588064
10.87 -0.601726
10.88 -0.622445
10.89 -0.649252
10.9 -0.681471
10.91 -0.718452
10.92 -0.758692
10.93 -0.801407
10.94 -0.84505
10.95 -0.888493
10.96 -0.930438
10.97 -0.970002
10.98 -1.00577
10.99 -1.03753
11 -1.06425
11.01 -1.08592
11.02 -1.10248
11.03 -1.11376
11.04 -1.12071
11.05 -1.12329
11.06 -1.12277
11.07 -1.11976
11.08 -1.11525
11.09 -1.11017
11.1 -1.10543
11.11 -1.10172
11.12 -1.09977
11.13 -1.09989
11.14 -1.10222
11.15 -1.10679
11.16 -1.11295
11.17 -1.12018
11.18 -1.12732
11.19 -1.13312
11.2 -1.13591
11.21 -1.13433
11.22 -1.12561
11.23 -1.10886
11.24 -1.08108
11.25 -1.04097
11.26 -0.986951
11.27 -0.916379
11.28 -0.830036
11.29 -0.72454
11.3 -0.6019
11.31 -0.461136
11.32 -0.30301
11.33 -0.129849
11.34 0.0583683
11.35 0.25725
11.36 0.465159
11.37 0.678049
11.38 0.892503
11.39 1.10423
11.4 1.30982
11.41 1.50378
11.42 1.6835
11.43 1.84444
11.44 1.98284
11.45 2.09763
11.46 2.18272
11.47 2.24065
11.48 2.26706
11.49 2.26365
11.5 2.23097
11.51 2.16837
11.52 2.08097
11.53 1.96766
11.54 1.83467
11.55 1.68404
11.56 1.51981
11.57 1.34646
11.58 1.16717
11.59 0.986428
11.6 0.807692
11.61 0.634209
11.62 0.46852
11.63 0.31369
11.64 0.170033
11.65 0.0405299
11.66 -0.0760143
11.67 -0.178778
11.68 -0.268299
11.69 -0.346336
11.7 -0.412707
11.71 -0.470496
11.72 -0.520318
11.73 -0.564401
11.74 -0.604228
11.75 -0.641073
11.76 -0.676329
11.77 -0.710676
11.78 -0.744711
11.79 -0.778518
11.8 -0.811805
11.81 -0.844054
11.82 -0.874041
11.83 -0.900928
11.84 -0.922911
11.85 -0.938699
11.86 -0.946887
11.87 -0.945265
11.88 -0.933709
11.89 -0.90939
11.9 -0.872987
11.91 -0.823217
11.92 -0.759886
11.93 -0.684174
11.94 -0.595066
11.95 -0.49548
11.96 -0.38562
11.97 -0.267987
11.98 -0.144537
11.99 -0.0174213
12 0.110717
12.01 0.237265
12.02 0.359891
12.03 0.476015
12.04 0.583148
12.05 0.680088
12.06 0.763345
12.07 0.83348
12.08 0.887821
12.09 0.926618
12.1 0.949705
12.11 0.956098
12.12 0.948155
12.13 0.924567
12.14 0.888389
12.15 0.840183
12.16 0.781685
12.17 0.715214
12.18 0.641742
12.19 0.564049
12.2 0.483468
12.21 0.401971
12.22 0.320998
12.23 0.242099
12.24 0.166057
12.25 0.0942646
12.26 0.0268049
12.27 -0.0357399
12.28 -0.0932736
12.29 -0.146291
12.3 -0.194538
12.31 -0.239169
12.32 -0.280359
12.33 -0.318998
12.34 -0.355704
12.35 -0.390999
12.36 -0.425494
12.37 -0.459441
12.38 -0.49307
