# xPDFsuite Configuration #
[PDF]
wavelength = 0.1432
dataformat = twotheta
inputfile = 1_1Pd_CeO2_cycle-00106.chi
backgroundfile = background-00000.chi
mode = xray
bgscale = 1.007
composition = CeO2
outputtype = gr
qmaxinst = 28.8974762299
qmin = 0.5
qmax = 27.9
rmax = 50.0
rmin = 0.0
rstep = 0.01
rpoly = 1.8657

[Misc]
inputdir = G:/SankarDec16/1Pd/Chi
savedir = D:/DATA/APS_CeO2/1Pd
backgroundfilefull = G:/SankarDec16/Background/background-00000.chi

#### start data
#S 1
#L r($\AA$)  G($\AA^{-2}$)
0 0
0.01 -0.00632591
0.02 -0.012176
0.03 -0.0170604
0.04 -0.0206099
0.05 -0.0226189
0.06 -0.0227568
0.07 -0.0212428
0.08 -0.0179699
0.09 -0.0133571
0.1 -0.00769394
0.11 -0.00142413
0.12 0.00496749
0.13 0.0109379
0.14 0.0161007
0.15 0.0199837
0.16 0.0223092
0.17 0.0229653
0.18 0.0217251
0.19 0.01891
0.2 0.0145303
0.21 0.00907408
0.22 0.00290117
0.23 -0.00349052
0.24 -0.0096439
0.25 -0.0149741
0.26 -0.0192016
0.27 -0.0218945
0.28 -0.0228793
0.29 -0.0221435
0.3 -0.0195742
0.31 -0.0155805
0.32 -0.0102896
0.33 -0.00423604
0.34 0.00216662
0.35 0.0083891
0.36 0.0140236
0.37 0.0184704
0.38 0.0215703
0.39 0.0229517
0.4 0.0225538
0.41 0.0204638
0.42 0.0166891
0.43 0.0117072
0.44 0.00575651
0.45 -0.000606297
0.46 -0.00693353
0.47 -0.0126888
0.48 -0.0175328
0.49 -0.0208793
0.5 -0.0226966
0.51 -0.0226915
0.52 -0.0209185
0.53 -0.0175615
0.54 -0.0127477
0.55 -0.00700142
0.56 -0.00066106
0.57 0.00572009
0.58 0.0116813
0.59 0.0167037
0.6 0.0205329
0.61 0.0226234
0.62 0.0230733
0.63 0.0216813
0.64 0.0186157
0.65 0.0141482
0.66 0.00852085
0.67 0.0022801
0.68 -0.00415096
0.69 -0.0102482
0.7 -0.0155594
0.71 -0.0196076
0.72 -0.0222353
0.73 -0.0229634
0.74 -0.0220149
0.75 -0.0192902
0.76 -0.0150631
0.77 -0.00968023
0.78 -0.0034862
0.79 0.00297649
0.8 0.00922175
0.81 0.0147798
0.82 0.0192302
0.83 0.0221615
0.84 0.0235215
0.85 0.0229228
0.86 0.0207021
0.87 0.016867
0.88 0.0117831
0.89 0.00585341
0.9 -0.00049325
0.91 -0.00674905
0.92 -0.0123941
0.93 -0.0170422
0.94 -0.0203339
0.95 -0.0219552
0.96 -0.0219691
0.97 -0.0201202
0.98 -0.016847
0.99 -0.012284
1 -0.00688264
1.01 -0.00108975
1.02 0.00458002
1.03 0.00968817
1.04 0.0136874
1.05 0.0163088
1.06 0.0172757
1.07 0.0163993
1.08 0.0138842
1.09 0.00964121
1.1 0.0042334
1.11 -0.00204102
1.12 -0.00861266
1.13 -0.0149642
1.14 -0.0204355
1.15 -0.024647
1.16 -0.0269466
1.17 -0.0271635
1.18 -0.0250507
1.19 -0.0204807
1.2 -0.0138061
1.21 -0.00498533
1.22 0.00523754
1.23 0.0164658
1.24 0.0279935
1.25 0.0391939
1.26 0.0492663
1.27 0.0577634
1.28 0.0638845
1.29 0.0674048
1.3 0.0679808
1.31 0.0653688
1.32 0.0599227
1.33 0.0513828
1.34 0.0405603
1.35 0.0276951
1.36 0.0134589
1.37 -0.00152292
1.38 -0.0165943
1.39 -0.031153
1.4 -0.0445124
1.41 -0.0562661
1.42 -0.0659916
1.43 -0.0732981
1.44 -0.0782772
1.45 -0.0804644
1.46 -0.0803327
1.47 -0.0777961
1.48 -0.0731611
1.49 -0.0667559
1.5 -0.0587305
1.51 -0.0495807
1.52 -0.0394689
1.53 -0.0287723
1.54 -0.0177147
1.55 -0.00653489
1.56 0.00457375
1.57 0.0153865
1.58 0.0257749
1.59 0.0355253
1.6 0.0444601
1.61 0.0524324
1.62 0.0590975
1.63 0.0644112
1.64 0.0679402
1.65 0.0696131
1.66 0.0691863
1.67 0.0664014
1.68 0.0614019
1.69 0.0537742
1.7 0.0439791
1.71 0.0319748
1.72 0.0181312
1.73 0.00287742
1.74 -0.0133881
1.75 -0.0300118
1.76 -0.0464025
1.77 -0.0619451
1.78 -0.0760585
1.79 -0.0881033
1.8 -0.0979023
1.81 -0.104722
1.82 -0.108867
1.83 -0.110105
1.84 -0.108741
1.85 -0.105219
1.86 -0.099897
1.87 -0.0936016
1.88 -0.0869487
1.89 -0.0807254
1.9 -0.0756068
1.91 -0.0723253
1.92 -0.0711408
1.93 -0.0727919
1.94 -0.0769806
1.95 -0.0838621
1.96 -0.0930233
1.97 -0.103897
1.98 -0.11587
1.99 -0.12801
2 -0.139349
2.01 -0.148962
2.02 -0.155921
2.03 -0.159182
2.04 -0.158483
2.05 -0.152532
2.06 -0.141802
2.07 -0.125751
2.08 -0.10469
2.09 -0.0791584
2.1 -0.0492909
2.11 -0.016291
2.12 0.0194557
2.13 0.0568797
2.14 0.0953003
2.15 0.133995
2.16 0.172432
2.17 0.210101
2.18 0.246885
2.19 0.282636
2.2 0.317472
2.21 0.351611
2.22 0.38528
2.23 0.418798
2.24 0.452384
2.25 0.486151
2.26 0.520059
2.27 0.553835
2.28 0.587067
2.29 0.618841
2.3 0.648443
2.31 0.674561
2.32 0.695945
2.33 0.711604
2.34 0.719459
2.35 0.719436
2.36 0.709455
2.37 0.689734
2.38 0.659762
2.39 0.619287
2.4 0.569878
2.41 0.511156
2.42 0.445896
2.43 0.375205
2.44 0.301423
2.45 0.226685
2.46 0.153445
2.47 0.0835422
2.48 0.0195099
2.49 -0.0374721
2.5 -0.086067
2.51 -0.125103
2.52 -0.155332
2.53 -0.175561
2.54 -0.188033
2.55 -0.193202
2.56 -0.192943
2.57 -0.189127
2.58 -0.183529
2.59 -0.178142
2.6 -0.174812
2.61 -0.17484
2.62 -0.17931
2.63 -0.189083
2.64 -0.203752
2.65 -0.223769
2.66 -0.24757
2.67 -0.274373
2.68 -0.302552
2.69 -0.330592
2.7 -0.356628
2.71 -0.379495
2.72 -0.39741
2.73 -0.409843
2.74 -0.416185
2.75 -0.41616
2.76 -0.410824
2.77 -0.400325
2.78 -0.38674
2.79 -0.371387
2.8 -0.356278
2.81 -0.343114
2.82 -0.334135
2.83 -0.330241
2.84 -0.33335
2.85 -0.343563
2.86 -0.361182
2.87 -0.386038
2.88 -0.416521
2.89 -0.451897
2.9 -0.48958
2.91 -0.527661
2.92 -0.563662
2.93 -0.595624
2.94 -0.62077
2.95 -0.638419
2.96 -0.64632
2.97 -0.644745
2.98 -0.63357
2.99 -0.613257
3 -0.585992
3.01 -0.552812
3.02 -0.516927
3.03 -0.480656
3.04 -0.446913
3.05 -0.417939
3.06 -0.396854
3.07 -0.384313
3.08 -0.382708
3.09 -0.391561
3.1 -0.410823
3.11 -0.439767
3.12 -0.475868
3.13 -0.517744
3.14 -0.561908
3.15 -0.605756
3.16 -0.646219
3.17 -0.68105
3.18 -0.707118
3.19 -0.724085
3.2 -0.729849
3.21 -0.725391
3.22 -0.711289
3.23 -0.688983
3.24 -0.661417
3.25 -0.630994
3.26 -0.601312
3.27 -0.575668
3.28 -0.557332
3.29 -0.548452
3.3 -0.552455
3.31 -0.568826
3.32 -0.599536
3.33 -0.642589
3.34 -0.696623
3.35 -0.759169
3.36 -0.826323
3.37 -0.894408
3.38 -0.95917
3.39 -1.01629
3.4 -1.06191
3.41 -1.09376
3.42 -1.10778
3.43 -1.10533
3.44 -1.08438
3.45 -1.04803
3.46 -0.998475
3.47 -0.939279
3.48 -0.875494
3.49 -0.812067
3.5 -0.75402
3.51 -0.706559
3.52 -0.673833
3.53 -0.657887
3.54 -0.662349
3.55 -0.684334
3.56 -0.723964
3.57 -0.775511
3.58 -0.833655
3.59 -0.890272
3.6 -0.937572
3.61 -0.962833
3.62 -0.959223
3.63 -0.914451
3.64 -0.819805
3.65 -0.670721
3.66 -0.454713
3.67 -0.177718
3.68 0.168644
3.69 0.575444
3.7 1.03826
3.71 1.54945
3.72 2.09348
3.73 2.6598
3.74 3.22943
3.75 3.78604
3.76 4.3112
3.77 4.79092
3.78 5.20202
3.79 5.54043
3.8 5.78446
3.81 5.93359
3.82 5.98138
3.83 5.92213
3.84 5.76912
3.85 5.51329
3.86 5.17855
3.87 4.76944
3.88 4.3029
3.89 3.79585
3.9 3.26236
3.91 2.72138
3.92 2.18846
3.93 1.67778
3.94 1.20149
3.95 0.772312
3.96 0.392093
3.97 0.0744558
3.98 -0.187724
3.99 -0.390219
4 -0.537802
4.01 -0.637782
4.02 -0.692377
4.03 -0.714926
4.04 -0.709901
4.05 -0.688281
4.06 -0.657169
4.07 -0.623992
4.08 -0.594273
4.09 -0.573749
4.1 -0.56408
4.11 -0.567683
4.12 -0.584332
4.13 -0.612309
4.14 -0.650357
4.15 -0.694288
4.16 -0.741207
4.17 -0.787049
4.18 -0.828442
4.19 -0.861611
4.2 -0.885013
4.21 -0.894746
4.22 -0.891571
4.23 -0.873933
4.24 -0.842503
4.25 -0.798831
4.26 -0.743212
4.27 -0.678989
4.28 -0.60719
4.29 -0.530633
4.3 -0.451106
4.31 -0.370446
4.32 -0.290079
4.33 -0.211299
4.34 -0.134589
4.35 -0.0604893
4.36 0.0109628
4.37 0.0800014
4.38 0.146596
4.39 0.211279
4.4 0.273926
4.41 0.334645
4.42 0.393122
4.43 0.448624
4.44 0.500704
4.45 0.547542
4.46 0.588606
4.47 0.622019
4.48 0.646428
4.49 0.661081
4.5 0.663577
4.51 0.654763
4.52 0.632686
4.53 0.598457
4.54 0.552306
4.55 0.494731
4.56 0.428149
4.57 0.353013
4.58 0.272534
4.59 0.188373
4.6 0.10303
4.61 0.0185515
4.62 -0.0626624
4.63 -0.139402
4.64 -0.20962
4.65 -0.272843
4.66 -0.328441
4.67 -0.375938
4.68 -0.416439
4.69 -0.449486
4.7 -0.477031
4.71 -0.499649
4.72 -0.518702
4.73 -0.535424
4.74 -0.550761
4.75 -0.565746
4.76 -0.58104
4.77 -0.597055
4.78 -0.613953
4.79 -0.631674
4.8 -0.649861
4.81 -0.66806
4.82 -0.685705
4.83 -0.702155
4.84 -0.716822
4.85 -0.729361
4.86 -0.739145
4.87 -0.746398
4.88 -0.750833
4.89 -0.752933
4.9 -0.75305
4.91 -0.751707
4.92 -0.749638
4.93 -0.747498
4.94 -0.745954
4.95 -0.745628
4.96 -0.746997
4.97 -0.750257
4.98 -0.755781
4.99 -0.763218
5 -0.772591
5.01 -0.783367
5.02 -0.795136
5.03 -0.807374
5.04 -0.819566
5.05 -0.831171
5.06 -0.84189
5.07 -0.851391
5.08 -0.85955
5.09 -0.866427
5.1 -0.871979
5.11 -0.876537
5.12 -0.880153
5.13 -0.883035
5.14 -0.88518
5.15 -0.886367
5.16 -0.886336
5.17 -0.884115
5.18 -0.879042
5.19 -0.86964
5.2 -0.854365
5.21 -0.83198
5.22 -0.799598
5.23 -0.756872
5.24 -0.700732
5.25 -0.630863
5.26 -0.546177
5.27 -0.445524
5.28 -0.330807
5.29 -0.200774
5.3 -0.0592932
5.31 0.0921857
5.32 0.250015
5.33 0.410403
5.34 0.56874
5.35 0.720928
5.36 0.861202
5.37 0.985713
5.38 1.09019
5.39 1.16947
5.4 1.22349
5.41 1.24561
5.42 1.23917
5.43 1.20172
5.44 1.13502
5.45 1.04252
5.46 0.924705
5.47 0.788699
5.48 0.636912
5.49 0.475808
5.5 0.3101
5.51 0.145243
5.52 -0.014528
5.53 -0.163511
5.54 -0.299644
5.55 -0.419159
5.56 -0.52036
5.57 -0.60337
5.58 -0.665997
5.59 -0.711762
5.6 -0.740067
5.61 -0.754489
5.62 -0.757134
5.63 -0.750356
5.64 -0.737512
5.65 -0.720332
5.66 -0.701472
5.67 -0.682343
5.68 -0.664099
5.69 -0.647149
5.7 -0.63159
5.71 -0.616716
5.72 -0.601628
5.73 -0.585079
5.74 -0.565793
5.75 -0.542173
5.76 -0.51365
5.77 -0.478465
5.78 -0.437129
5.79 -0.389199
5.8 -0.335435
5.81 -0.277156
5.82 -0.215633
5.83 -0.153187
5.84 -0.0920657
5.85 -0.0346739
5.86 0.0166827
5.87 0.0591942
5.88 0.0920357
5.89 0.11186
5.9 0.119455
5.91 0.113372
5.92 0.0940175
5.93 0.062776
5.94 0.0196695
5.95 -0.0320668
5.96 -0.0914043
5.97 -0.155391
5.98 -0.221919
5.99 -0.288637
6 -0.35371
6.01 -0.414965
6.02 -0.471671
6.03 -0.522673
6.04 -0.567715
6.05 -0.607231
6.06 -0.641155
6.07 -0.671048
6.08 -0.6975
6.09 -0.721995
6.1 -0.745583
6.11 -0.769349
6.12 -0.793989
6.13 -0.820197
6.14 -0.847897
6.15 -0.876998
6.16 -0.906889
6.17 -0.93678
6.18 -0.965509
6.19 -0.992174
6.2 -1.01536
6.21 -1.03433
6.22 -1.04835
6.23 -1.05671
6.24 -1.05998
6.25 -1.05772
6.26 -1.05146
6.27 -1.04192
6.28 -1.03059
6.29 -1.01887
6.3 -1.00832
6.31 -0.999895
6.32 -0.994723
6.33 -0.992818
6.34 -0.993832
6.35 -0.99658
6.36 -0.99905
6.37 -0.997955
6.38 -0.99013
6.39 -0.970816
6.4 -0.934999
6.41 -0.879004
6.42 -0.7946
6.43 -0.681151
6.44 -0.530632
6.45 -0.342641
6.46 -0.114923
6.47 0.155143
6.48 0.462028
6.49 0.808614
6.5 1.1849
6.51 1.58719
6.52 2.00665
6.53 2.43407
6.54 2.85888
6.55 3.27124
6.56 3.65811
6.57 4.0103
6.58 4.31798
6.59 4.56882
6.6 4.76212
6.61 4.88189
6.62 4.93446
6.63 4.91288
6.64 4.81901
6.65 4.6595
6.66 4.43194
6.67 4.15205
6.68 3.82181
6.69 3.4551
6.7 3.06124
6.71 2.65078
6.72 2.23513
6.73 1.82495
6.74 1.4288
6.75 1.05576
6.76 0.712884
6.77 0.403235
6.78 0.135074
6.79 -0.0953645
6.8 -0.282819
6.81 -0.431677
6.82 -0.54367
6.83 -0.620486
6.84 -0.669517
6.85 -0.691199
6.86 -0.69385
6.87 -0.680362
6.88 -0.655605
6.89 -0.623702
6.9 -0.587526
6.91 -0.550173
6.92 -0.513563
6.93 -0.47907
6.94 -0.44747
6.95 -0.41931
6.96 -0.394225
6.97 -0.372478
6.98 -0.353308
6.99 -0.336641
7 -0.322246
7.01 -0.309987
7.02 -0.300365
7.03 -0.293425
7.04 -0.29015
7.05 -0.291046
7.06 -0.296916
7.07 -0.308916
7.08 -0.327002
7.09 -0.352724
7.1 -0.385261
7.11 -0.425036
7.12 -0.471425
7.13 -0.523278
7.14 -0.579904
7.15 -0.639224
7.16 -0.699793
7.17 -0.759586
7.18 -0.816856
7.19 -0.869495
7.2 -0.916595
7.21 -0.955845
7.22 -0.98745
7.23 -1.01041
7.24 -1.0249
7.25 -1.03189
7.26 -1.03152
7.27 -1.02604
7.28 -1.01642
7.29 -1.00477
7.3 -0.992693
7.31 -0.981953
7.32 -0.973641
7.33 -0.969279
7.34 -0.96887
7.35 -0.972732
7.36 -0.980222
7.37 -0.990142
7.38 -1.00096
7.39 -1.01062
7.4 -1.01647
7.41 -1.01612
7.42 -1.00705
7.43 -0.985949
7.44 -0.952054
7.45 -0.901159
7.46 -0.834195
7.47 -0.749205
7.48 -0.646384
7.49 -0.527402
7.5 -0.391855
7.51 -0.244026
7.52 -0.085192
7.53 0.0804328
7.54 0.249516
7.55 0.41794
7.56 0.582216
7.57 0.73732
7.58 0.880843
7.59 1.0087
7.6 1.11802
7.61 1.20783
7.62 1.27376
7.63 1.31812
7.64 1.33778
7.65 1.33486
7.66 1.30996
7.67 1.26336
7.68 1.19906
7.69 1.11655
7.7 1.02067
7.71 0.912877
7.72 0.796218
7.73 0.67367
7.74 0.547557
7.75 0.420846
7.76 0.296039
7.77 0.175431
7.78 0.0610661
7.79 -0.0445164
7.8 -0.140695
7.81 -0.224239
7.82 -0.295576
7.83 -0.352812
7.84 -0.395368
7.85 -0.423788
7.86 -0.436254
7.87 -0.435299
7.88 -0.419993
7.89 -0.392581
7.9 -0.3544
7.91 -0.306939
7.92 -0.253199
7.93 -0.194919
7.94 -0.13535
7.95 -0.0770589
7.96 -0.0230074
7.97 0.0246711
7.98 0.0623968
7.99 0.0895543
8 0.103096
8.01 0.102836
8.02 0.0881624
8.03 0.058307
8.04 0.0155208
8.05 -0.0409062
8.06 -0.107401
8.07 -0.1826
8.08 -0.263679
8.09 -0.347838
8.1 -0.432328
8.11 -0.514588
8.12 -0.591861
8.13 -0.662411
8.14 -0.724775
8.15 -0.777403
8.16 -0.821021
8.17 -0.854423
8.18 -0.879744
8.19 -0.897599
8.2 -0.909818
8.21 -0.918404
8.22 -0.925054
8.23 -0.931723
8.24 -0.939941
8.25 -0.950671
8.26 -0.964341
8.27 -0.98085
8.28 -0.998997
8.29 -1.01709
8.3 -1.03266
8.31 -1.04249
8.32 -1.04276
8.33 -1.03051
8.34 -0.999524
8.35 -0.948686
8.36 -0.871863
8.37 -0.767915
8.38 -0.634775
8.39 -0.469586
8.4 -0.275969
8.41 -0.0508602
8.42 0.198926
8.43 0.471435
8.44 0.76093
8.45 1.06087
8.46 1.3647
8.47 1.66478
8.48 1.95262
8.49 2.22107
8.5 2.46316
8.51 2.66984
8.52 2.83973
8.53 2.96163
8.54 3.0385
8.55 3.06512
8.56 3.04153
8.57 2.9718
8.58 2.85284
8.59 2.69515
8.6 2.49904
8.61 2.27346
8.62 2.02445
8.63 1.75842
8.64 1.48369
8.65 1.20662
8.66 0.934044
8.67 0.671991
8.68 0.425886
8.69 0.198497
8.7 -0.00416322
8.71 -0.183562
8.72 -0.33576
8.73 -0.46271
8.74 -0.565151
8.75 -0.643507
8.76 -0.702511
8.77 -0.742109
8.78 -0.767857
8.79 -0.781759
8.8 -0.787266
8.81 -0.787534
8.82 -0.784882
8.83 -0.781853
8.84 -0.780266
8.85 -0.78143
8.86 -0.78618
8.87 -0.795234
8.88 -0.808169
8.89 -0.825304
8.9 -0.845551
8.91 -0.868442
8.92 -0.893061
8.93 -0.918528
8.94 -0.944011
8.95 -0.968813
8.96 -0.992226
8.97 -1.01389
8.98 -1.03353
8.99 -1.05091
9 -1.06632
9.01 -1.07961
9.02 -1.0913
9.03 -1.10156
9.04 -1.11073
9.05 -1.1191
9.06 -1.12676
9.07 -1.13389
9.08 -1.14032
9.09 -1.14588
9.1 -1.15021
9.11 -1.15265
9.12 -1.15281
9.13 -1.14948
9.14 -1.1423
9.15 -1.13017
9.16 -1.11226
9.17 -1.08829
9.18 -1.05678
9.19 -1.0184
9.2 -0.972141
9.21 -0.918645
9.22 -0.858257
9.23 -0.791318
9.24 -0.719436
9.25 -0.643207
9.26 -0.564685
9.27 -0.485325
9.28 -0.407101
9.29 -0.331636
9.3 -0.261435
9.31 -0.197467
9.32 -0.142169
9.33 -0.0963724
9.34 -0.0610922
9.35 -0.0377633
9.36 -0.0253451
9.37 -0.0254752
9.38 -0.0360176
9.39 -0.0568395
9.4 -0.0864994
9.41 -0.123024
9.42 -0.165279
9.43 -0.210623
9.44 -0.257403
9.45 -0.303495
9.46 -0.347225
9.47 -0.386688
9.48 -0.421194
9.49 -0.44891
9.5 -0.470167
9.51 -0.484367
9.52 -0.491819
9.53 -0.493501
9.54 -0.489691
9.55 -0.482262
9.56 -0.472132
9.57 -0.460956
9.58 -0.450032
9.59 -0.440832
9.6 -0.434196
9.61 -0.431545
9.62 -0.433004
9.63 -0.439195
9.64 -0.450146
9.65 -0.465355
9.66 -0.484877
9.67 -0.507509
9.68 -0.532874
9.69 -0.559968
9.7 -0.588089
9.71 -0.616561
9.72 -0.644868
9.73 -0.67259
9.74 -0.699634
9.75 -0.72595
9.76 -0.75168
9.77 -0.777039
9.78 -0.802193
9.79 -0.827253
9.8 -0.852091
9.81 -0.876294
9.82 -0.899126
9.83 -0.919109
9.84 -0.934984
9.85 -0.943584
9.86 -0.94308
9.87 -0.929765
9.88 -0.899908
9.89 -0.851271
9.9 -0.777091
9.91 -0.677569
9.92 -0.546359
9.93 -0.382968
9.94 -0.185785
9.95 0.0481416
9.96 0.314338
9.97 0.616109
9.98 0.945956
9.99 1.30173
10 1.67734
10.01 2.06554
10.02 2.45941
10.03 2.85028
10.04 3.22889
10.05 3.58689
10.06 3.91633
10.07 4.20642
10.08 4.45505
10.09 4.64889
10.1 4.79019
10.11 4.87229
10.12 4.89382
10.13 4.85896
10.14 4.76225
10.15 4.6157
10.16 4.41825
10.17 4.1798
10.18 3.90698
10.19 3.60634
10.2 3.2884
10.21 2.95951
10.22 2.62899
10.23 2.30381
10.24 1.99107
10.25 1.69498
10.26 1.42291
10.27 1.17457
10.28 0.954937
10.29 0.762903
10.3 0.598137
10.31 0.460905
10.32 0.346151
10.33 0.254327
10.34 0.179274
10.35 0.118779
10.36 0.0689333
10.37 0.0259393
10.38 -0.0128852
10.39 -0.0507642
10.4 -0.0899167
10.41 -0.132091
10.42 -0.178399
10.43 -0.229848
10.44 -0.286012
10.45 -0.347328
10.46 -0.412499
10.47 -0.480892
10.48 -0.551277
10.49 -0.622408
10.5 -0.692928
10.51 -0.761733
10.52 -0.82742
10.53 -0.889102
10.54 -0.945948
10.55 -0.996807
10.56 -1.04182
10.57 -1.07956
10.58 -1.11063
10.59 -1.13441
10.6 -1.15082
10.61 -1.16037
10.62 -1.1622
10.63 -1.15756
10.64 -1.1459
10.65 -1.12801
10.66 -1.10425
10.67 -1.0748
10.68 -1.0408
10.69 -1.00229
10.7 -0.960603
10.71 -0.916351
10.72 -0.870566
10.73 -0.824255
10.74 -0.77855
10.75 -0.734387
10.76 -0.693028
10.77 -0.65534
10.78 -0.622166
10.79 -0.594701
10.8 -0.572902
10.81 -0.558212
10.82 -0.550056
10.83 -0.548986
10.84 -0.554911
10.85 -0.567127
10.86 -0.586014
10.87 -0.610083
10.88 -0.639245
10.89 -0.672333
10.9 -0.708535
10.91 -0.74705
10.92 -0.786793
10.93 -0.82698
10.94 -0.866713
10.95 -0.905221
10.96 -0.941755
10.97 -0.975912
10.98 -1.0068
10.99 -1.0345
11 -1.05837
11.01 -1.07849
11.02 -1.09485
11.03 -1.10727
11.04 -1.11639
11.05 -1.12203
11.06 -1.12503
11.07 -1.12569
11.08 -1.12463
11.09 -1.12252
11.1 -1.11997
11.11 -1.11764
11.12 -1.11615
11.13 -1.11595
11.14 -1.11736
11.15 -1.12066
11.16 -1.12557
11.17 -1.13192
11.18 -1.13888
11.19 -1.14551
11.2 -1.15035
11.21 -1.15204
11.22 -1.14791
11.23 -1.13669
11.24 -1.1151
11.25 -1.08128
11.26 -1.03304
11.27 -0.966935
11.28 -0.883209
11.29 -0.777392
11.3 -0.651203
11.31 -0.502953
11.32 -0.333036
11.33 -0.143969
11.34 0.0646991
11.35 0.287555
11.36 0.522718
11.37 0.764986
11.38 1.00991
11.39 1.25186
11.4 1.48623
11.41 1.70576
11.42 1.90692
11.43 2.08375
11.44 2.23143
11.45 2.34869
11.46 2.42802
11.47 2.47305
11.48 2.47885
11.49 2.44826
11.5 2.38275
11.51 2.28264
11.52 2.15489
11.53 1.99965
11.54 1.82497
11.55 1.63441
11.56 1.43365
11.57 1.22804
11.58 1.02257
11.59 0.821573
11.6 0.629622
11.61 0.449596
11.62 0.283762
11.63 0.135001
11.64 0.00217203
11.65 -0.112115
11.66 -0.210748
11.67 -0.293889
11.68 -0.363373
11.69 -0.421993
11.7 -0.470773
11.71 -0.513293
11.72 -0.551029
11.73 -0.586355
11.74 -0.620818
11.75 -0.655774
11.76 -0.691909
11.77 -0.729782
11.78 -0.769043
11.79 -0.809221
11.8 -0.849261
11.81 -0.888014
11.82 -0.92353
11.83 -0.954638
11.84 -0.979005
11.85 -0.995221
11.86 -1.00182
11.87 -0.996505
11.88 -0.979544
11.89 -0.948119
11.9 -0.903428
11.91 -0.844434
11.92 -0.771308
11.93 -0.685545
11.94 -0.586393
11.95 -0.476957
11.96 -0.357601
11.97 -0.23088
11.98 -0.0987656
11.99 0.0365731
12 0.172571
12.01 0.306583
12.02 0.436318
12.03 0.559128
12.04 0.672407
12.05 0.774842
12.06 0.862592
12.07 0.936096
12.08 0.992236
12.09 1.03103
12.1 1.05205
12.11 1.05391
12.12 1.0391
12.13 1.0059
12.14 0.957762
12.15 0.89533
12.16 0.820727
12.17 0.736856
12.18 0.64521
12.19 0.549358
12.2 0.451406
12.21 0.354077
12.22 0.259468
12.23 0.169994
12.24 0.0865391
12.25 0.0113474
12.26 -0.0558621
12.27 -0.114372
12.28 -0.164422
12.29 -0.207225
12.3 -0.242946
12.31 -0.273888
12.32 -0.301051
12.33 -0.326377
12.34 -0.351362
12.35 -0.377615
12.36 -0.406093
12.37 -0.438091
12.38 -0.473631
12.39 -0.512908
12.4 -0.555382
