# xPDFsuite Configuration #
[PDF]
wavelength = 0.1432
dataformat = twotheta
inputfile = 1_1Pd_CeO2_cycle-00192.chi
backgroundfile = background-00000.chi
mode = xray
bgscale = 1.007
composition = CeO2
outputtype = gr
qmaxinst = 28.8974762299
qmin = 0.5
qmax = 27.9
rmax = 50.0
rmin = 0.0
rstep = 0.01
rpoly = 1.8657

[Misc]
inputdir = G:/SankarDec16/1Pd/Chi
savedir = D:/DATA/APS_CeO2/1Pd
backgroundfilefull = G:/SankarDec16/Background/background-00000.chi

#### start data
#S 1
#L r($\AA$)  G($\AA^{-2}$)
0 0
0.01 -0.00624783
0.02 -0.0120254
0.03 -0.0168486
0.04 -0.0203525
0.05 -0.0223342
0.06 -0.0224669
0.07 -0.0209676
0.08 -0.0177308
0.09 -0.0131709
0.1 -0.00757443
0.11 -0.00138006
0.12 0.00493299
0.13 0.0108277
0.14 0.0159224
0.15 0.0197507
0.16 0.0220385
0.17 0.0226757
0.18 0.0214387
0.19 0.018646
0.2 0.0143085
0.21 0.00890926
0.22 0.00280473
0.23 -0.00351235
0.24 -0.00959028
0.25 -0.0148502
0.26 -0.0190168
0.27 -0.0216633
0.28 -0.0226193
0.29 -0.0218731
0.3 -0.0193147
0.31 -0.0153496
0.32 -0.010105
0.33 -0.00411053
0.34 0.00222398
0.35 0.00837433
0.36 0.0139376
0.37 0.01832
0.38 0.0213656
0.39 0.0227074
0.4 0.0222869
0.41 0.020192
0.42 0.0164319
0.43 0.0114807
0.44 0.00557624
0.45 -0.000729526
0.46 -0.00699248
0.47 -0.012681
0.48 -0.01746
0.49 -0.0207488
0.5 -0.0225184
0.51 -0.0224795
0.52 -0.0206886
0.53 -0.0173297
0.54 -0.0125318
0.55 -0.00681567
0.56 -0.00051943
0.57 0.00580809
0.58 0.0117093
0.59 0.0166696
0.6 0.0204383
0.61 0.0224749
0.62 0.0228796
0.63 0.0214548
0.64 0.0183706
0.65 0.0138993
0.66 0.00828435
0.67 0.00206956
0.68 -0.00432183
0.69 -0.0103693
0.7 -0.0156233
0.71 -0.0196097
0.72 -0.0221747
0.73 -0.0228428
0.74 -0.0218396
0.75 -0.0190684
0.76 -0.0148053
0.77 -0.00939764
0.78 -0.00319243
0.79 0.00326933
0.8 0.00950011
0.81 0.0150321
0.82 0.0194454
0.83 0.0223296
0.84 0.0236342
0.85 0.0229717
0.86 0.0206804
0.87 0.0167677
0.88 0.0115989
0.89 0.00557671
0.9 -0.000872133
0.91 -0.00723993
0.92 -0.0130097
0.93 -0.0177954
0.94 -0.0212387
0.95 -0.0230258
0.96 -0.0232169
0.97 -0.0215553
0.98 -0.0184726
0.99 -0.0140966
1 -0.00886801
1.01 -0.00322298
1.02 0.00234312
1.03 0.00740179
1.04 0.0114325
1.05 0.0141783
1.06 0.0153827
1.07 0.0148796
1.08 0.012873
1.09 0.00930896
1.1 0.00472967
1.11 -0.000553734
1.12 -0.00598766
1.13 -0.0110776
1.14 -0.0151822
1.15 -0.0179709
1.16 -0.0188333
1.17 -0.0176563
1.18 -0.0142521
1.19 -0.00856918
1.2 -0.00100238
1.21 0.00837566
1.22 0.0188109
1.23 0.0298203
1.24 0.0406672
1.25 0.0507193
1.26 0.0591176
1.27 0.0654939
1.28 0.069022
1.29 0.0695787
1.3 0.0668832
1.31 0.0607885
1.32 0.0517704
1.33 0.0396988
1.34 0.0255098
1.35 0.00959157
1.36 -0.00725516
1.37 -0.0243152
1.38 -0.0407633
1.39 -0.0560172
1.4 -0.0692474
1.41 -0.0801108
1.42 -0.0881854
1.43 -0.0931192
1.44 -0.0951596
1.45 -0.0938892
1.46 -0.0900097
1.47 -0.0835768
1.48 -0.0751004
1.49 -0.0650789
1.5 -0.0538931
1.51 -0.042135
1.52 -0.0301913
1.53 -0.0184757
1.54 -0.00729408
1.55 0.00306411
1.56 0.0125291
1.57 0.0208278
1.58 0.0280897
1.59 0.0342094
1.6 0.0392452
1.61 0.0432717
1.62 0.0462164
1.63 0.0482355
1.64 0.0492008
1.65 0.0491869
1.66 0.048133
1.67 0.0459527
1.68 0.042723
1.69 0.0382343
1.7 0.0326798
1.71 0.0260003
1.72 0.0183318
1.73 0.00984973
1.74 0.000695191
1.75 -0.00881476
1.76 -0.0184345
1.77 -0.0278523
1.78 -0.0367928
1.79 -0.0449526
1.8 -0.052224
1.81 -0.0582945
1.82 -0.0632917
1.83 -0.0671523
1.84 -0.0700566
1.85 -0.0722486
1.86 -0.0739914
1.87 -0.0756708
1.88 -0.0776715
1.89 -0.0803352
1.9 -0.0839747
1.91 -0.0888852
1.92 -0.095051
1.93 -0.102681
1.94 -0.111405
1.95 -0.121029
1.96 -0.131049
1.97 -0.140933
1.98 -0.149917
1.99 -0.157451
2 -0.162572
2.01 -0.164799
2.02 -0.1635
2.03 -0.158029
2.04 -0.148542
2.05 -0.134217
2.06 -0.115859
2.07 -0.0933574
2.08 -0.0673214
2.09 -0.0384472
2.1 -0.0072263
2.11 0.0253333
2.12 0.05863
2.13 0.0919003
2.14 0.124617
2.15 0.156317
2.16 0.18691
2.17 0.216193
2.18 0.244545
2.19 0.272232
2.2 0.2998
2.21 0.327774
2.22 0.356854
2.23 0.38738
2.24 0.419949
2.25 0.454552
2.26 0.491153
2.27 0.529389
2.28 0.56846
2.29 0.607324
2.3 0.644706
2.31 0.678939
2.32 0.70828
2.33 0.731333
2.34 0.745472
2.35 0.75041
2.36 0.74356
2.37 0.725072
2.38 0.694275
2.39 0.650822
2.4 0.596591
2.41 0.531121
2.42 0.457778
2.43 0.377931
2.44 0.294444
2.45 0.20994
2.46 0.127458
2.47 0.0492545
2.48 -0.0215076
2.49 -0.0833634
2.5 -0.134627
2.51 -0.1738
2.52 -0.201805
2.53 -0.217082
2.54 -0.222434
2.55 -0.218393
2.56 -0.207316
2.57 -0.191591
2.58 -0.173509
2.59 -0.155701
2.6 -0.140665
2.61 -0.130248
2.62 -0.126063
2.63 -0.129547
2.64 -0.140362
2.65 -0.159631
2.66 -0.185419
2.67 -0.217143
2.68 -0.252882
2.69 -0.290706
2.7 -0.328487
2.71 -0.364301
2.72 -0.395891
2.73 -0.422009
2.74 -0.441455
2.75 -0.453267
2.76 -0.458154
2.77 -0.455488
2.78 -0.447376
2.79 -0.434727
2.8 -0.419572
2.81 -0.403809
2.82 -0.389645
2.83 -0.378634
2.84 -0.372892
2.85 -0.373194
2.86 -0.380333
2.87 -0.394732
2.88 -0.415257
2.89 -0.441815
2.9 -0.472052
2.91 -0.504489
2.92 -0.53681
2.93 -0.567038
2.94 -0.592562
2.95 -0.612272
2.96 -0.623875
2.97 -0.627147
2.98 -0.621617
2.99 -0.60731
3 -0.585989
3.01 -0.558225
3.02 -0.526958
3.03 -0.494161
3.04 -0.462573
3.05 -0.434407
3.06 -0.412642
3.07 -0.398227
3.08 -0.393599
3.09 -0.398652
3.1 -0.413623
3.11 -0.43815
3.12 -0.470037
3.13 -0.50832
3.14 -0.549709
3.15 -0.591901
3.16 -0.631962
3.17 -0.667649
3.18 -0.695942
3.19 -0.716217
3.2 -0.726312
3.21 -0.726847
3.22 -0.718123
3.23 -0.701217
3.24 -0.678762
3.25 -0.652737
3.26 -0.626557
3.27 -0.60321
3.28 -0.585824
3.29 -0.576536
3.3 -0.578631
3.31 -0.59188
3.32 -0.618272
3.33 -0.656164
3.34 -0.704449
3.35 -0.760993
3.36 -0.82222
3.37 -0.884834
3.38 -0.944812
3.39 -0.998134
3.4 -1.04114
3.41 -1.07158
3.42 -1.08562
3.43 -1.08437
3.44 -1.06585
3.45 -1.03289
3.46 -0.987477
3.47 -0.932945
3.48 -0.87404
3.49 -0.815437
3.5 -0.761914
3.51 -0.718431
3.52 -0.688962
3.53 -0.675469
3.54 -0.681414
3.55 -0.704031
3.56 -0.743376
3.57 -0.793898
3.58 -0.850383
3.59 -0.904859
3.6 -0.949737
3.61 -0.972445
3.62 -0.966326
3.63 -0.919225
3.64 -0.822541
3.65 -0.671758
3.66 -0.454465
3.67 -0.17654
3.68 0.170393
3.69 0.577502
3.7 1.04044
3.71 1.55167
3.72 2.09572
3.73 2.66217
3.74 3.23208
3.75 3.78916
3.76 4.31502
3.77 4.79562
3.78 5.20777
3.79 5.54732
3.8 5.7925
3.81 5.9427
3.82 5.99139
3.83 5.93277
3.84 5.78008
3.85 5.52414
3.86 5.18891
3.87 4.77888
3.88 4.31104
3.89 3.80237
3.9 3.26697
3.91 2.72394
3.92 2.18886
3.93 1.67606
3.94 1.19774
3.95 0.766724
3.96 0.384875
3.97 0.0658893
3.98 -0.197392
3.99 -0.400738
4 -0.548964
4.01 -0.649435
4.02 -0.704414
4.03 -0.727309
4.04 -0.722636
4.05 -0.701405
4.06 -0.670729
4.07 -0.63802
4.08 -0.608759
4.09 -0.588604
4.1 -0.579137
4.11 -0.582658
4.12 -0.598823
4.13 -0.625836
4.14 -0.662278
4.15 -0.703981
4.16 -0.747932
4.17 -0.790143
4.18 -0.827284
4.19 -0.85568
4.2 -0.873985
4.21 -0.878475
4.22 -0.870172
4.23 -0.847784
4.24 -0.81226
4.25 -0.765353
4.26 -0.707717
4.27 -0.642704
4.28 -0.571636
4.29 -0.497255
4.3 -0.42135
4.31 -0.345699
4.32 -0.271416
4.33 -0.199676
4.34 -0.130508
4.35 -0.0641419
4.36 -0.000196966
4.37 0.0618994
4.38 0.122593
4.39 0.182573
4.4 0.242132
4.41 0.301413
4.42 0.360193
4.43 0.417777
4.44 0.473415
4.45 0.525273
4.46 0.572303
4.47 0.612346
4.48 0.643592
4.49 0.664887
4.5 0.673334
4.51 0.669513
4.52 0.651014
4.53 0.618824
4.54 0.573021
4.55 0.513992
4.56 0.444417
4.57 0.364699
4.58 0.278551
4.59 0.187884
4.6 0.095653
4.61 0.00431713
4.62 -0.0832283
4.63 -0.165462
4.64 -0.239862
4.65 -0.305781
4.66 -0.362397
4.67 -0.409078
4.68 -0.447151
4.69 -0.47605
4.7 -0.498207
4.71 -0.5144
4.72 -0.526421
4.73 -0.535909
4.74 -0.544263
4.75 -0.552859
4.76 -0.56281
4.77 -0.574737
4.78 -0.58901
4.79 -0.605756
4.8 -0.624446
4.81 -0.644766
4.82 -0.665732
4.83 -0.686553
4.84 -0.706271
4.85 -0.724182
4.86 -0.73928
4.87 -0.751465
4.88 -0.760073
4.89 -0.765387
4.9 -0.767576
4.91 -0.767006
4.92 -0.764543
4.93 -0.760739
4.94 -0.756601
4.95 -0.752893
4.96 -0.750401
4.97 -0.749618
4.98 -0.751242
4.99 -0.755174
5 -0.761746
5.01 -0.770567
5.02 -0.781355
5.03 -0.793685
5.04 -0.806904
5.05 -0.820509
5.06 -0.833901
5.07 -0.846592
5.08 -0.858181
5.09 -0.868477
5.1 -0.877148
5.11 -0.884351
5.12 -0.889885
5.13 -0.89389
5.14 -0.896298
5.15 -0.896859
5.16 -0.895483
5.17 -0.89124
5.18 -0.883756
5.19 -0.871742
5.2 -0.85392
5.21 -0.829267
5.22 -0.795175
5.23 -0.751388
5.24 -0.695044
5.25 -0.625812
5.26 -0.542597
5.27 -0.44419
5.28 -0.33227
5.29 -0.205438
5.3 -0.067254
5.31 0.0810897
5.32 0.236239
5.33 0.394608
5.34 0.551913
5.35 0.704071
5.36 0.84554
5.37 0.972377
5.38 1.08026
5.39 1.1639
5.4 1.22294
5.41 1.25052
5.42 1.24961
5.43 1.21743
5.44 1.15538
5.45 1.06667
5.46 0.951401
5.47 0.816676
5.48 0.664634
5.49 0.501847
5.5 0.333078
5.51 0.163899
5.52 -0.00110574
5.53 -0.156039
5.54 -0.298395
5.55 -0.42407
5.56 -0.530976
5.57 -0.618952
5.58 -0.685394
5.59 -0.733768
5.6 -0.763181
5.61 -0.777282
5.62 -0.778206
5.63 -0.768393
5.64 -0.751536
5.65 -0.729525
5.66 -0.705456
5.67 -0.681049
5.68 -0.657839
5.69 -0.636515
5.7 -0.617563
5.71 -0.600349
5.72 -0.584255
5.73 -0.567981
5.74 -0.550233
5.75 -0.529342
5.76 -0.504438
5.77 -0.47362
5.78 -0.437001
5.79 -0.393858
5.8 -0.344614
5.81 -0.290336
5.82 -0.231952
5.83 -0.171719
5.84 -0.111646
5.85 -0.0541896
5.86 -0.00167916
5.87 0.0430029
5.88 0.078764
5.89 0.102125
5.9 0.113532
5.91 0.111295
5.92 0.0955386
5.93 0.0674478
5.94 0.0267725
5.95 -0.0232809
5.96 -0.0818506
5.97 -0.145909
5.98 -0.213295
5.99 -0.281549
6 -0.348605
6.01 -0.412121
6.02 -0.4711
6.03 -0.524171
6.04 -0.570858
6.05 -0.611468
6.06 -0.645736
6.07 -0.675273
6.08 -0.700593
6.09 -0.723324
6.1 -0.744638
6.11 -0.765804
6.12 -0.787751
6.13 -0.811434
6.14 -0.836987
6.15 -0.864566
6.16 -0.893739
6.17 -0.923786
6.18 -0.953715
6.19 -0.982468
6.2 -1.00865
6.21 -1.03129
6.22 -1.04945
6.23 -1.06214
6.24 -1.06965
6.25 -1.0712
6.26 -1.06808
6.27 -1.06072
6.28 -1.05043
6.29 -1.03855
6.3 -1.02645
6.31 -1.01533
6.32 -1.0063
6.33 -0.999691
6.34 -0.995413
6.35 -0.992612
6.36 -0.989622
6.37 -0.983565
6.38 -0.971535
6.39 -0.949105
6.4 -0.911471
6.41 -0.854998
6.42 -0.771655
6.43 -0.660525
6.44 -0.513569
6.45 -0.330022
6.46 -0.10733
6.47 0.157514
6.48 0.459364
6.49 0.801574
6.5 1.17441
6.51 1.57454
6.52 1.99334
6.53 2.42162
6.54 2.84899
6.55 3.26527
6.56 3.65735
6.57 4.0156
6.58 4.32981
6.59 4.58717
6.6 4.78652
6.61 4.91129
6.62 4.96749
6.63 4.94774
6.64 4.85365
6.65 4.69187
6.66 4.45972
6.67 4.17339
6.68 3.83492
6.69 3.45875
6.7 3.05467
6.71 2.63382
6.72 2.20819
6.73 1.78919
6.74 1.3858
6.75 1.0077
6.76 0.662288
6.77 0.352721
6.78 0.0876639
6.79 -0.137148
6.8 -0.316399
6.81 -0.455104
6.82 -0.555479
6.83 -0.619849
6.84 -0.656326
6.85 -0.666141
6.86 -0.658206
6.87 -0.63612
6.88 -0.60528
6.89 -0.570005
6.9 -0.533738
6.91 -0.49915
6.92 -0.46836
6.93 -0.442153
6.94 -0.420868
6.95 -0.404465
6.96 -0.391784
6.97 -0.382343
6.98 -0.374643
6.99 -0.367861
7 -0.361128
7.01 -0.354001
7.02 -0.346301
7.03 -0.338386
7.04 -0.330928
7.05 -0.324936
7.06 -0.321582
7.07 -0.322529
7.08 -0.328544
7.09 -0.341851
7.1 -0.362441
7.11 -0.391492
7.12 -0.429086
7.13 -0.474463
7.14 -0.527677
7.15 -0.586444
7.16 -0.649718
7.17 -0.715062
7.18 -0.780435
7.19 -0.843313
7.2 -0.901994
7.21 -0.953586
7.22 -0.997445
7.23 -1.03185
7.24 -1.05624
7.25 -1.07114
7.26 -1.07594
7.27 -1.07298
7.28 -1.06281
7.29 -1.04786
7.3 -1.02994
7.31 -1.01118
7.32 -0.9934
7.33 -0.978634
7.34 -0.967712
7.35 -0.961631
7.36 -0.960459
7.37 -0.963447
7.38 -0.969795
7.39 -0.977373
7.4 -0.983981
7.41 -0.986922
7.42 -0.98347
7.43 -0.969985
7.44 -0.944999
7.45 -0.903793
7.46 -0.846498
7.47 -0.770473
7.48 -0.675204
7.49 -0.56192
7.5 -0.429461
7.51 -0.282186
7.52 -0.120926
7.53 0.0498103
7.54 0.226475
7.55 0.404616
7.56 0.580001
7.57 0.74708
7.58 0.902593
7.59 1.04172
7.6 1.16083
7.61 1.25844
7.62 1.32934
7.63 1.37588
7.64 1.39438
7.65 1.38722
7.66 1.35516
7.67 1.29876
7.68 1.22278
7.69 1.12716
7.7 1.01769
7.71 0.896548
7.72 0.767616
7.73 0.634457
7.74 0.500306
7.75 0.368224
7.76 0.241356
7.77 0.121866
7.78 0.0117408
7.79 -0.0866097
7.8 -0.173288
7.81 -0.245349
7.82 -0.304167
7.83 -0.348489
7.84 -0.37856
7.85 -0.395551
7.86 -0.398519
7.87 -0.390231
7.88 -0.370424
7.89 -0.341354
7.9 -0.304407
7.91 -0.261074
7.92 -0.213762
7.93 -0.164082
7.94 -0.114438
7.95 -0.0668895
7.96 -0.0236763
7.97 0.0136572
7.98 0.0422708
7.99 0.0618552
8 0.0699501
8.01 0.0664614
8.02 0.050869
8.03 0.0224588
8.04 -0.0169701
8.05 -0.0681995
8.06 -0.128341
8.07 -0.196435
8.08 -0.27025
8.09 -0.347477
8.1 -0.425967
8.11 -0.503424
8.12 -0.577563
8.13 -0.646723
8.14 -0.7095
8.15 -0.764361
8.16 -0.811648
8.17 -0.850034
8.18 -0.881082
8.19 -0.905018
8.2 -0.923148
8.21 -0.937058
8.22 -0.947878
8.23 -0.957382
8.24 -0.966663
8.25 -0.976658
8.26 -0.987763
8.27 -0.999882
8.28 -1.01221
8.29 -1.02317
8.3 -1.03088
8.31 -1.0325
8.32 -1.02471
8.33 -1.00497
8.34 -0.967641
8.35 -0.91178
8.36 -0.831708
8.37 -0.726333
8.38 -0.593651
8.39 -0.430848
8.4 -0.241181
8.41 -0.0215439
8.42 0.221793
8.43 0.487185
8.44 0.769362
8.45 1.06218
8.46 1.35955
8.47 1.65408
8.48 1.93767
8.49 2.20326
8.5 2.44397
8.51 2.65082
8.52 2.82216
8.53 2.94678
8.54 3.0272
8.55 3.05797
8.56 3.03874
8.57 2.97327
8.58 2.85808
8.59 2.70347
8.6 2.50944
8.61 2.28485
8.62 2.03568
8.63 1.76829
8.64 1.49122
8.65 1.21086
8.66 0.934405
8.67 0.668099
8.68 0.417691
8.69 0.186218
8.7 -0.0199556
8.71 -0.202146
8.72 -0.356126
8.73 -0.483785
8.74 -0.585807
8.75 -0.662565
8.76 -0.718999
8.77 -0.75507
8.78 -0.776661
8.79 -0.785965
8.8 -0.786724
8.81 -0.782348
8.82 -0.775466
8.83 -0.768785
8.84 -0.764392
8.85 -0.763677
8.86 -0.767553
8.87 -0.776813
8.88 -0.790875
8.89 -0.810087
8.9 -0.833087
8.91 -0.859271
8.92 -0.887484
8.93 -0.916622
8.94 -0.94561
8.95 -0.973576
8.96 -0.999589
8.97 -1.02318
8.98 -1.044
8.99 -1.06172
9 -1.07672
9.01 -1.08882
9.02 -1.09873
9.03 -1.10674
9.04 -1.11334
9.05 -1.11904
9.06 -1.12412
9.07 -1.1289
9.08 -1.13344
9.09 -1.13766
9.1 -1.1413
9.11 -1.14379
9.12 -1.14468
9.13 -1.14283
9.14 -1.1377
9.15 -1.12814
9.16 -1.11313
9.17 -1.09224
9.18 -1.06382
9.19 -1.02834
9.2 -0.984602
9.21 -0.933111
9.22 -0.874087
9.23 -0.807727
9.24 -0.735674
9.25 -0.658391
9.26 -0.578077
9.27 -0.49621
9.28 -0.414894
9.29 -0.335925
9.3 -0.261957
9.31 -0.19418
9.32 -0.135234
9.33 -0.0861452
9.34 -0.0480986
9.35 -0.0227355
9.36 -0.00904321
9.37 -0.00886717
9.38 -0.0199749
9.39 -0.042273
9.4 -0.0742322
9.41 -0.113715
9.42 -0.159482
9.43 -0.208623
9.44 -0.259285
9.45 -0.309089
9.46 -0.356143
9.47 -0.398272
9.48 -0.434688
9.49 -0.463278
9.5 -0.484413
9.51 -0.497397
9.52 -0.502587
9.53 -0.501122
9.54 -0.493351
9.55 -0.481473
9.56 -0.466619
9.57 -0.450773
9.58 -0.43552
9.59 -0.422688
9.6 -0.41329
9.61 -0.409145
9.62 -0.410383
9.63 -0.417808
9.64 -0.431453
9.65 -0.450651
9.66 -0.475441
9.67 -0.504207
9.68 -0.53635
9.69 -0.570431
9.7 -0.605375
9.71 -0.64003
9.72 -0.673589
9.73 -0.705085
9.74 -0.73432
9.75 -0.760931
9.76 -0.784954
9.77 -0.806736
9.78 -0.826327
9.79 -0.844335
9.8 -0.860791
9.81 -0.875809
9.82 -0.889099
9.83 -0.899737
9.84 -0.90691
9.85 -0.908106
9.86 -0.901766
9.87 -0.884632
9.88 -0.853226
9.89 -0.805274
9.9 -0.734298
9.91 -0.640007
9.92 -0.516021
9.93 -0.361305
9.94 -0.173803
9.95 0.0499731
9.96 0.30612
9.97 0.598583
9.98 0.920292
9.99 1.26961
10 1.64081
10.01 2.02673
10.02 2.42081
10.03 2.814
10.04 3.19708
10.05 3.56122
10.06 3.89807
10.07 4.19637
10.08 4.45343
10.09 4.65532
10.1 4.80383
10.11 4.89178
10.12 4.91742
10.13 4.88483
10.14 4.78818
10.15 4.6398
10.16 4.4386
10.17 4.19492
10.18 3.91578
10.19 3.60819
10.2 3.28324
10.21 2.94786
10.22 2.61181
10.23 2.28256
10.24 1.96757
10.25 1.67113
10.26 1.40095
10.27 1.15638
10.28 0.942386
10.29 0.757369
10.3 0.600575
10.31 0.47173
10.32 0.365203
10.33 0.280771
10.34 0.21183
10.35 0.155624
10.36 0.107854
10.37 0.0646623
10.38 0.0229667
10.39 -0.0200003
10.4 -0.0664799
10.41 -0.117665
10.42 -0.174192
10.43 -0.236481
10.44 -0.303442
10.45 -0.374777
10.46 -0.448659
10.47 -0.523836
10.48 -0.598605
10.49 -0.67161
10.5 -0.740989
10.51 -0.806087
10.52 -0.865395
10.53 -0.918573
10.54 -0.965247
10.55 -1.00482
10.56 -1.03816
10.57 -1.06453
10.58 -1.08517
10.59 -1.10008
10.6 -1.10973
10.61 -1.11482
10.62 -1.11506
10.63 -1.11135
10.64 -1.10333
10.65 -1.09133
10.66 -1.07534
10.67 -1.05507
10.68 -1.03099
10.69 -1.00256
10.7 -0.970479
10.71 -0.934777
10.72 -0.895959
10.73 -0.854803
10.74 -0.811909
10.75 -0.768448
10.76 -0.725474
10.77 -0.684203
10.78 -0.64577
10.79 -0.611719
10.8 -0.582589
10.81 -0.560274
10.82 -0.544745
10.83 -0.537029
10.84 -0.537474
10.85 -0.54558
10.86 -0.562153
10.87 -0.585528
10.88 -0.615778
10.89 -0.651458
10.9 -0.691519
10.91 -0.734876
10.92 -0.779989
10.93 -0.825708
10.94 -0.870724
10.95 -0.913903
10.96 -0.954175
10.97 -0.991005
10.98 -1.02321
10.99 -1.05104
11 -1.07377
11.01 -1.09173
11.02 -1.10513
11.03 -1.11405
11.04 -1.11946
11.05 -1.1215
11.06 -1.12127
11.07 -1.11935
11.08 -1.11656
11.09 -1.1136
11.1 -1.11124
11.11 -1.10996
11.12 -1.11034
11.13 -1.11261
11.14 -1.11687
11.15 -1.12316
11.16 -1.13093
11.17 -1.13978
11.18 -1.14871
11.19 -1.15661
11.2 -1.16196
11.21 -1.16345
11.22 -1.15837
11.23 -1.14567
11.24 -1.12221
11.25 -1.08634
11.26 -1.03612
11.27 -0.968321
11.28 -0.88333
11.29 -0.776905
11.3 -0.650767
11.31 -0.503283
11.32 -0.334784
11.33 -0.147628
11.34 0.0587811
11.35 0.279304
11.36 0.512317
11.37 0.75289
11.38 0.9968
11.39 1.2387
11.4 1.474
11.41 1.69569
11.42 1.90006
11.43 2.08111
11.44 2.23383
11.45 2.35661
11.46 2.44163
11.47 2.49214
11.48 2.50278
11.49 2.47603
11.5 2.41305
11.51 2.31379
11.52 2.18522
11.53 2.02718
11.54 1.84803
11.55 1.6514
11.56 1.44327
11.57 1.22946
11.58 1.01538
11.59 0.805906
11.6 0.606191
11.61 0.419602
11.62 0.248823
11.63 0.0972582
11.64 -0.0362478
11.65 -0.148626
11.66 -0.243113
11.67 -0.319907
11.68 -0.381193
11.69 -0.430296
11.7 -0.46868
11.71 -0.500634
11.72 -0.528266
11.73 -0.554573
11.74 -0.581626
11.75 -0.611425
11.76 -0.644727
11.77 -0.682683
11.78 -0.724633
11.79 -0.770156
11.8 -0.817896
11.81 -0.866158
11.82 -0.912631
11.83 -0.955339
11.84 -0.991345
11.85 -1.01853
11.86 -1.03485
11.87 -1.0373
11.88 -1.02597
11.89 -0.997386
11.9 -0.952938
11.91 -0.891459
11.92 -0.813321
11.93 -0.720504
11.94 -0.612497
11.95 -0.4932
11.96 -0.363484
11.97 -0.226603
11.98 -0.0850937
11.99 0.0582089
12 0.200492
12.01 0.33849
12.02 0.470011
12.03 0.592242
12.04 0.702712
12.05 0.800503
12.06 0.881955
12.07 0.948203
12.08 0.996559
12.09 1.02766
12.1 1.04159
12.11 1.03752
12.12 1.01819
12.13 0.982412
12.14 0.933567
12.15 0.872418
12.16 0.800961
12.17 0.721739
12.18 0.636049
12.19 0.546842
12.2 0.4558
12.21 0.365087
12.22 0.276345
12.23 0.191434
12.24 0.111061
12.25 0.0369608
12.26 -0.0310325
12.27 -0.092309
12.28 -0.146957
12.29 -0.195818
12.3 -0.238837
12.31 -0.277702
12.32 -0.312967
12.33 -0.346011
12.34 -0.377856
12.35 -0.409531
12.36 -0.441809
12.37 -0.475428
12.38 -0.510515
12.39 -0.547121
12.4 -0.584822
