# xPDFsuite Configuration #
[PDF]
wavelength = 0.1432
dataformat = twotheta
inputfile = 1_1Pd_CeO2_cycle-00012.chi
backgroundfile = background-00000.chi
mode = xray
bgscale = 1.007
composition = CeO2
outputtype = gr
qmaxinst = 28.8974762299
qmin = 0.5
qmax = 27.9
rmax = 50.0
rmin = 0.0
rstep = 0.01
rpoly = 1.8657

[Misc]
inputdir = G:/SankarDec16/1Pd/Chi
savedir = D:/DATA/APS_CeO2/1Pd
backgroundfilefull = G:/SankarDec16/Background/background-00000.chi

#### start data
#S 1
#L r($\AA$)  G($\AA^{-2}$)
0 0
0.01 -0.00803317
0.02 -0.015462
0.03 -0.0216643
0.04 -0.0261711
0.05 -0.0287213
0.06 -0.0288951
0.07 -0.0269711
0.08 -0.0228135
0.09 -0.0169547
0.1 -0.00976239
0.11 -0.00180041
0.12 0.00631545
0.13 0.0138953
0.14 0.0204486
0.15 0.0253755
0.16 0.0283237
0.17 0.0291513
0.18 0.0275703
0.19 0.0239894
0.2 0.018422
0.21 0.0114884
0.22 0.003646
0.23 -0.00447248
0.24 -0.0122865
0.25 -0.0190529
0.26 -0.0244171
0.27 -0.0278305
0.28 -0.0290735
0.29 -0.0281302
0.3 -0.0248583
0.31 -0.0197779
0.32 -0.0130512
0.33 -0.00535774
0.34 0.00277665
0.35 0.0106793
0.36 0.0178322
0.37 0.0234733
0.38 0.0274011
0.39 0.0291438
0.4 0.0286248
0.41 0.0259559
0.42 0.0211473
0.43 0.0148065
0.44 0.00723737
0.45 -0.00085224
0.46 -0.00889297
0.47 -0.0162029
0.48 -0.0223512
0.49 -0.0265928
0.5 -0.0288886
0.51 -0.0288663
0.52 -0.0265966
0.53 -0.022314
0.54 -0.0161816
0.55 -0.00886655
0.56 -0.000800353
0.57 0.00731337
0.58 0.0148884
0.59 0.0212651
0.6 0.0261206
0.61 0.0287615
0.62 0.0293139
0.63 0.0275228
0.64 0.0236038
0.65 0.0179037
0.66 0.0107317
0.67 0.00278363
0.68 -0.00540087
0.69 -0.013155
0.7 -0.0199034
0.71 -0.025039
0.72 -0.0283627
0.73 -0.0292654
0.74 -0.0280327
0.75 -0.0245389
0.76 -0.0191346
0.77 -0.0122622
0.78 -0.00436253
0.79 0.00387328
0.8 0.0118244
0.81 0.0188928
0.82 0.0245426
0.83 0.0282496
0.84 0.0299485
0.85 0.0291458
0.86 0.0262721
0.87 0.021338
0.88 0.0148109
0.89 0.00720567
0.9 -0.000929573
0.91 -0.00894648
0.92 -0.0161805
0.93 -0.0221383
0.94 -0.02636
0.95 -0.0284433
0.96 -0.0284678
0.97 -0.0261041
0.98 -0.0219111
0.99 -0.016057
1 -0.00911547
1.01 -0.001655
1.02 0.00567232
1.03 0.0123056
1.04 0.0175509
1.05 0.0210626
1.06 0.0224871
1.07 0.0215813
1.08 0.0186001
1.09 0.0134247
1.1 0.00676355
1.11 -0.00101335
1.12 -0.00919245
1.13 -0.0171255
1.14 -0.0239906
1.15 -0.0293109
1.16 -0.0322785
1.17 -0.032681
1.18 -0.0302164
1.19 -0.0247338
1.2 -0.0166742
1.21 -0.00600038
1.22 0.00636543
1.23 0.0199227
1.24 0.0337976
1.25 0.0472198
1.26 0.0592046
1.27 0.0692196
1.28 0.0762962
1.29 0.0801877
1.3 0.0805035
1.31 0.0769877
1.32 0.0701022
1.33 0.0595933
1.34 0.0464656
1.35 0.0310595
1.36 0.0142111
1.37 -0.00331859
1.38 -0.0207144
1.39 -0.0372977
1.4 -0.0522529
1.41 -0.0651644
1.42 -0.0755888
1.43 -0.0831499
1.44 -0.0880386
1.45 -0.0898337
1.46 -0.0891606
1.47 -0.0860345
1.48 -0.080888
1.49 -0.0741411
1.5 -0.0660549
1.51 -0.0571376
1.52 -0.0476089
1.53 -0.0377908
1.54 -0.0278585
1.55 -0.0179562
1.56 -0.00815449
1.57 0.00147628
1.58 0.0109327
1.59 0.0201644
1.6 0.0291146
1.61 0.0377038
1.62 0.0457201
1.63 0.0530403
1.64 0.0592893
1.65 0.0642506
1.66 0.0675816
1.67 0.0688655
1.68 0.0680487
1.69 0.0645051
1.7 0.0585079
1.71 0.0497966
1.72 0.0385724
1.73 0.0251675
1.74 0.00979366
1.75 -0.00681074
1.76 -0.0241611
1.77 -0.0414861
1.78 -0.0581194
1.79 -0.0732786
1.8 -0.0865624
1.81 -0.0970697
1.82 -0.10487
1.83 -0.109536
1.84 -0.111188
1.85 -0.110155
1.86 -0.10662
1.87 -0.101445
1.88 -0.0951429
1.89 -0.0886072
1.9 -0.0825677
1.91 -0.0778575
1.92 -0.0749081
1.93 -0.0745718
1.94 -0.0767329
1.95 -0.0816824
1.96 -0.0891383
1.97 -0.0986136
1.98 -0.109605
1.99 -0.121155
2 -0.132352
2.01 -0.142195
2.02 -0.149713
2.03 -0.153791
2.04 -0.154066
2.05 -0.149177
2.06 -0.139506
2.07 -0.12445
2.08 -0.104276
2.09 -0.0795072
2.1 -0.0502697
2.11 -0.0178054
2.12 0.0174707
2.13 0.0544318
2.14 0.0923484
2.15 0.130444
2.16 0.168169
2.17 0.204975
2.18 0.240782
2.19 0.275469
2.2 0.309231
2.21 0.342369
2.22 0.375243
2.23 0.408258
2.24 0.4418
2.25 0.47605
2.26 0.511062
2.27 0.546641
2.28 0.58231
2.29 0.617216
2.3 0.65045
2.31 0.680604
2.32 0.706216
2.33 0.726081
2.34 0.737836
2.35 0.741206
2.36 0.733787
2.37 0.715644
2.38 0.686084
2.39 0.644686
2.4 0.593121
2.41 0.530843
2.42 0.460957
2.43 0.384669
2.44 0.304637
2.45 0.223326
2.46 0.143572
2.47 0.0675705
2.48 -0.00169253
2.49 -0.0627579
2.5 -0.113989
2.51 -0.153922
2.52 -0.183378
2.53 -0.200856
2.54 -0.208983
2.55 -0.208256
2.56 -0.200909
2.57 -0.189208
2.58 -0.175337
2.59 -0.161785
2.6 -0.150914
2.61 -0.144443
2.62 -0.143856
2.63 -0.150436
2.64 -0.163785
2.65 -0.18481
2.66 -0.211594
2.67 -0.24341
2.68 -0.278311
2.69 -0.314387
2.7 -0.349427
2.71 -0.381682
2.72 -0.408877
2.73 -0.429966
2.74 -0.443886
2.75 -0.449863
2.76 -0.448832
2.77 -0.44041
2.78 -0.426911
2.79 -0.409504
2.8 -0.390424
2.81 -0.3717
2.82 -0.355801
2.83 -0.344207
2.84 -0.339226
2.85 -0.341489
2.86 -0.351735
2.87 -0.37028
2.88 -0.395714
2.89 -0.427809
2.9 -0.463867
2.91 -0.50217
2.92 -0.540112
2.93 -0.575494
2.94 -0.605404
2.95 -0.628663
2.96 -0.642733
2.97 -0.647415
2.98 -0.642212
2.99 -0.627166
3 -0.604251
3.01 -0.57407
3.02 -0.539876
3.03 -0.503804
3.04 -0.468843
3.05 -0.437407
3.06 -0.412706
3.07 -0.395798
3.08 -0.389301
3.09 -0.39313
3.1 -0.40755
3.11 -0.432191
3.12 -0.464722
3.13 -0.504136
3.14 -0.546933
3.15 -0.590682
3.16 -0.632274
3.17 -0.66933
3.18 -0.698668
3.19 -0.719612
3.2 -0.729884
3.21 -0.730125
3.22 -0.720642
3.23 -0.702554
3.24 -0.678614
3.25 -0.650872
3.26 -0.622895
3.27 -0.597786
3.28 -0.578796
3.29 -0.568146
3.3 -0.569232
3.31 -0.581822
3.32 -0.607968
3.33 -0.645973
3.34 -0.694696
3.35 -0.751945
3.36 -0.814046
3.37 -0.877638
3.38 -0.938603
3.39 -0.992858
3.4 -1.03669
3.41 -1.06785
3.42 -1.08247
3.43 -1.08172
3.44 -1.06368
3.45 -1.03124
3.46 -0.986474
3.47 -0.932801
3.48 -0.875009
3.49 -0.817873
3.5 -0.766134
3.51 -0.724765
3.52 -0.697666
3.53 -0.686698
3.54 -0.695189
3.55 -0.720212
3.56 -0.761616
3.57 -0.813685
3.58 -0.871028
3.59 -0.925472
3.6 -0.969419
3.61 -0.990071
3.62 -0.980934
3.63 -0.929832
3.64 -0.828329
3.65 -0.672128
3.66 -0.449036
3.67 -0.165256
3.68 0.18726
3.69 0.599375
3.7 1.06645
3.71 1.58061
3.72 2.12635
3.73 2.69287
3.74 3.26143
3.75 3.81568
3.76 4.33739
3.77 4.81284
3.78 5.21903
3.79 5.55227
3.8 5.79116
3.81 5.93549
3.82 5.9791
3.83 5.91659
3.84 5.7613
3.85 5.50448
3.86 5.1699
3.87 4.76213
3.88 4.29798
3.89 3.79413
3.9 3.26442
3.91 2.72746
3.92 2.19846
3.93 1.69126
3.94 1.2177
3.95 0.790159
3.96 0.410397
3.97 0.0916792
3.98 -0.172945
3.99 -0.379324
4 -0.532035
4.01 -0.638112
4.02 -0.699517
4.03 -0.729136
4.04 -0.731029
4.05 -0.715741
4.06 -0.689965
4.07 -0.660666
4.08 -0.63324
4.09 -0.612904
4.1 -0.601508
4.11 -0.601303
4.12 -0.612244
4.13 -0.632926
4.14 -0.662305
4.15 -0.696788
4.16 -0.733898
4.17 -0.770155
4.18 -0.802694
4.19 -0.828335
4.2 -0.845798
4.21 -0.851859
4.22 -0.8472
4.23 -0.830579
4.24 -0.802595
4.25 -0.764544
4.26 -0.716651
4.27 -0.661608
4.28 -0.600125
4.29 -0.534352
4.3 -0.465538
4.31 -0.394866
4.32 -0.323347
4.33 -0.251531
4.34 -0.179782
4.35 -0.108197
4.36 -0.0367107
4.37 0.034792
4.38 0.106413
4.39 0.178098
4.4 0.24959
4.41 0.320362
4.42 0.389621
4.43 0.456038
4.44 0.518645
4.45 0.57494
4.46 0.624067
4.47 0.663637
4.48 0.692018
4.49 0.7084
4.5 0.710056
4.51 0.698237
4.52 0.670894
4.53 0.629624
4.54 0.574975
4.55 0.507861
4.56 0.431235
4.57 0.346016
4.58 0.255891
4.59 0.162986
4.6 0.0701916
4.61 -0.020231
4.62 -0.105455
4.63 -0.184409
4.64 -0.254776
4.65 -0.316319
4.66 -0.368516
4.67 -0.411059
4.68 -0.445469
4.69 -0.471467
4.7 -0.491487
4.71 -0.506413
4.72 -0.517989
4.73 -0.527732
4.74 -0.536972
4.75 -0.546849
4.76 -0.558339
4.77 -0.571866
4.78 -0.587657
4.79 -0.6057
4.8 -0.625419
4.81 -0.646413
4.82 -0.667757
4.83 -0.688681
4.84 -0.708316
4.85 -0.726058
4.86 -0.741008
4.87 -0.753156
4.88 -0.761933
4.89 -0.767655
4.9 -0.770507
4.91 -0.770834
4.92 -0.769422
4.93 -0.766733
4.94 -0.763644
4.95 -0.760779
4.96 -0.758785
4.97 -0.758063
4.98 -0.759157
4.99 -0.761999
5 -0.766851
5.01 -0.773426
5.02 -0.781535
5.03 -0.790904
5.04 -0.80108
5.05 -0.811792
5.06 -0.822641
5.07 -0.833376
5.08 -0.84378
5.09 -0.853749
5.1 -0.863134
5.11 -0.871959
5.12 -0.880067
5.13 -0.887367
5.14 -0.893603
5.15 -0.898254
5.16 -0.900927
5.17 -0.900324
5.18 -0.89582
5.19 -0.885802
5.2 -0.868771
5.21 -0.843633
5.22 -0.807564
5.23 -0.760549
5.24 -0.699714
5.25 -0.625077
5.26 -0.535829
5.27 -0.431154
5.28 -0.313132
5.29 -0.180872
5.3 -0.0382429
5.31 0.113137
5.32 0.269643
5.33 0.427618
5.34 0.582498
5.35 0.730532
5.36 0.866148
5.37 0.985851
5.38 1.08566
5.39 1.16077
5.4 1.2113
5.41 1.23098
5.42 1.22317
5.43 1.18559
5.44 1.11993
5.45 1.02954
5.46 0.914815
5.47 0.782526
5.48 0.634861
5.49 0.47792
5.5 0.316107
5.51 0.154519
5.52 -0.00278862
5.53 -0.15049
5.54 -0.286496
5.55 -0.40718
5.56 -0.510778
5.57 -0.597225
5.58 -0.664211
5.59 -0.714859
5.6 -0.748292
5.61 -0.76769
5.62 -0.774821
5.63 -0.771639
5.64 -0.761338
5.65 -0.745228
5.66 -0.726044
5.67 -0.70505
5.68 -0.683505
5.69 -0.662044
5.7 -0.640912
5.71 -0.619853
5.72 -0.598277
5.73 -0.575374
5.74 -0.550236
5.75 -0.521691
5.76 -0.489344
5.77 -0.451874
5.78 -0.409708
5.79 -0.362554
5.8 -0.311065
5.81 -0.256325
5.82 -0.199467
5.83 -0.142356
5.84 -0.0869469
5.85 -0.0352214
5.86 0.0108594
5.87 0.0488711
5.88 0.0781478
5.89 0.09571
5.9 0.102258
5.91 0.096441
5.92 0.0785378
5.93 0.0497011
5.94 0.00977803
5.95 -0.0383892
5.96 -0.0940645
5.97 -0.154641
5.98 -0.218295
5.99 -0.282969
6 -0.346898
6.01 -0.408154
6.02 -0.465837
6.03 -0.518777
6.04 -0.5665
6.05 -0.609169
6.06 -0.646429
6.07 -0.679506
6.08 -0.708631
6.09 -0.735026
6.1 -0.759509
6.11 -0.782939
6.12 -0.806082
6.13 -0.829481
6.14 -0.853378
6.15 -0.877829
6.16 -0.902568
6.17 -0.927168
6.18 -0.9509
6.19 -0.973196
6.2 -0.993102
6.21 -1.01011
6.22 -1.02371
6.23 -1.03338
6.24 -1.0395
6.25 -1.04176
6.26 -1.04121
6.27 -1.03834
6.28 -1.03416
6.29 -1.02964
6.3 -1.02579
6.31 -1.02319
6.32 -1.02244
6.33 -1.02334
6.34 -1.0253
6.35 -1.02698
6.36 -1.02661
6.37 -1.02083
6.38 -1.00703
6.39 -0.980748
6.4 -0.937503
6.41 -0.874116
6.42 -0.782948
6.43 -0.663729
6.44 -0.508981
6.45 -0.318488
6.46 -0.090169
6.47 0.178475
6.48 0.482243
6.49 0.824036
6.5 1.19446
6.51 1.59021
6.52 2.00303
6.53 2.42423
6.54 2.84388
6.55 3.25245
6.56 3.63744
6.57 3.98975
6.58 4.29967
6.59 4.55486
6.6 4.75419
6.61 4.88153
6.62 4.94248
6.63 4.9296
6.64 4.8441
6.65 4.69206
6.66 4.47032
6.67 4.19438
6.68 3.86563
6.69 3.49796
6.7 3.10064
6.71 2.68428
6.72 2.26088
6.73 1.84132
6.74 1.435
6.75 1.05159
6.76 0.698876
6.77 0.380514
6.78 0.105578
6.79 -0.129516
6.8 -0.31891
6.81 -0.467064
6.82 -0.575744
6.83 -0.646785
6.84 -0.688229
6.85 -0.700866
6.86 -0.693888
6.87 -0.670853
6.88 -0.637424
6.89 -0.598293
6.9 -0.557167
6.91 -0.517235
6.92 -0.48097
6.93 -0.449554
6.94 -0.423621
6.95 -0.403434
6.96 -0.387875
6.97 -0.376678
6.98 -0.368163
6.99 -0.361467
7 -0.355517
7.01 -0.349628
7.02 -0.343401
7.03 -0.336932
7.04 -0.330669
7.05 -0.325465
7.06 -0.322389
7.07 -0.323034
7.08 -0.328262
7.09 -0.340329
7.1 -0.359445
7.11 -0.386963
7.12 -0.423197
7.13 -0.467569
7.14 -0.520395
7.15 -0.579443
7.16 -0.643835
7.17 -0.71108
7.18 -0.779078
7.19 -0.845186
7.2 -0.907445
7.21 -0.962728
7.22 -1.01008
7.23 -1.04748
7.24 -1.07408
7.25 -1.09022
7.26 -1.09497
7.27 -1.09078
7.28 -1.07804
7.29 -1.05939
7.3 -1.03683
7.31 -1.01275
7.32 -0.989355
7.33 -0.969069
7.34 -0.953111
7.35 -0.942889
7.36 -0.938822
7.37 -0.940327
7.38 -0.946967
7.39 -0.956417
7.4 -0.966605
7.41 -0.974507
7.42 -0.977129
7.43 -0.970458
7.44 -0.95254
7.45 -0.918153
7.46 -0.866983
7.47 -0.795906
7.48 -0.704022
7.49 -0.592403
7.5 -0.459502
7.51 -0.309954
7.52 -0.144486
7.53 0.0319807
7.54 0.215561
7.55 0.401352
7.56 0.58457
7.57 0.759085
7.58 0.921163
7.59 1.06547
7.6 1.18796
7.61 1.28705
7.62 1.35713
7.63 1.40089
7.64 1.41459
7.65 1.40109
7.66 1.36155
7.67 1.29704
7.68 1.21289
7.69 1.10971
7.7 0.993731
7.71 0.867673
7.72 0.735797
7.73 0.60176
7.74 0.46915
7.75 0.340619
7.76 0.219326
7.77 0.106898
7.78 0.0048793
7.79 -0.0848857
7.8 -0.163093
7.81 -0.227478
7.82 -0.279853
7.83 -0.319499
7.84 -0.347001
7.85 -0.363578
7.86 -0.368595
7.87 -0.364353
7.88 -0.350545
7.89 -0.328847
7.9 -0.300164
7.91 -0.265385
7.92 -0.226334
7.93 -0.183914
7.94 -0.140142
7.95 -0.0965619
7.96 -0.0551215
7.97 -0.0173709
7.98 0.0141012
7.99 0.0384728
8 0.0531817
8.01 0.0575236
8.02 0.0504778
8.03 0.0307081
8.04 -0.000540016
8.05 -0.0447542
8.06 -0.0993753
8.07 -0.163916
8.08 -0.236375
8.09 -0.314383
8.1 -0.395972
8.11 -0.478305
8.12 -0.558938
8.13 -0.635593
8.14 -0.706364
8.15 -0.769105
8.16 -0.823661
8.17 -0.86804
8.18 -0.903561
8.19 -0.930053
8.2 -0.948686
8.21 -0.961173
8.22 -0.968579
8.23 -0.973235
8.24 -0.976484
8.25 -0.979869
8.26 -0.98429
8.27 -0.990257
8.28 -0.997366
8.29 -1.00468
8.3 -1.01041
8.31 -1.01204
8.32 -1.00626
8.33 -0.990286
8.34 -0.958403
8.35 -0.909069
8.36 -0.836228
8.37 -0.73816
8.38 -0.612328
8.39 -0.455282
8.4 -0.269962
8.41 -0.0526109
8.42 0.190472
8.43 0.457883
8.44 0.744253
8.45 1.0431
8.46 1.34815
8.47 1.65131
8.48 1.94401
8.49 2.2185
8.5 2.46733
8.51 2.68084
8.52 2.8571
8.53 2.98422
8.54 3.06483
8.55 3.09326
8.56 3.06933
8.57 2.99721
8.58 2.87368
8.59 2.70977
8.6 2.50603
8.61 2.27205
8.62 2.01437
8.63 1.7401
8.64 1.45802
8.65 1.17523
8.66 0.898743
8.67 0.635016
8.68 0.389594
8.69 0.165072
8.7 -0.0324655
8.71 -0.205116
8.72 -0.349207
8.73 -0.467353
8.74 -0.560843
8.75 -0.630758
8.76 -0.682284
8.77 -0.716065
8.78 -0.737818
8.79 -0.749914
8.8 -0.75589
8.81 -0.758706
8.82 -0.76072
8.83 -0.763862
8.84 -0.769682
8.85 -0.778867
8.86 -0.791742
8.87 -0.808427
8.88 -0.828098
8.89 -0.850454
8.9 -0.874283
8.91 -0.898808
8.92 -0.923055
8.93 -0.946331
8.94 -0.967787
8.95 -0.987264
8.96 -1.00429
8.97 -1.01903
8.98 -1.03164
8.99 -1.04237
9 -1.05181
9.01 -1.06032
9.02 -1.06849
9.03 -1.0767
9.04 -1.08533
9.05 -1.09449
9.06 -1.10427
9.07 -1.11442
9.08 -1.1246
9.09 -1.13425
9.1 -1.14271
9.11 -1.149
9.12 -1.15255
9.13 -1.15186
9.14 -1.14656
9.15 -1.13548
9.16 -1.11786
9.17 -1.09357
9.18 -1.06126
9.19 -1.02186
9.2 -0.974557
9.21 -0.920225
9.22 -0.859379
9.23 -0.79254
9.24 -0.721325
9.25 -0.646438
9.26 -0.569786
9.27 -0.49275
9.28 -0.417112
9.29 -0.344289
9.3 -0.276527
9.31 -0.214602
9.32 -0.160685
9.33 -0.115471
9.34 -0.079865
9.35 -0.0551855
9.36 -0.0405217
9.37 -0.0374665
9.38 -0.0441594
9.39 -0.0606204
9.4 -0.0856774
9.41 -0.117611
9.42 -0.155589
9.43 -0.197157
9.44 -0.240932
9.45 -0.284889
9.46 -0.327433
9.47 -0.366729
9.48 -0.401921
9.49 -0.431177
9.5 -0.454544
9.51 -0.471263
9.52 -0.481396
9.53 -0.48571
9.54 -0.484248
9.55 -0.478769
9.56 -0.470034
9.57 -0.459695
9.58 -0.44907
9.59 -0.439697
9.6 -0.432599
9.61 -0.42936
9.62 -0.43033
9.63 -0.436346
9.64 -0.447647
9.65 -0.463839
9.66 -0.48518
9.67 -0.51038
9.68 -0.53911
9.69 -0.570178
9.7 -0.602699
9.71 -0.635732
9.72 -0.668465
9.73 -0.700092
9.74 -0.73026
9.75 -0.758579
9.76 -0.784936
9.77 -0.809485
9.78 -0.832117
9.79 -0.853215
9.8 -0.872619
9.81 -0.890272
9.82 -0.905751
9.83 -0.917979
9.84 -0.92615
9.85 -0.927621
9.86 -0.920934
9.87 -0.902829
9.88 -0.869906
9.89 -0.820005
9.9 -0.746706
9.91 -0.649869
9.92 -0.523188
9.93 -0.365733
9.94 -0.175519
9.95 0.0508728
9.96 0.309509
9.97 0.604282
9.98 0.928128
9.99 1.27939
10 1.65234
10.01 2.03983
10.02 2.43527
10.03 2.82962
10.04 3.21365
10.05 3.57851
10.06 3.91584
10.07 4.21434
10.08 4.47131
10.09 4.67279
10.1 4.82059
10.11 4.90752
10.12 4.93186
10.13 4.89772
10.14 4.7993
10.15 4.64904
10.16 4.44589
10.17 4.20026
10.18 3.91927
10.19 3.61
10.2 3.28357
10.21 2.94701
10.22 2.61006
10.23 2.28021
10.24 1.96491
10.25 1.66838
10.26 1.39833
10.27 1.15398
10.28 0.940249
10.29 0.755464
10.3 0.598802
10.31 0.469923
10.32 0.363183
10.33 0.278312
10.34 0.208747
10.35 0.151751
10.36 0.103088
10.37 0.0589698
10.38 0.0164073
10.39 -0.0272933
10.4 -0.0742731
10.41 -0.125669
10.42 -0.182072
10.43 -0.243856
10.44 -0.309982
10.45 -0.38014
10.46 -0.452617
10.47 -0.526236
10.48 -0.59942
10.49 -0.670926
10.5 -0.739046
10.51 -0.803205
10.52 -0.862025
10.53 -0.915205
10.54 -0.962397
10.55 -1.00302
10.56 -1.03782
10.57 -1.06602
10.58 -1.08866
10.59 -1.10561
10.6 -1.11713
10.61 -1.12375
10.62 -1.12495
10.63 -1.12156
10.64 -1.11303
10.65 -1.09967
10.66 -1.08149
10.67 -1.0582
10.68 -1.03048
10.69 -0.997887
10.7 -0.961419
10.71 -0.921351
10.72 -0.878494
10.73 -0.833857
10.74 -0.788423
10.75 -0.743442
10.76 -0.70027
10.77 -0.660138
10.78 -0.6242
10.79 -0.594016
10.8 -0.569839
10.81 -0.553486
10.82 -0.544514
10.83 -0.543665
10.84 -0.55089
10.85 -0.565362
10.86 -0.587424
10.87 -0.615232
10.88 -0.648469
10.89 -0.685595
10.9 -0.725481
10.91 -0.766935
10.92 -0.808697
10.93 -0.849595
10.94 -0.888762
10.95 -0.925304
10.96 -0.958543
10.97 -0.988309
10.98 -1.01384
10.99 -1.03566
11 -1.05343
11.01 -1.06765
11.02 -1.07864
11.03 -1.08668
11.04 -1.09254
11.05 -1.09645
11.06 -1.09916
11.07 -1.10112
11.08 -1.10283
11.09 -1.10472
11.1 -1.10727
11.11 -1.11069
11.12 -1.11532
11.13 -1.12121
11.14 -1.12835
11.15 -1.13666
11.16 -1.14571
11.17 -1.155
11.18 -1.16375
11.19 -1.17093
11.2 -1.17518
11.21 -1.17534
11.22 -1.16884
11.23 -1.15476
11.24 -1.13003
11.25 -1.09305
11.26 -1.04188
11.27 -0.973253
11.28 -0.8875
11.29 -0.780287
11.3 -0.653247
11.31 -0.504653
11.32 -0.33476
11.33 -0.145908
11.34 0.0625465
11.35 0.285375
11.36 0.520899
11.37 0.764041
11.38 1.01043
11.39 1.2545
11.4 1.49153
11.41 1.71423
11.42 1.91884
11.43 2.09918
11.44 2.25017
11.45 2.3703
11.46 2.45172
11.47 2.49793
11.48 2.50374
11.49 2.47195
11.5 2.40401
11.51 2.30026
11.52 2.16791
11.53 2.00724
11.54 1.82672
11.55 1.63022
11.56 1.4238
11.57 1.21315
11.58 1.00372
11.59 0.799954
11.6 0.606785
11.61 0.427101
11.62 0.26316
11.63 0.117825
11.64 -0.0104129
11.65 -0.119101
11.66 -0.211629
11.67 -0.288535
11.68 -0.35213
11.69 -0.405566
11.7 -0.450401
11.71 -0.490335
11.72 -0.527219
11.73 -0.563421
11.74 -0.600456
11.75 -0.639632
11.76 -0.681211
11.77 -0.725548
11.78 -0.771736
11.79 -0.81888
11.8 -0.865399
11.81 -0.909763
11.82 -0.94944
11.83 -0.98316
11.84 -1.00819
11.85 -1.02317
11.86 -1.02667
11.87 -1.01649
11.88 -0.993355
11.89 -0.954697
11.9 -0.902314
11.91 -0.835634
11.92 -0.75539
11.93 -0.66347
11.94 -0.55974
11.95 -0.447391
11.96 -0.327193
11.97 -0.201646
11.98 -0.0726447
11.99 0.0577374
12 0.187445
12.01 0.314096
12.02 0.436034
12.03 0.551097
12.04 0.657263
12.05 0.753619
12.06 0.836962
12.07 0.907801
12.08 0.963428
12.09 1.00379
12.1 1.02836
12.11 1.03564
12.12 1.02759
12.13 1.00219
12.14 0.962254
12.15 0.907907
12.16 0.840668
12.17 0.763031
12.18 0.675827
12.19 0.58256
12.2 0.484909
12.21 0.385676
12.22 0.287054
12.23 0.191567
12.24 0.100659
12.25 0.0168581
12.26 -0.0594339
12.27 -0.126976
12.28 -0.185378
12.29 -0.235416
12.3 -0.276556
12.31 -0.311008
12.32 -0.339302
12.33 -0.363422
12.34 -0.384926
12.35 -0.40548
12.36 -0.426594
12.37 -0.449787
12.38 -0.475778
12.39 -0.505266
12.4 -0.538348
12.41 -0.574395
