# xPDFsuite Configuration #
[PDF]
wavelength = 0.1432
dataformat = twotheta
inputfile = 1_1Pd_CeO2_cycle-00081.chi
backgroundfile = background-00000.chi
mode = xray
bgscale = 1.007
composition = CeO2
outputtype = gr
qmaxinst = 28.8974762299
qmin = 0.5
qmax = 27.9
rmax = 50.0
rmin = 0.0
rstep = 0.01
rpoly = 1.8657

[Misc]
inputdir = G:/SankarDec16/1Pd/Chi
savedir = D:/DATA/APS_CeO2/1Pd
backgroundfilefull = G:/SankarDec16/Background/background-00000.chi

#### start data
#S 1
#L r($\AA$)  G($\AA^{-2}$)
0 0
0.01 -0.00692097
0.02 -0.0133198
0.03 -0.0186588
0.04 -0.0225334
0.05 -0.0247183
0.06 -0.024852
0.07 -0.0231761
0.08 -0.0195751
0.09 -0.01451
0.1 -0.00830007
0.11 -0.00143367
0.12 0.00555747
0.13 0.012076
0.14 0.0177002
0.15 0.021913
0.16 0.0244127
0.17 0.0250796
0.18 0.0236688
0.19 0.0205367
0.2 0.0156995
0.21 0.00969529
0.22 0.00292207
0.23 -0.00407157
0.24 -0.0107858
0.25 -0.016577
0.26 -0.0211446
0.27 -0.0240171
0.28 -0.0250107
0.29 -0.0241172
0.3 -0.0212208
0.31 -0.0167752
0.32 -0.0109281
0.33 -0.00426876
0.34 0.00274549
0.35 0.00953202
0.36 0.0156474
0.37 0.0204333
0.38 0.0237246
0.39 0.0251191
0.4 0.0245598
0.41 0.022151
0.42 0.0179118
0.43 0.012372
0.44 0.00580346
0.45 -0.00118135
0.46 -0.00808827
0.47 -0.0143285
0.48 -0.0195371
0.49 -0.0230731
0.5 -0.0249153
0.51 -0.0247508
0.52 -0.0226529
0.53 -0.0188336
0.54 -0.013447
0.55 -0.00707318
0.56 -9.55566e-05
0.57 0.00687977
0.58 0.013346
0.59 0.0187366
0.6 0.0227835
0.61 0.0248945
0.62 0.0251942
0.63 0.0234746
0.64 0.0199365
0.65 0.0148898
0.66 0.00861692
0.67 0.00171998
0.68 -0.00532434
0.69 -0.0119457
0.7 -0.0176496
0.71 -0.0219193
0.72 -0.0245975
0.73 -0.0251696
0.74 -0.0239001
0.75 -0.0206966
0.76 -0.0158772
0.77 -0.00983427
0.78 -0.00296381
0.79 0.00414015
0.8 0.0109333
0.81 0.0169102
0.82 0.0216153
0.83 0.0246099
0.84 0.0258557
0.85 0.024946
0.86 0.0222713
0.87 0.0178613
0.88 0.0121355
0.89 0.00554701
0.9 -0.00141556
0.91 -0.00820217
0.92 -0.0142345
0.93 -0.0191059
0.94 -0.0224341
0.95 -0.0238952
0.96 -0.0235826
0.97 -0.021245
0.98 -0.0173863
0.99 -0.0121834
1 -0.00615242
1.01 0.000204623
1.02 0.00630034
1.03 0.0116668
1.04 0.0156926
1.05 0.0181067
1.06 0.0186203
1.07 0.0170507
1.08 0.0136544
1.09 0.00836476
1.1 0.00183093
1.11 -0.00558615
1.12 -0.013234
1.13 -0.0205276
1.14 -0.0267106
1.15 -0.0313751
1.16 -0.0337821
1.17 -0.033761
1.18 -0.0310445
1.19 -0.0255016
1.2 -0.0175468
1.21 -0.00713722
1.22 0.00487727
1.23 0.0180504
1.24 0.0315885
1.25 0.0447895
1.26 0.0567644
1.27 0.0670124
1.28 0.0746472
1.29 0.0794163
1.3 0.0809359
1.31 0.0789287
1.32 0.0737757
1.33 0.0651685
1.34 0.0539864
1.35 0.0404614
1.36 0.0253026
1.37 0.00917138
1.38 -0.0072679
1.39 -0.02336
1.4 -0.0384153
1.41 -0.0519902
1.42 -0.063647
1.43 -0.0729779
1.44 -0.080047
1.45 -0.0843753
1.46 -0.0864012
1.47 -0.0860076
1.48 -0.0834585
1.49 -0.0790416
1.5 -0.0728366
1.51 -0.0653072
1.52 -0.0565259
1.53 -0.0468374
1.54 -0.0364077
1.55 -0.0254155
1.56 -0.0140724
1.57 -0.0025158
1.58 0.00904243
1.59 0.0204032
1.6 0.0313235
1.61 0.0415794
1.62 0.0507619
1.63 0.0587056
1.64 0.0648825
1.65 0.0691113
1.66 0.0710521
1.67 0.0703423
1.68 0.0670918
1.69 0.0607747
1.7 0.0518943
1.71 0.0403733
1.72 0.0266255
1.73 0.0111433
1.74 -0.00562825
1.75 -0.0229205
1.76 -0.0400683
1.77 -0.0563565
1.78 -0.0711279
1.79 -0.0836686
1.8 -0.0937791
1.81 -0.100675
1.82 -0.104705
1.83 -0.105656
1.84 -0.103904
1.85 -0.0999705
1.86 -0.0943155
1.87 -0.0878452
1.88 -0.0812916
1.89 -0.0754929
1.9 -0.0711793
1.91 -0.0691182
1.92 -0.0695123
1.93 -0.0730988
1.94 -0.079435
1.95 -0.0885735
1.96 -0.0999362
1.97 -0.112806
1.98 -0.126356
1.99 -0.139556
2 -0.151226
2.01 -0.160404
2.02 -0.166091
2.03 -0.167218
2.04 -0.163666
2.05 -0.154164
2.06 -0.139468
2.07 -0.119223
2.08 -0.0940319
2.09 -0.0646916
2.1 -0.031698
2.11 0.00358354
2.12 0.0404111
2.13 0.077649
2.14 0.114495
2.15 0.150163
2.16 0.184342
2.17 0.216508
2.18 0.246985
2.19 0.27588
2.2 0.303747
2.21 0.331199
2.22 0.358988
2.23 0.387721
2.24 0.418155
2.25 0.450563
2.26 0.485136
2.27 0.521774
2.28 0.559809
2.29 0.598468
2.3 0.636445
2.31 0.672175
2.32 0.703848
2.33 0.729938
2.34 0.747715
2.35 0.756621
2.36 0.753867
2.37 0.739334
2.38 0.712116
2.39 0.6716
2.4 0.619558
2.41 0.555237
2.42 0.482066
2.43 0.401298
2.44 0.315862
2.45 0.228508
2.46 0.142339
2.47 0.0598913
2.48 -0.0155251
2.49 -0.0821782
2.5 -0.138176
2.51 -0.181787
2.52 -0.213799
2.53 -0.23241
2.54 -0.240418
2.55 -0.238229
2.56 -0.228205
2.57 -0.212787
2.58 -0.194251
2.59 -0.175409
2.6 -0.158786
2.61 -0.146393
2.62 -0.139939
2.63 -0.140964
2.64 -0.149227
2.65 -0.165921
2.66 -0.189162
2.67 -0.218403
2.68 -0.251743
2.69 -0.287254
2.7 -0.322822
2.71 -0.35651
2.72 -0.386084
2.73 -0.410307
2.74 -0.42801
2.75 -0.438287
2.76 -0.441877
2.77 -0.438267
2.78 -0.429581
2.79 -0.416826
2.8 -0.402075
2.81 -0.387236
2.82 -0.37458
2.83 -0.365562
2.84 -0.362301
2.85 -0.365429
2.86 -0.375626
2.87 -0.393153
2.88 -0.416712
2.89 -0.445984
2.9 -0.478487
2.91 -0.512539
2.92 -0.545703
2.93 -0.575952
2.94 -0.600543
2.95 -0.618509
2.96 -0.627528
2.97 -0.627593
2.98 -0.618398
2.99 -0.600199
3 -0.575012
3.01 -0.543716
3.02 -0.509453
3.03 -0.474471
3.04 -0.441683
3.05 -0.413373
3.06 -0.392696
3.07 -0.380413
3.08 -0.378992
3.09 -0.388043
3.1 -0.40759
3.11 -0.436963
3.12 -0.473644
3.13 -0.516275
3.14 -0.561309
3.15 -0.6061
3.16 -0.647497
3.17 -0.683175
3.18 -0.7099
3.19 -0.727287
3.2 -0.733143
3.21 -0.728441
3.22 -0.713752
3.23 -0.690532
3.24 -0.661813
3.25 -0.630056
3.26 -0.598991
3.27 -0.572031
3.28 -0.552573
3.29 -0.542858
3.3 -0.546454
3.31 -0.56285
3.32 -0.594108
3.33 -0.638176
3.34 -0.693656
3.35 -0.758002
3.36 -0.827168
3.37 -0.89735
3.38 -0.964134
3.39 -1.02304
3.4 -1.07008
3.41 -1.10287
3.42 -1.11724
3.43 -1.11458
3.44 -1.09281
3.45 -1.05515
3.46 -1.00387
3.47 -0.942704
3.48 -0.876877
3.49 -0.811542
3.5 -0.751892
3.51 -0.703328
3.52 -0.670141
3.53 -0.654438
3.54 -0.659976
3.55 -0.683746
3.56 -0.725882
3.57 -0.780451
3.58 -0.841963
3.59 -0.902057
3.6 -0.952701
3.61 -0.980854
3.62 -0.979502
3.63 -0.936083
3.64 -0.841726
3.65 -0.691815
3.66 -0.473701
3.67 -0.193529
3.68 0.157097
3.69 0.568956
3.7 1.0374
3.71 1.55449
3.72 2.10437
3.73 2.6761
3.74 3.25047
3.75 3.81081
3.76 4.33849
3.77 4.81947
3.78 5.23034
3.79 5.56725
3.8 5.8085
3.81 5.95385
3.82 5.99711
3.83 5.93287
3.84 5.77477
3.85 5.51409
3.86 5.17503
3.87 4.76241
3.88 4.29339
3.89 3.78494
3.9 3.25127
3.91 2.71115
3.92 2.18009
3.93 1.67199
3.94 1.19872
3.95 0.772705
3.96 0.39548
3.97 0.0802905
3.98 -0.180176
3.99 -0.381966
4 -0.529968
4.01 -0.63148
4.02 -0.688785
4.03 -0.714927
4.04 -0.714248
4.05 -0.697348
4.06 -0.671003
4.07 -0.642221
4.08 -0.616224
4.09 -0.598245
4.1 -0.589831
4.11 -0.593084
4.12 -0.607703
4.13 -0.63206
4.14 -0.664857
4.15 -0.702348
4.16 -0.741831
4.17 -0.779761
4.18 -0.8132
4.19 -0.838923
4.2 -0.855773
4.21 -0.860507
4.22 -0.854037
4.23 -0.835226
4.24 -0.804865
4.25 -0.764416
4.26 -0.714288
4.27 -0.657285
4.28 -0.594269
4.29 -0.527436
4.3 -0.458074
4.31 -0.387384
4.32 -0.316285
4.33 -0.245314
4.34 -0.174677
4.35 -0.104381
4.36 -0.0342305
4.37 0.0359993
4.38 0.106532
4.39 0.177362
4.4 0.248317
4.41 0.318863
4.42 0.388202
4.43 0.45497
4.44 0.518108
4.45 0.57505
4.46 0.624824
4.47 0.664945
4.48 0.693685
4.49 0.710173
4.5 0.711593
4.51 0.699217
4.52 0.670959
4.53 0.628488
4.54 0.572407
4.55 0.503723
4.56 0.4255
4.57 0.338793
4.58 0.247391
4.59 0.15355
4.6 0.0602545
4.61 -0.0301897
4.62 -0.114855
4.63 -0.19274
4.64 -0.261492
4.65 -0.320985
4.66 -0.370777
4.67 -0.410675
4.68 -0.442343
4.69 -0.465649
4.7 -0.483158
4.71 -0.495895
4.72 -0.505714
4.73 -0.51419
4.74 -0.522772
4.75 -0.532537
4.76 -0.544526
4.77 -0.559067
4.78 -0.576333
4.79 -0.596239
4.8 -0.618076
4.81 -0.641367
4.82 -0.665061
4.83 -0.6883
4.84 -0.710131
4.85 -0.7299
4.86 -0.746639
4.87 -0.760351
4.88 -0.770434
4.89 -0.777234
4.9 -0.780949
4.91 -0.781942
4.92 -0.781034
4.93 -0.778677
4.94 -0.775768
4.95 -0.772907
4.96 -0.770711
4.97 -0.769552
4.98 -0.76989
4.99 -0.771646
5 -0.774982
5.01 -0.779606
5.02 -0.785301
5.03 -0.791773
5.04 -0.798655
5.05 -0.805693
5.06 -0.812651
5.07 -0.819402
5.08 -0.825926
5.09 -0.832293
5.1 -0.838632
5.11 -0.845093
5.12 -0.851816
5.13 -0.858803
5.14 -0.865932
5.15 -0.872816
5.16 -0.878923
5.17 -0.883081
5.18 -0.88434
5.19 -0.88097
5.2 -0.871166
5.21 -0.853516
5.22 -0.824832
5.23 -0.784771
5.24 -0.730031
5.25 -0.660367
5.26 -0.574699
5.27 -0.471913
5.28 -0.35416
5.29 -0.220244
5.3 -0.0743651
5.31 0.0818363
5.32 0.244444
5.33 0.409447
5.34 0.571973
5.35 0.727808
5.36 0.870977
5.37 0.997602
5.38 1.10337
5.39 1.18312
5.4 1.23693
5.41 1.25819
5.42 1.25048
5.43 1.21149
5.44 1.14316
5.45 1.04912
5.46 0.93001
5.47 0.793046
5.48 0.640755
5.49 0.479593
5.5 0.314257
5.51 0.150149
5.52 -0.00863481
5.53 -0.156511
5.54 -0.291596
5.55 -0.410286
5.56 -0.511052
5.57 -0.594119
5.58 -0.657468
5.59 -0.70458
5.6 -0.734941
5.61 -0.752011
5.62 -0.757802
5.63 -0.754514
5.64 -0.745286
5.65 -0.731613
5.66 -0.715926
5.67 -0.699379
5.68 -0.682904
5.69 -0.666795
5.7 -0.650895
5.71 -0.634599
5.72 -0.616879
5.73 -0.596673
5.74 -0.572836
5.75 -0.543973
5.76 -0.509833
5.77 -0.468944
5.78 -0.422156
5.79 -0.369366
5.8 -0.311655
5.81 -0.250537
5.82 -0.187652
5.83 -0.125251
5.84 -0.0658215
5.85 -0.0116018
5.86 0.0351959
5.87 0.071917
5.88 0.0981127
5.89 0.110666
5.9 0.110816
5.91 0.0974716
5.92 0.0714494
5.93 0.0344225
5.94 -0.0131263
5.95 -0.0679086
5.96 -0.128536
5.97 -0.192107
5.98 -0.256496
5.99 -0.319367
6 -0.379225
6.01 -0.433951
6.02 -0.483302
6.03 -0.526393
6.04 -0.563382
6.05 -0.595052
6.06 -0.621777
6.07 -0.64534
6.08 -0.666739
6.09 -0.687585
6.1 -0.709084
6.11 -0.732483
6.12 -0.75829
6.13 -0.787368
6.14 -0.819261
6.15 -0.853791
6.16 -0.890051
6.17 -0.926945
6.18 -0.963035
6.19 -0.997075
6.2 -1.02733
6.21 -1.05281
6.22 -1.07251
6.23 -1.08545
6.24 -1.09217
6.25 -1.09194
6.26 -1.08639
6.27 -1.07617
6.28 -1.06284
6.29 -1.04796
6.3 -1.03312
6.31 -1.01961
6.32 -1.00868
6.33 -1.00065
6.34 -0.995391
6.35 -0.992003
6.36 -0.98868
6.37 -0.982444
6.38 -0.970245
6.39 -0.947546
6.4 -0.909452
6.41 -0.8523
6.42 -0.768026
6.43 -0.655794
6.44 -0.507639
6.45 -0.322935
6.46 -0.0992776
6.47 0.166148
6.48 0.468088
6.49 0.809658
6.5 1.18112
6.51 1.57904
6.52 1.99481
6.53 2.41936
6.54 2.84238
6.55 3.25397
6.56 3.64126
6.57 3.9949
6.58 4.30502
6.59 4.55914
6.6 4.7563
6.61 4.88033
6.62 4.93723
6.63 4.9198
6.64 4.82962
6.65 4.67316
6.66 4.44768
6.67 4.1689
6.68 3.83861
6.69 3.47077
6.7 3.07475
6.71 2.66119
6.72 2.24179
6.73 1.82737
6.74 1.42686
6.75 1.04961
6.76 0.702962
6.77 0.390227
6.78 0.119999
6.79 -0.111466
6.8 -0.298677
6.81 -0.446103
6.82 -0.555528
6.83 -0.628744
6.84 -0.673451
6.85 -0.690278
6.86 -0.68793
6.87 -0.669609
6.88 -0.640539
6.89 -0.605088
6.9 -0.566512
6.91 -0.527926
6.92 -0.49151
6.93 -0.458539
6.94 -0.429728
6.95 -0.405505
6.96 -0.385157
6.97 -0.368732
6.98 -0.355042
6.99 -0.343665
7 -0.333987
7.01 -0.325608
7.02 -0.31862
7.03 -0.313056
7.04 -0.30964
7.05 -0.308995
7.06 -0.312012
7.07 -0.32
7.08 -0.333301
7.09 -0.353729
7.1 -0.380918
7.11 -0.415677
7.12 -0.457793
7.13 -0.506381
7.14 -0.56118
7.15 -0.620084
7.16 -0.681895
7.17 -0.744419
7.18 -0.805769
7.19 -0.863619
7.2 -0.916623
7.21 -0.962113
7.22 -0.9998
7.23 -1.02823
7.24 -1.04714
7.25 -1.05721
7.26 -1.05812
7.27 -1.0522
7.28 -1.04018
7.29 -1.02441
7.3 -1.0067
7.31 -0.989111
7.32 -0.973272
7.33 -0.961164
7.34 -0.953361
7.35 -0.950733
7.36 -0.953165
7.37 -0.959755
7.38 -0.969544
7.39 -0.980312
7.4 -0.989728
7.41 -0.995054
7.42 -0.993517
7.43 -0.98143
7.44 -0.957382
7.45 -0.916597
7.46 -0.85931
7.47 -0.782886
7.48 -0.686872
7.49 -0.572564
7.5 -0.438832
7.51 -0.290121
7.52 -0.127301
7.53 0.0450563
7.54 0.223355
7.55 0.40309
7.56 0.579992
7.57 0.748448
7.58 0.905176
7.59 1.04531
7.6 1.16518
7.61 1.26331
7.62 1.33442
7.63 1.38089
7.64 1.39901
7.65 1.39117
7.66 1.35817
7.67 1.30058
7.68 1.2232
7.69 1.12602
7.7 1.01488
7.71 0.892024
7.72 0.761397
7.73 0.62662
7.74 0.491008
7.75 0.357654
7.76 0.229782
7.77 0.109581
7.78 -0.000932426
7.79 -0.0993057
7.8 -0.185674
7.81 -0.257041
7.82 -0.314847
7.83 -0.357841
7.84 -0.386308
7.85 -0.401475
7.86 -0.402426
7.87 -0.392007
7.88 -0.369996
7.89 -0.338719
7.9 -0.299612
7.91 -0.254233
7.92 -0.205024
7.93 -0.153679
7.94 -0.102616
7.95 -0.0539524
7.96 -0.00996224
7.97 0.0278055
7.98 0.0564446
7.99 0.0756924
8 0.0830423
8.01 0.0784415
8.02 0.0613885
8.03 0.0311877
8.04 -0.010284
8.05 -0.0637846
8.06 -0.126327
8.07 -0.196888
8.08 -0.273142
8.09 -0.352704
8.1 -0.433312
8.11 -0.512618
8.12 -0.588223
8.13 -0.658425
8.14 -0.721769
8.15 -0.776657
8.16 -0.823477
8.17 -0.860833
8.18 -0.890392
8.19 -0.912397
8.2 -0.928239
8.21 -0.939608
8.22 -0.947721
8.23 -0.954484
8.24 -0.961107
8.25 -0.968645
8.26 -0.977597
8.27 -0.987994
8.28 -0.999057
8.29 -1.00936
8.3 -1.01696
8.31 -1.01909
8.32 -1.0124
8.33 -0.994283
8.34 -0.959093
8.35 -0.905747
8.36 -0.828512
8.37 -0.72616
8.38 -0.596581
8.39 -0.436839
8.4 -0.250092
8.41 -0.0330954
8.42 0.207937
8.43 0.471462
8.44 0.752273
8.45 1.04423
8.46 1.34136
8.47 1.63615
8.48 1.9206
8.49 2.18754
8.5 2.43006
8.51 2.63914
8.52 2.81301
8.53 2.94042
8.54 3.02375
8.55 3.05746
8.56 3.04111
8.57 2.97834
8.58 2.86556
8.59 2.713
8.6 2.52053
8.61 2.29699
8.62 2.04827
8.63 1.78069
8.64 1.50282
8.65 1.221
8.66 0.942522
8.67 0.673673
8.68 0.420308
8.69 0.185599
8.7 -0.0239633
8.71 -0.209519
8.72 -0.366661
8.73 -0.497111
8.74 -0.601395
8.75 -0.679684
8.76 -0.736884
8.77 -0.772724
8.78 -0.793165
8.79 -0.800325
8.8 -0.798005
8.81 -0.789758
8.82 -0.778278
8.83 -0.766555
8.84 -0.756858
8.85 -0.750865
8.86 -0.74974
8.87 -0.754595
8.88 -0.765012
8.89 -0.781713
8.9 -0.803366
8.91 -0.829567
8.92 -0.859211
8.93 -0.891085
8.94 -0.92418
8.95 -0.95727
8.96 -0.989312
8.97 -1.01947
8.98 -1.04709
8.99 -1.07145
9 -1.09264
9.01 -1.11002
9.02 -1.12414
9.03 -1.13493
9.04 -1.14275
9.05 -1.14809
9.06 -1.15106
9.07 -1.15229
9.08 -1.15186
9.09 -1.15007
9.1 -1.14694
9.11 -1.14229
9.12 -1.13606
9.13 -1.12757
9.14 -1.11658
9.15 -1.10233
9.16 -1.08408
9.17 -1.06146
9.18 -1.03313
9.19 -0.999318
9.2 -0.958887
9.21 -0.912031
9.22 -0.858709
9.23 -0.798801
9.24 -0.733519
9.25 -0.662927
9.26 -0.588837
9.27 -0.512343
9.28 -0.435216
9.29 -0.359113
9.3 -0.286336
9.31 -0.218257
9.32 -0.157375
9.33 -0.104975
9.34 -0.0624491
9.35 -0.0316966
9.36 -0.0121212
9.37 -0.00590847
9.38 -0.0112274
9.39 -0.0283511
9.4 -0.0560932
9.41 -0.0924884
9.42 -0.136655
9.43 -0.185562
9.44 -0.237528
9.45 -0.28997
9.46 -0.340835
9.47 -0.387744
9.48 -0.429528
9.49 -0.463795
9.5 -0.490527
9.51 -0.5087
9.52 -0.518342
9.53 -0.520411
9.54 -0.514918
9.55 -0.504134
9.56 -0.489014
9.57 -0.471695
9.58 -0.453882
9.59 -0.437559
9.6 -0.424066
9.61 -0.415441
9.62 -0.412161
9.63 -0.415308
9.64 -0.4252
9.65 -0.441337
9.66 -0.464043
9.67 -0.49166
9.68 -0.523738
9.69 -0.558721
9.7 -0.595435
9.71 -0.632601
9.72 -0.669143
9.73 -0.703906
9.74 -0.736411
9.75 -0.766063
9.76 -0.792665
9.77 -0.816433
9.78 -0.837185
9.79 -0.855577
9.8 -0.871532
9.81 -0.885276
9.82 -0.896615
9.83 -0.904755
9.84 -0.909117
9.85 -0.907373
9.86 -0.898202
9.87 -0.878558
9.88 -0.845168
9.89 -0.795863
9.9 -0.724377
9.91 -0.630358
9.92 -0.507523
9.93 -0.354723
9.94 -0.169807
9.95 0.0508385
9.96 0.303534
9.97 0.592404
9.98 0.910609
9.99 1.25672
10 1.62523
10.01 2.00907
10.02 2.40194
10.03 2.79472
10.04 3.17836
10.05 3.54392
10.06 3.88302
10.07 4.18432
10.08 4.44492
10.09 4.65078
10.1 4.80346
10.11 4.89559
10.12 4.92523
10.13 4.8963
10.14 4.80272
10.15 4.6568
10.16 4.45725
10.17 4.21441
10.18 3.93528
10.19 3.62681
10.2 3.30024
10.21 2.96248
10.22 2.62348
10.23 2.2908
10.24 1.97206
10.25 1.67172
10.26 1.39764
10.27 1.14931
10.28 0.931881
10.29 0.74387
10.3 0.584629
10.31 0.454028
10.32 0.346422
10.33 0.261739
10.34 0.193286
10.35 0.138336
10.36 0.0925366
10.37 0.0519104
10.38 0.0133358
10.39 -0.0261573
10.4 -0.0689212
10.41 -0.116338
10.42 -0.169203
10.43 -0.228137
10.44 -0.292168
10.45 -0.361232
10.46 -0.433546
10.47 -0.508
10.48 -0.582953
10.49 -0.657005
10.5 -0.728378
10.51 -0.796217
10.52 -0.85898
10.53 -0.916111
10.54 -0.967059
10.55 -1.011
10.56 -1.04857
10.57 -1.07877
10.58 -1.10264
10.59 -1.11996
10.6 -1.13102
10.61 -1.13646
10.62 -1.13578
10.63 -1.13006
10.64 -1.11886
10.65 -1.1027
10.66 -1.08177
10.67 -1.05595
10.68 -1.02604
10.69 -0.991757
10.7 -0.954113
10.71 -0.913438
10.72 -0.870523
10.73 -0.826289
10.74 -0.781675
10.75 -0.737761
10.76 -0.695798
10.77 -0.656863
10.78 -0.621991
10.79 -0.592607
10.8 -0.568918
10.81 -0.552633
10.82 -0.543347
10.83 -0.541799
10.84 -0.548007
10.85 -0.561246
10.86 -0.581959
10.87 -0.608445
10.88 -0.640524
10.89 -0.676779
10.9 -0.716181
10.91 -0.757659
10.92 -0.799942
10.93 -0.841952
10.94 -0.882721
10.95 -0.921329
10.96 -0.956991
10.97 -0.989404
10.98 -1.01767
10.99 -1.04216
11 -1.06237
11.01 -1.07868
11.02 -1.0913
11.03 -1.10038
11.04 -1.10671
11.05 -1.11041
11.06 -1.11236
11.07 -1.11298
11.08 -1.1129
11.09 -1.11267
11.1 -1.11284
11.11 -1.11378
11.12 -1.11594
11.13 -1.11948
11.14 -1.12447
11.15 -1.1309
11.16 -1.13833
11.17 -1.14632
11.18 -1.15403
11.19 -1.16042
11.2 -1.16407
11.21 -1.16376
11.22 -1.15689
11.23 -1.14249
11.24 -1.11748
11.25 -1.08026
11.26 -1.02891
11.27 -0.960234
11.28 -0.874603
11.29 -0.767807
11.3 -0.641528
11.31 -0.494143
11.32 -0.32598
11.33 -0.139383
11.34 0.0662084
11.35 0.28568
11.36 0.517373
11.37 0.756366
11.38 0.998439
11.39 1.23824
11.4 1.47125
11.41 1.69047
11.42 1.8923
11.43 2.07082
11.44 2.22114
11.45 2.34178
11.46 2.42509
11.47 2.4744
11.48 2.48455
11.49 2.45807
11.5 2.39621
11.51 2.29899
11.52 2.17327
11.53 2.01895
11.54 1.84414
11.55 1.65235
11.56 1.44932
11.57 1.24061
11.58 1.03132
11.59 0.826099
11.6 0.629744
11.61 0.445428
11.62 0.275663
11.63 0.123622
11.64 -0.0117262
11.65 -0.127487
11.66 -0.226585
11.67 -0.309093
11.68 -0.376887
11.69 -0.432923
11.7 -0.478275
11.71 -0.516833
11.72 -0.550245
11.73 -0.581165
11.74 -0.611374
11.75 -0.642505
11.76 -0.67539
11.77 -0.710875
11.78 -0.748634
11.79 -0.788332
11.8 -0.828943
11.81 -0.869217
11.82 -0.907251
11.83 -0.941611
11.84 -0.969891
11.85 -0.99044
11.86 -1.0016
11.87 -1.00085
11.88 -0.988263
11.89 -0.960782
11.9 -0.919479
11.91 -0.863145
11.92 -0.791825
11.93 -0.707007
11.94 -0.607774
11.95 -0.497377
11.96 -0.376113
11.97 -0.24667
11.98 -0.111119
11.99 0.0282796
12 0.168754
12.01 0.307545
12.02 0.442149
12.03 0.569755
12.04 0.687563
12.05 0.794127
12.06 0.885367
12.07 0.961675
12.08 1.01973
12.09 1.0595
12.1 1.08051
12.11 1.08126
12.12 1.06437
12.13 1.02801
12.14 0.975859
12.15 0.908603
12.16 0.828529
12.17 0.738748
12.18 0.640925
12.19 0.538879
12.2 0.434949
12.21 0.332087
12.22 0.232592
12.23 0.139148
12.24 0.052689
12.25 -0.0242442
12.26 -0.0919991
12.27 -0.149751
12.28 -0.197755
12.29 -0.237383
12.3 -0.26878
12.31 -0.294578
12.32 -0.315893
12.33 -0.334964
12.34 -0.353528
12.35 -0.373479
12.36 -0.395995
12.37 -0.422687
12.38 -0.453706
12.39 -0.489453
12.4 -0.529522
