# xPDFsuite Configuration #
[PDF]
wavelength = 0.1432
dataformat = twotheta
inputfile = 1_1Pd_CeO2_cycle-00101.chi
backgroundfile = background-00000.chi
mode = xray
bgscale = 1.007
composition = CeO2
outputtype = gr
qmaxinst = 28.8974762299
qmin = 0.5
qmax = 27.9
rmax = 50.0
rmin = 0.0
rstep = 0.01
rpoly = 1.8657

[Misc]
inputdir = G:/SankarDec16/1Pd/Chi
savedir = D:/DATA/APS_CeO2/1Pd
backgroundfilefull = G:/SankarDec16/Background/background-00000.chi

#### start data
#S 1
#L r($\AA$)  G($\AA^{-2}$)
0 0
0.01 -0.00617753
0.02 -0.0118886
0.03 -0.016653
0.04 -0.0201092
0.05 -0.0220564
0.06 -0.0221716
0.07 -0.0206709
0.08 -0.0174517
0.09 -0.012926
0.1 -0.00737927
0.11 -0.00124817
0.12 0.00499242
0.13 0.0108086
0.14 0.0158241
0.15 0.0195773
0.16 0.0217994
0.17 0.022384
0.18 0.0211135
0.19 0.0183067
0.2 0.0139793
0.21 0.00861255
0.22 0.0025625
0.23 -0.00368031
0.24 -0.00966978
0.25 -0.0148308
0.26 -0.0188959
0.27 -0.0214448
0.28 -0.0223144
0.29 -0.0214988
0.3 -0.0188961
0.31 -0.0149126
0.32 -0.00968181
0.33 -0.00373068
0.34 0.00253174
0.35 0.00858472
0.36 0.0140331
0.37 0.018289
0.38 0.0212069
0.39 0.0224288
0.4 0.0219058
0.41 0.0197329
0.42 0.0159293
0.43 0.0109692
0.44 0.00509754
0.45 -0.00113862
0.46 -0.00729752
0.47 -0.0128535
0.48 -0.0174823
0.49 -0.0206122
0.5 -0.0222271
0.51 -0.0220496
0.52 -0.0201475
0.53 -0.0167127
0.54 -0.0118852
0.55 -0.00618382
0.56 4.68771e-05
0.57 0.00626623
0.58 0.0120218
0.59 0.0168087
0.6 0.02039
0.61 0.0222387
0.62 0.0224693
0.63 0.0208991
0.64 0.0177103
0.65 0.0131818
0.66 0.0075688
0.67 0.00140888
0.68 -0.00487045
0.69 -0.0107616
0.7 -0.015824
0.71 -0.0195985
0.72 -0.0219479
0.73 -0.0224159
0.74 -0.0212425
0.75 -0.0183488
0.76 -0.0140218
0.77 -0.00861406
0.78 -0.00248191
0.79 0.00384556
0.8 0.00988124
0.81 0.0151769
0.82 0.0193284
0.83 0.0219477
0.84 0.0230051
0.85 0.0221429
0.86 0.0197137
0.87 0.0157493
0.88 0.0106276
0.89 0.00475534
0.9 -0.00142763
0.91 -0.00743295
0.92 -0.0127427
0.93 -0.0169986
0.94 -0.0198625
0.95 -0.02105
0.96 -0.0206506
0.97 -0.0184464
0.98 -0.0148929
0.99 -0.0101546
1 -0.0046977
1.01 0.00102615
1.02 0.00648598
1.03 0.0112656
1.04 0.0148138
1.05 0.0168914
1.06 0.0172406
1.07 0.0156988
1.08 0.0125002
1.09 0.00758385
1.1 0.00153662
1.11 -0.00531811
1.12 -0.0123935
1.13 -0.0191634
1.14 -0.0249494
1.15 -0.0293824
1.16 -0.031798
1.17 -0.0320389
1.18 -0.0298604
1.19 -0.0251374
1.2 -0.018235
1.21 -0.00910024
1.22 0.00151115
1.23 0.0132149
1.24 0.0253111
1.25 0.0371789
1.26 0.0480411
1.27 0.0574449
1.28 0.0646143
1.29 0.0693151
1.3 0.0712039
1.31 0.0700279
1.32 0.0661086
1.33 0.0591636
1.34 0.0499498
1.35 0.0386547
1.36 0.0258838
1.37 0.012204
1.38 -0.00182638
1.39 -0.0156367
1.4 -0.0286484
1.41 -0.0404736
1.42 -0.0507392
1.43 -0.059096
1.44 -0.0655867
1.45 -0.0698055
1.46 -0.0721068
1.47 -0.072383
1.48 -0.0708418
1.49 -0.0677116
1.5 -0.0630381
1.51 -0.0571993
1.52 -0.0502291
1.53 -0.042406
1.54 -0.0338515
1.55 -0.0246971
1.56 -0.015125
1.57 -0.00522496
1.58 0.00480106
1.59 0.0147898
1.6 0.0245174
1.61 0.0337725
1.62 0.0421914
1.63 0.049599
1.64 0.0555218
1.65 0.0597743
1.66 0.0620405
1.67 0.0619825
1.68 0.0596809
1.69 0.0546541
1.7 0.0473351
1.71 0.0376394
1.72 0.0259191
1.73 0.0125984
1.74 -0.00195508
1.75 -0.0170667
1.76 -0.0321833
1.77 -0.0466833
1.78 -0.0600117
1.79 -0.0715697
1.8 -0.0811808
1.81 -0.0882083
1.82 -0.0929372
1.83 -0.0952088
1.84 -0.0953453
1.85 -0.0937854
1.86 -0.0909307
1.87 -0.0875158
1.88 -0.0841532
1.89 -0.0815046
1.9 -0.0801442
1.91 -0.0806556
1.92 -0.0831505
1.93 -0.0881461
1.94 -0.0952158
1.95 -0.104298
1.96 -0.114832
1.97 -0.126168
1.98 -0.137497
1.99 -0.147994
2 -0.156578
2.01 -0.16251
2.02 -0.164973
2.03 -0.163115
2.04 -0.156962
2.05 -0.145498
2.06 -0.129514
2.07 -0.108808
2.08 -0.0840048
2.09 -0.0558564
2.1 -0.024875
2.11 0.00778481
2.12 0.0414606
2.13 0.0752576
2.14 0.108563
2.15 0.140828
2.16 0.171918
2.17 0.201585
2.18 0.230228
2.19 0.258135
2.2 0.285912
2.21 0.314149
2.22 0.343648
2.23 0.374807
2.24 0.408329
2.25 0.444237
2.26 0.482533
2.27 0.522873
2.28 0.564387
2.29 0.606018
2.3 0.64635
2.31 0.683613
2.32 0.715915
2.33 0.741729
2.34 0.758242
2.35 0.765095
2.36 0.759525
2.37 0.741662
2.38 0.710784
2.39 0.666524
2.4 0.610879
2.41 0.54339
2.42 0.46764
2.43 0.385113
2.44 0.298869
2.45 0.211695
2.46 0.126839
2.47 0.0466611
2.48 -0.0254919
2.49 -0.0881219
2.5 -0.139494
2.51 -0.178098
2.52 -0.204979
2.53 -0.218602
2.54 -0.221993
2.55 -0.215817
2.56 -0.202638
2.57 -0.185012
2.58 -0.165449
2.59 -0.146669
2.6 -0.131355
2.61 -0.12136
2.62 -0.118329
2.63 -0.123683
2.64 -0.136929
2.65 -0.159129
2.66 -0.188096
2.67 -0.223071
2.68 -0.261896
2.69 -0.30245
2.7 -0.342336
2.71 -0.379546
2.72 -0.41159
2.73 -0.437217
2.74 -0.455181
2.75 -0.464517
2.76 -0.466116
2.77 -0.45937
2.78 -0.446687
2.79 -0.429142
2.8 -0.409025
2.81 -0.388461
2.82 -0.369937
2.83 -0.355149
2.84 -0.346479
2.85 -0.344765
2.86 -0.350902
2.87 -0.365393
2.88 -0.386973
2.89 -0.41564
2.9 -0.448777
2.91 -0.484839
2.92 -0.52131
2.93 -0.556022
2.94 -0.586189
2.95 -0.610508
2.96 -0.626505
2.97 -0.633821
2.98 -0.631865
2.99 -0.620536
3 -0.6016
3.01 -0.575481
3.02 -0.545212
3.03 -0.512712
3.04 -0.480761
3.05 -0.451633
3.06 -0.428291
3.07 -0.41181
3.08 -0.404617
3.09 -0.40671
3.1 -0.418376
3.11 -0.439313
3.12 -0.467421
3.13 -0.501799
3.14 -0.539267
3.15 -0.577623
3.16 -0.614053
3.17 -0.646413
3.18 -0.671862
3.19 -0.689824
3.2 -0.698331
3.21 -0.698037
3.22 -0.689328
3.23 -0.673362
3.24 -0.652677
3.25 -0.629345
3.26 -0.606561
3.27 -0.587248
3.28 -0.574333
3.29 -0.569742
3.3 -0.576524
3.31 -0.594222
3.32 -0.624542
3.33 -0.665658
3.34 -0.716274
3.35 -0.774066
3.36 -0.8355
3.37 -0.897096
3.38 -0.95507
3.39 -1.00545
3.4 -1.04481
3.41 -1.07118
3.42 -1.081
3.43 -1.07572
3.44 -1.05371
3.45 -1.01806
3.46 -0.971012
3.47 -0.91615
3.48 -0.85818
3.49 -0.802008
3.5 -0.752109
3.51 -0.713374
3.52 -0.689456
3.53 -0.681966
3.54 -0.693965
3.55 -0.722277
3.56 -0.766465
3.57 -0.820644
3.58 -0.879262
3.59 -0.934008
3.6 -0.977358
3.61 -0.996411
3.62 -0.984927
3.63 -0.930826
3.64 -0.825921
3.65 -0.666159
3.66 -0.439633
3.67 -0.152773
3.68 0.202167
3.69 0.6159
3.7 1.08362
3.71 1.59734
3.72 2.14164
3.73 2.7056
3.74 3.27079
3.75 3.82095
3.76 4.33814
3.77 4.80888
3.78 5.2105
3.79 5.53955
3.8 5.77494
3.81 5.91666
3.82 5.95869
3.83 5.89577
3.84 5.74117
3.85 5.48625
3.86 5.15445
3.87 4.75028
3.88 4.29022
3.89 3.7907
3.9 3.26524
3.91 2.73217
3.92 2.20638
3.93 1.70152
3.94 1.22926
3.95 0.801832
3.96 0.421087
3.97 0.100184
3.98 -0.167516
3.99 -0.377734
4 -0.534741
4.01 -0.64527
4.02 -0.71093
4.03 -0.744329
4.04 -0.749152
4.05 -0.735754
4.06 -0.710636
4.07 -0.680589
4.08 -0.651135
4.09 -0.627356
4.1 -0.611463
4.11 -0.605844
4.12 -0.610803
4.13 -0.625279
4.14 -0.648629
4.15 -0.67759
4.16 -0.71012
4.17 -0.742971
4.18 -0.773519
4.19 -0.79881
4.2 -0.81744
4.21 -0.826383
4.22 -0.825926
4.23 -0.814708
4.24 -0.792955
4.25 -0.76158
4.26 -0.72039
4.27 -0.671676
4.28 -0.615678
4.29 -0.554251
4.3 -0.488357
4.31 -0.418898
4.32 -0.346982
4.33 -0.272908
4.34 -0.197439
4.35 -0.120771
4.36 -0.0432227
4.37 0.0349151
4.38 0.113307
4.39 0.191448
4.4 0.268575
4.41 0.343812
4.42 0.416039
4.43 0.483595
4.44 0.545589
4.45 0.599221
4.46 0.644046
4.47 0.677761
4.48 0.69914
4.49 0.707816
4.5 0.701532
4.51 0.682051
4.52 0.647893
4.53 0.601068
4.54 0.542514
4.55 0.473553
4.56 0.397082
4.57 0.314414
4.58 0.228801
4.59 0.142322
4.6 0.0574501
4.61 -0.0240351
4.62 -0.0997877
4.63 -0.169342
4.64 -0.230993
4.65 -0.28501
4.66 -0.331341
4.67 -0.370177
4.68 -0.403047
4.69 -0.430173
4.7 -0.453581
4.71 -0.474177
4.72 -0.493317
4.73 -0.512027
4.74 -0.531199
4.75 -0.551286
4.76 -0.572662
4.77 -0.595158
4.78 -0.618481
4.79 -0.64205
4.8 -0.665197
4.81 -0.686949
4.82 -0.706718
4.83 -0.72364
4.84 -0.737175
4.85 -0.747179
4.86 -0.753121
4.87 -0.755695
4.88 -0.754886
4.89 -0.751628
4.9 -0.746631
4.91 -0.740816
4.92 -0.735113
4.93 -0.730551
4.94 -0.72774
4.95 -0.727418
4.96 -0.729947
4.97 -0.735312
4.98 -0.743721
4.99 -0.754448
5 -0.767237
5.01 -0.781222
5.02 -0.795724
5.03 -0.809938
5.04 -0.823283
5.05 -0.83499
5.06 -0.844922
5.07 -0.852767
5.08 -0.858613
5.09 -0.862773
5.1 -0.865487
5.11 -0.867391
5.12 -0.868879
5.13 -0.870395
5.14 -0.872151
5.15 -0.874123
5.16 -0.875975
5.17 -0.876866
5.18 -0.87582
5.19 -0.871215
5.2 -0.861164
5.21 -0.844089
5.22 -0.816677
5.23 -0.778271
5.24 -0.72535
5.25 -0.657386
5.26 -0.573075
5.27 -0.471071
5.28 -0.353457
5.29 -0.218851
5.3 -0.0715749
5.31 0.0867131
5.32 0.251921
5.33 0.419824
5.34 0.585295
5.35 0.743855
5.36 0.889206
5.37 1.01725
5.38 1.12345
5.39 1.20242
5.4 1.2543
5.41 1.27227
5.42 1.2602
5.43 1.21586
5.44 1.14146
5.45 1.04095
5.46 0.915371
5.47 0.772275
5.48 0.61464
5.49 0.44923
5.5 0.281043
5.51 0.115807
5.52 -0.0424325
5.53 -0.187764
5.54 -0.318646
5.55 -0.4315
5.56 -0.525112
5.57 -0.600096
5.58 -0.654795
5.59 -0.6932
5.6 -0.715281
5.61 -0.72494
5.62 -0.724594
5.63 -0.7169
5.64 -0.705054
5.65 -0.691035
5.66 -0.677009
5.67 -0.664236
5.68 -0.653419
5.69 -0.644498
5.7 -0.63708
5.71 -0.629975
5.72 -0.621751
5.73 -0.610813
5.74 -0.595565
5.75 -0.57409
5.76 -0.54593
5.77 -0.509049
5.78 -0.464381
5.79 -0.411582
5.8 -0.351799
5.81 -0.286775
5.82 -0.218191
5.83 -0.148833
5.84 -0.0814204
5.85 -0.0187055
5.86 0.0366981
5.87 0.0816634
5.88 0.115419
5.89 0.134335
5.9 0.139533
5.91 0.129612
5.92 0.105284
5.93 0.0682847
5.94 0.0189562
5.95 -0.0390427
5.96 -0.104299
5.97 -0.173529
5.98 -0.244343
5.99 -0.314085
6 -0.380919
6.01 -0.442387
6.02 -0.497989
6.03 -0.546553
6.04 -0.588027
6.05 -0.623105
6.06 -0.651918
6.07 -0.676385
6.08 -0.69736
6.09 -0.716618
6.1 -0.735446
6.11 -0.755184
6.12 -0.776593
6.13 -0.800615
6.14 -0.827075
6.15 -0.855953
6.16 -0.886555
6.17 -0.917952
6.18 -0.948925
6.19 -0.978326
6.2 -1.00463
6.21 -1.02691
6.22 -1.04427
6.23 -1.05585
6.24 -1.06213
6.25 -1.06253
6.26 -1.05856
6.27 -1.05086
6.28 -1.04091
6.29 -1.03014
6.3 -1.02005
6.31 -1.01171
6.32 -1.00621
6.33 -1.00364
6.34 -1.00368
6.35 -1.00517
6.36 -1.00618
6.37 -1.00341
6.38 -0.993772
6.39 -0.972539
6.4 -0.93475
6.41 -0.87678
6.42 -0.790465
6.43 -0.675217
6.44 -0.523096
6.45 -0.33375
6.46 -0.104985
6.47 0.165744
6.48 0.472911
6.49 0.819308
6.5 1.19499
6.51 1.59625
6.52 2.0143
6.53 2.44
6.54 2.86286
6.55 3.27314
6.56 3.65794
6.57 4.00815
6.58 4.31409
6.59 4.56353
6.6 4.75582
6.61 4.87512
6.62 4.92769
6.63 4.90665
6.64 4.8138
6.65 4.6557
6.66 4.42989
6.67 4.1519
6.68 3.82362
6.69 3.45876
6.7 3.06651
6.71 2.65726
6.72 2.24237
6.73 1.83233
6.74 1.43577
6.75 1.06171
6.76 0.717241
6.77 0.405551
6.78 0.134967
6.79 -0.0980933
6.8 -0.288232
6.81 -0.439663
6.82 -0.55397
6.83 -0.632673
6.84 -0.683104
6.85 -0.70553
6.86 -0.708317
6.87 -0.694307
6.88 -0.668425
6.89 -0.634901
6.9 -0.596672
6.91 -0.55702
6.92 -0.517987
6.93 -0.481107
6.94 -0.447287
6.95 -0.417214
6.96 -0.390569
6.97 -0.367733
6.98 -0.347897
6.99 -0.330992
7 -0.316718
7.01 -0.304834
7.02 -0.295746
7.03 -0.289357
7.04 -0.286525
7.05 -0.287646
7.06 -0.293437
7.07 -0.304972
7.08 -0.322233
7.09 -0.346733
7.1 -0.37777
7.11 -0.415844
7.12 -0.460481
7.13 -0.510676
7.14 -0.565938
7.15 -0.624304
7.16 -0.68453
7.17 -0.744668
7.18 -0.803042
7.19 -0.857613
7.2 -0.907355
7.21 -0.949972
7.22 -0.985431
7.23 -1.01259
7.24 -1.03138
7.25 -1.04254
7.26 -1.04592
7.27 -1.0436
7.28 -1.03628
7.29 -1.02596
7.3 -1.01414
7.31 -1.00251
7.32 -0.992304
7.33 -0.985018
7.34 -0.980967
7.35 -0.980641
7.36 -0.983699
7.37 -0.989226
7.38 -0.996038
7.39 -1.00228
7.4 -1.00564
7.41 -1.00385
7.42 -0.994497
7.43 -0.974376
7.44 -0.942546
7.45 -0.894826
7.46 -0.83179
7.47 -0.751276
7.48 -0.653134
7.49 -0.538712
7.5 -0.407204
7.51 -0.262662
7.52 -0.105986
7.53 0.0587393
7.54 0.228307
7.55 0.398714
7.56 0.566249
7.57 0.725921
7.58 0.874905
7.59 1.00888
7.6 1.12457
7.61 1.22063
7.62 1.29225
7.63 1.34144
7.64 1.36464
7.65 1.36382
7.66 1.33942
7.67 1.29158
7.68 1.22451
7.69 1.13766
7.7 1.0363
7.71 0.922138
7.72 0.798641
7.73 0.669194
7.74 0.536597
7.75 0.404143
7.76 0.274789
7.77 0.151035
7.78 0.0351103
7.79 -0.070264
7.8 -0.16468
7.81 -0.244803
7.82 -0.31151
7.83 -0.363119
7.84 -0.399468
7.85 -0.421506
7.86 -0.427872
7.87 -0.421439
7.88 -0.40172
7.89 -0.371177
7.9 -0.331334
7.91 -0.283865
7.92 -0.231579
7.93 -0.176317
7.94 -0.120909
7.95 -0.0677187
7.96 -0.0193165
7.97 0.0225476
7.98 0.054723
7.99 0.0769116
8 0.0864748
8.01 0.0834186
8.02 0.0672919
8.03 0.0374772
8.04 -0.0039712
8.05 -0.0577075
8.06 -0.120567
8.07 -0.191405
8.08 -0.267788
8.09 -0.34728
8.1 -0.427563
8.11 -0.506342
8.12 -0.581253
8.13 -0.6507
8.14 -0.713336
8.15 -0.767704
8.16 -0.814288
8.17 -0.851858
8.18 -0.882109
8.19 -0.905364
8.2 -0.923014
8.21 -0.936678
8.22 -0.947536
8.23 -0.957309
8.24 -0.967074
8.25 -0.977682
8.26 -0.989452
8.27 -1.00219
8.28 -1.01502
8.29 -1.02626
8.3 -1.03399
8.31 -1.03535
8.32 -1.02701
8.33 -1.00649
8.34 -0.96819
8.35 -0.911287
8.36 -0.830206
8.37 -0.72398
8.38 -0.590715
8.39 -0.427734
8.4 -0.238324
8.41 -0.019508
8.42 0.222505
8.43 0.486063
8.44 0.765982
8.45 1.05624
8.46 1.35091
8.47 1.64276
8.48 1.92391
8.49 2.18748
8.5 2.42677
8.51 2.63299
8.52 2.80452
8.53 2.93034
8.54 3.01286
8.55 3.04662
8.56 3.03116
8.57 2.97003
8.58 2.85957
8.59 2.70979
8.6 2.52041
8.61 2.30004
8.62 2.05439
8.63 1.78954
8.64 1.51398
8.65 1.2338
8.66 0.956319
8.67 0.687726
8.68 0.433895
8.69 0.198089
8.7 -0.0131768
8.71 -0.200845
8.72 -0.360415
8.73 -0.493432
8.74 -0.600287
8.75 -0.681007
8.76 -0.740418
8.77 -0.778126
8.78 -0.800096
8.79 -0.808411
8.8 -0.806898
8.81 -0.799176
8.82 -0.787977
8.83 -0.7764
8.84 -0.766777
8.85 -0.760862
8.86 -0.75987
8.87 -0.764949
8.88 -0.775674
8.89 -0.79275
8.9 -0.814785
8.91 -0.841303
8.92 -0.871101
8.93 -0.90289
8.94 -0.935522
8.95 -0.96775
8.96 -0.998424
8.97 -1.02672
8.98 -1.05199
8.99 -1.07356
9 -1.09164
9.01 -1.1057
9.02 -1.11646
9.03 -1.12406
9.04 -1.12904
9.05 -1.13203
9.06 -1.1334
9.07 -1.13381
9.08 -1.13352
9.09 -1.13277
9.1 -1.13159
9.11 -1.12975
9.12 -1.12695
9.13 -1.12241
9.14 -1.11559
9.15 -1.10547
9.16 -1.09106
9.17 -1.07177
9.18 -1.04591
9.19 -1.01368
9.2 -0.973691
9.21 -0.926159
9.22 -0.871063
9.23 -0.808322
9.24 -0.739417
9.25 -0.664541
9.26 -0.585869
9.27 -0.504771
9.28 -0.423364
9.29 -0.34356
9.3 -0.268057
9.31 -0.198304
9.32 -0.137094
9.33 -0.0857004
9.34 -0.0455103
9.35 -0.0183982
9.36 -0.00346088
9.37 -0.00276291
9.38 -0.0140492
9.39 -0.0372878
9.4 -0.0708938
9.41 -0.112592
9.42 -0.161047
9.43 -0.213103
9.44 -0.266717
9.45 -0.319277
9.46 -0.368694
9.47 -0.412558
9.48 -0.450015
9.49 -0.478724
9.5 -0.499128
9.51 -0.510486
9.52 -0.513237
9.53 -0.508687
9.54 -0.497299
9.55 -0.481547
9.56 -0.462764
9.57 -0.443188
9.58 -0.424613
9.59 -0.409116
9.6 -0.397787
9.61 -0.392686
9.62 -0.393877
9.63 -0.402226
9.64 -0.417695
9.65 -0.439456
9.66 -0.467464
9.67 -0.499825
9.68 -0.535766
9.69 -0.5736
9.7 -0.612052
9.71 -0.64974
9.72 -0.685765
9.73 -0.718943
9.74 -0.749109
9.75 -0.77584
9.76 -0.799218
9.77 -0.819721
9.78 -0.837461
9.79 -0.853279
9.8 -0.867347
9.81 -0.879984
9.82 -0.891065
9.83 -0.89985
9.84 -0.905604
9.85 -0.905982
9.86 -0.899392
9.87 -0.882618
9.88 -0.85213
9.89 -0.805542
9.9 -0.736303
9.91 -0.643935
9.92 -0.521923
9.93 -0.369064
9.94 -0.183166
9.95 0.0394231
9.96 0.294844
9.97 0.587194
9.98 0.909355
9.99 1.25972
10 1.63252
10.01 2.02047
10.02 2.41697
10.03 2.81278
10.04 3.19857
10.05 3.56537
10.06 3.9047
10.07 4.20516
10.08 4.464
10.09 4.66717
10.1 4.81647
10.11 4.90468
10.12 4.93007
10.13 4.89679
10.14 4.79901
10.15 4.64922
10.16 4.44636
10.17 4.20088
10.18 3.91989
10.19 3.61048
10.2 3.28379
10.21 2.94684
10.22 2.60941
10.23 2.27899
10.24 1.96309
10.25 1.66596
10.26 1.39536
10.27 1.15058
10.28 0.936589
10.29 0.751783
10.3 0.595386
10.31 0.467125
10.32 0.361338
10.33 0.277813
10.34 0.209913
10.35 0.154871
10.36 0.108362
10.37 0.0664903
10.38 0.0261343
10.39 -0.0155276
10.4 -0.0608046
10.41 -0.110956
10.42 -0.166684
10.43 -0.228505
10.44 -0.295354
10.45 -0.367049
10.46 -0.441742
10.47 -0.518228
10.48 -0.594791
10.49 -0.670008
10.5 -0.741994
10.51 -0.809948
10.52 -0.87226
10.53 -0.92843
10.54 -0.97794
10.55 -1.02
10.56 -1.05538
10.57 -1.08311
10.58 -1.10441
10.59 -1.11915
10.6 -1.12776
10.61 -1.13101
10.62 -1.12858
10.63 -1.12157
10.64 -1.10971
10.65 -1.09356
10.66 -1.07331
10.67 -1.04891
10.68 -1.02104
10.69 -0.989434
10.7 -0.954899
10.71 -0.917663
10.72 -0.878333
10.73 -0.837651
10.74 -0.79633
10.75 -0.755303
10.76 -0.715587
10.77 -0.678142
10.78 -0.643889
10.79 -0.614112
10.8 -0.5891
10.81 -0.570438
10.82 -0.557925
10.83 -0.552361
10.84 -0.553944
10.85 -0.56217
10.86 -0.577692
10.87 -0.599062
10.88 -0.626361
10.89 -0.65839
10.9 -0.69431
10.91 -0.733289
10.92 -0.774056
10.93 -0.815767
10.94 -0.857315
10.95 -0.897806
10.96 -0.936344
10.97 -0.972419
10.98 -1.00502
10.99 -1.03421
11 -1.05928
11.01 -1.08032
11.02 -1.09734
11.03 -1.1102
11.04 -1.1196
11.05 -1.12537
11.06 -1.12844
11.07 -1.12912
11.08 -1.12806
11.09 -1.12594
11.1 -1.12333
11.11 -1.12089
11.12 -1.11919
11.13 -1.11866
11.14 -1.11958
11.15 -1.12219
11.16 -1.12623
11.17 -1.13153
11.18 -1.1373
11.19 -1.14267
11.2 -1.14628
11.21 -1.14686
11.22 -1.14188
11.23 -1.13014
11.24 -1.10854
11.25 -1.07526
11.26 -1.02819
11.27 -0.963924
11.28 -0.882632
11.29 -0.779858
11.3 -0.657129
11.31 -0.512627
11.32 -0.346532
11.33 -0.161151
11.34 0.0442603
11.35 0.264457
11.36 0.497858
11.37 0.739403
11.38 0.984766
11.39 1.22848
11.4 1.4658
11.41 1.68958
11.42 1.89599
11.43 2.07891
11.44 2.23325
11.45 2.35739
11.46 2.44347
11.47 2.49477
11.48 2.50599
11.49 2.47968
11.5 2.41709
11.51 2.31825
11.52 2.19021
11.53 2.03289
11.54 1.85467
11.55 1.65919
11.56 1.45243
11.57 1.24011
11.58 1.0276
11.59 0.819637
11.6 0.621255
11.61 0.435692
11.62 0.265519
11.63 0.113988
11.64 -0.0200671
11.65 -0.133724
11.66 -0.230141
11.67 -0.309522
11.68 -0.373971
11.69 -0.426664
11.7 -0.468949
11.71 -0.5049
11.72 -0.536435
11.73 -0.56635
11.74 -0.596541
11.75 -0.628792
11.76 -0.663814
11.77 -0.702543
11.78 -0.744393
11.79 -0.788896
11.8 -0.834762
11.81 -0.880449
11.82 -0.923717
11.83 -0.962852
11.84 -0.995071
11.85 -1.01848
11.86 -1.03123
11.87 -1.0305
11.88 -1.0165
11.89 -0.985921
11.9 -0.940154
11.91 -0.878082
11.92 -0.800047
11.93 -0.707916
11.94 -0.601141
11.95 -0.48342
11.96 -0.355519
11.97 -0.220524
11.98 -0.0808419
11.99 0.0608264
12 0.201729
12.01 0.338702
12.02 0.469529
12.03 0.591403
12.04 0.701797
12.05 0.799706
12.06 0.881386
12.07 0.947857
12.08 0.996325
12.09 1.02734
12.1 1.04092
12.11 1.03618
12.12 1.0159
12.13 0.978872
12.14 0.92859
12.15 0.865905
12.16 0.792952
12.17 0.7124
12.18 0.625735
12.19 0.535992
12.2 0.445025
12.21 0.35505
12.22 0.26774
12.23 0.185003
12.24 0.107406
12.25 0.0366598
12.26 -0.027629
12.27 -0.0850155
12.28 -0.135829
12.29 -0.181119
12.3 -0.221139
12.31 -0.257702
12.32 -0.291636
12.33 -0.324404
12.34 -0.357097
12.35 -0.390841
12.36 -0.426219
12.37 -0.463997
12.38 -0.503988
12.39 -0.546057
12.4 -0.589483
12.41 -0.633238
12.42 -0.675801
