# xPDFsuite Configuration #
[PDF]
wavelength = 0.1432
dataformat = twotheta
inputfile = 1_1Pd_CeO2_cycle-00198.chi
backgroundfile = background-00000.chi
mode = xray
bgscale = 1.007
composition = CeO2
outputtype = gr
qmaxinst = 28.8974762299
qmin = 0.5
qmax = 27.9
rmax = 50.0
rmin = 0.0
rstep = 0.01
rpoly = 1.8657

[Misc]
inputdir = G:/SankarDec16/1Pd/Chi
savedir = D:/DATA/APS_CeO2/1Pd
backgroundfilefull = G:/SankarDec16/Background/background-00000.chi

#### start data
#S 1
#L r($\AA$)  G($\AA^{-2}$)
0 0
0.01 -0.0067557
0.02 -0.0130023
0.03 -0.0182157
0.04 -0.022001
0.05 -0.0241387
0.06 -0.0242755
0.07 -0.0226468
0.08 -0.0191392
0.09 -0.0142017
0.1 -0.00814487
0.11 -0.00144442
0.12 0.00538112
0.13 0.0117499
0.14 0.0172498
0.15 0.0213763
0.16 0.023834
0.17 0.0245051
0.18 0.023149
0.19 0.0201119
0.2 0.0154076
0.21 0.00955969
0.22 0.00295511
0.23 -0.00387217
0.24 -0.0104341
0.25 -0.0161039
0.26 -0.020586
0.27 -0.0234199
0.28 -0.0244235
0.29 -0.0235867
0.3 -0.0207935
0.31 -0.0164843
0.32 -0.0107997
0.33 -0.0043134
0.34 0.00253025
0.35 0.00916391
0.36 0.0151536
0.37 0.0198576
0.38 0.0231111
0.39 0.0245198
0.4 0.024024
0.41 0.0217223
0.42 0.0176287
0.43 0.0122575
0.44 0.00586943
0.45 -0.000938877
0.46 -0.00768687
0.47 -0.0138007
0.48 -0.0189215
0.49 -0.0224236
0.5 -0.0242809
0.51 -0.0241847
0.52 -0.0222012
0.53 -0.018533
0.54 -0.0133244
0.55 -0.00713885
0.56 -0.000345432
0.57 0.00646471
0.58 0.012798
0.59 0.0181013
0.6 0.0221087
0.61 0.0242405
0.62 0.0246112
0.63 0.0230131
0.64 0.0196352
0.65 0.0147751
0.66 0.00870095
0.67 0.00199875
0.68 -0.00487205
0.69 -0.0113537
0.7 -0.0169638
0.71 -0.021196
0.72 -0.023891
0.73 -0.0245428
0.74 -0.0234014
0.75 -0.0203698
0.76 -0.0157509
0.77 -0.00992219
0.78 -0.00326211
0.79 0.00365025
0.8 0.0102893
0.81 0.016159
0.82 0.0208138
0.83 0.0238219
0.84 0.0251387
0.85 0.0243622
0.86 0.0218646
0.87 0.0176676
0.88 0.012173
0.89 0.00581857
0.9 -0.000925897
0.91 -0.00752245
0.92 -0.01341
0.93 -0.018187
0.94 -0.021477
0.95 -0.022958
0.96 -0.0227135
0.97 -0.0204906
0.98 -0.0167742
0.99 -0.0117298
1 -0.00585648
1.01 0.000357033
1.02 0.00633946
1.03 0.011628
1.04 0.0156216
1.05 0.0180454
1.06 0.0186071
1.07 0.0171144
1.08 0.0138079
1.09 0.00860305
1.1 0.00213032
1.11 -0.00527131
1.12 -0.0129677
1.13 -0.0203849
1.14 -0.0267863
1.15 -0.0317553
1.16 -0.0345612
1.17 -0.0350135
1.18 -0.0328293
1.19 -0.0278517
1.2 -0.0204644
1.21 -0.010585
1.22 0.000966909
1.23 0.0137871
1.24 0.0271134
1.25 0.0402638
1.26 0.0523886
1.27 0.0629717
1.28 0.071153
1.29 0.0766497
1.3 0.0790633
1.31 0.0780882
1.32 0.0740566
1.33 0.0666228
1.34 0.0566091
1.35 0.0441968
1.36 0.0300433
1.37 0.0147726
1.38 -0.00101037
1.39 -0.0166521
1.4 -0.031512
1.41 -0.0451312
1.42 -0.057075
1.43 -0.0669274
1.44 -0.0747061
1.45 -0.079925
1.46 -0.0829546
1.47 -0.083644
1.48 -0.082203
1.49 -0.0788749
1.5 -0.0736861
1.51 -0.0670719
1.52 -0.0590549
1.53 -0.0499662
1.54 -0.0399506
1.55 -0.0291688
1.56 -0.0178512
1.57 -0.00610998
1.58 0.00580003
1.59 0.0176794
1.6 0.0292576
1.61 0.0402836
1.62 0.0503321
1.63 0.0592016
1.64 0.0663457
1.65 0.0715544
1.66 0.0744663
1.67 0.0746941
1.68 0.072332
1.69 0.066822
1.7 0.0586596
1.71 0.0477392
1.72 0.0344569
1.73 0.019293
1.74 0.00265615
1.75 -0.0146772
1.76 -0.0320809
1.77 -0.0488313
1.78 -0.0642818
1.79 -0.0777263
1.8 -0.0889361
1.81 -0.0971426
1.82 -0.10264
1.83 -0.105199
1.84 -0.105148
1.85 -0.102962
1.86 -0.0990456
1.87 -0.0942528
1.88 -0.0892465
1.89 -0.0848192
1.9 -0.0816478
1.91 -0.0804419
1.92 -0.0814022
1.93 -0.08519
1.94 -0.0914083
1.95 -0.100084
1.96 -0.110672
1.97 -0.122499
1.98 -0.134766
1.99 -0.146528
2 -0.156657
2.01 -0.164273
2.02 -0.16845
2.03 -0.168197
2.04 -0.163439
2.05 -0.153
2.06 -0.137638
2.07 -0.117048
2.08 -0.0918375
2.09 -0.062782
2.1 -0.0303832
2.11 0.00407144
2.12 0.0398654
2.13 0.0759486
2.14 0.111584
2.15 0.146067
2.16 0.179152
2.17 0.21041
2.18 0.240201
2.19 0.268701
2.2 0.296494
2.21 0.324195
2.22 0.352594
2.23 0.382231
2.24 0.41387
2.25 0.4477
2.26 0.483859
2.27 0.522167
2.28 0.561876
2.29 0.602118
2.3 0.641517
2.31 0.678421
2.32 0.710958
2.33 0.737568
2.34 0.755447
2.35 0.764079
2.36 0.76063
2.37 0.745051
2.38 0.716471
2.39 0.67434
2.4 0.62053
2.41 0.554367
2.42 0.479394
2.43 0.396964
2.44 0.310109
2.45 0.221651
2.46 0.134809
2.47 0.0521171
2.48 -0.023027
2.49 -0.0889324
2.5 -0.143718
2.51 -0.185693
2.52 -0.21576
2.53 -0.232178
2.54 -0.237903
2.55 -0.233465
2.56 -0.221374
2.57 -0.20419
2.58 -0.184366
2.59 -0.164753
2.6 -0.148032
2.61 -0.136204
2.62 -0.131001
2.63 -0.133955
2.64 -0.144688
2.65 -0.164352
2.66 -0.190839
2.67 -0.22345
2.68 -0.260062
2.69 -0.298556
2.7 -0.336548
2.71 -0.371992
2.72 -0.402389
2.73 -0.426456
2.74 -0.442934
2.75 -0.450862
2.76 -0.451141
2.77 -0.443228
2.78 -0.429572
2.79 -0.411354
2.8 -0.390965
2.81 -0.370611
2.82 -0.352954
2.83 -0.339691
2.84 -0.333366
2.85 -0.334774
2.86 -0.344814
2.87 -0.363944
2.88 -0.390715
2.89 -0.425009
2.9 -0.463918
2.91 -0.505639
2.92 -0.547335
2.93 -0.586569
2.94 -0.620127
2.95 -0.646594
2.96 -0.663082
2.97 -0.669213
2.98 -0.664286
2.99 -0.648151
3 -0.622871
3.01 -0.588869
3.02 -0.549721
3.03 -0.507654
3.04 -0.465974
3.05 -0.427427
3.06 -0.395603
3.07 -0.371926
3.08 -0.35947
3.09 -0.358442
3.1 -0.369417
3.11 -0.392336
3.12 -0.424812
3.13 -0.466167
3.14 -0.512539
3.15 -0.561479
3.16 -0.609545
3.17 -0.653979
3.18 -0.69123
3.19 -0.72013
3.2 -0.737923
3.21 -0.744836
3.22 -0.740792
3.23 -0.726511
3.24 -0.704717
3.25 -0.677054
3.26 -0.647402
3.27 -0.618833
3.28 -0.594906
3.29 -0.578222
3.3 -0.572533
3.31 -0.578147
3.32 -0.597605
3.33 -0.629676
3.34 -0.673639
3.35 -0.727739
3.36 -0.788361
3.37 -0.852573
3.38 -0.915947
3.39 -0.974426
3.4 -1.02396
3.41 -1.06189
3.42 -1.08393
3.43 -1.09065
3.44 -1.07957
3.45 -1.05305
3.46 -1.01269
3.47 -0.961392
3.48 -0.903902
3.49 -0.844473
3.5 -0.788239
3.51 -0.740139
3.52 -0.704484
3.53 -0.683645
3.54 -0.681459
3.55 -0.695728
3.56 -0.727021
3.57 -0.770278
3.58 -0.820733
3.59 -0.870892
3.6 -0.913249
3.61 -0.935741
3.62 -0.931428
3.63 -0.888263
3.64 -0.797377
3.65 -0.653879
3.66 -0.445057
3.67 -0.176175
3.68 0.161623
3.69 0.560078
3.7 1.01534
3.71 1.52045
3.72 2.06015
3.73 2.62463
3.74 3.1948
3.75 3.75461
3.76 4.28552
3.77 4.77319
3.78 5.19426
3.79 5.54391
3.8 5.79999
3.81 5.96121
3.82 6.02049
3.83 5.97135
3.84 5.82666
3.85 5.57647
3.86 5.24469
3.87 4.83538
3.88 4.36549
3.89 3.85216
3.9 3.30943
3.91 2.75706
3.92 2.21085
3.93 1.68584
3.94 1.1948
3.95 0.751274
3.96 0.35769
3.97 0.0285919
3.98 -0.242861
3.99 -0.451818
4 -0.602798
4.01 -0.703137
4.02 -0.754741
4.03 -0.771579
4.04 -0.75812
4.05 -0.726065
4.06 -0.683015
4.07 -0.637038
4.08 -0.594345
4.09 -0.561393
4.1 -0.540374
4.11 -0.534324
4.12 -0.543443
4.13 -0.566193
4.14 -0.601773
4.15 -0.645651
4.16 -0.695126
4.17 -0.745654
4.18 -0.79356
4.19 -0.834652
4.2 -0.866779
4.21 -0.885564
4.22 -0.891191
4.23 -0.881597
4.24 -0.857002
4.25 -0.818697
4.26 -0.766532
4.27 -0.703983
4.28 -0.631837
4.29 -0.553197
4.3 -0.470025
4.31 -0.384429
4.32 -0.298309
4.33 -0.213297
4.34 -0.130376
4.35 -0.0505011
4.36 0.0258835
4.37 0.0987579
4.38 0.167687
4.39 0.233259
4.4 0.29511
4.41 0.353548
4.42 0.408375
4.43 0.459062
4.44 0.505562
4.45 0.546334
4.46 0.581294
4.47 0.608938
4.48 0.628293
4.49 0.638858
4.5 0.638626
4.51 0.62842
4.52 0.606541
4.53 0.573948
4.54 0.530789
4.55 0.477402
4.56 0.415838
4.57 0.346321
4.58 0.271624
4.59 0.193066
4.6 0.112773
4.61 0.0325331
4.62 -0.0456444
4.63 -0.120564
4.64 -0.190444
4.65 -0.2547
4.66 -0.312647
4.67 -0.363687
4.68 -0.408584
4.69 -0.446686
4.7 -0.479518
4.71 -0.50733
4.72 -0.531114
4.73 -0.551838
4.74 -0.570058
4.75 -0.586765
4.76 -0.602343
4.77 -0.617288
4.78 -0.631793
4.79 -0.645901
4.8 -0.659578
4.81 -0.672546
4.82 -0.684663
4.83 -0.695609
4.84 -0.705173
4.85 -0.71329
4.86 -0.71974
4.87 -0.724812
4.88 -0.728527
4.89 -0.731308
4.9 -0.7335
4.91 -0.735561
4.92 -0.737905
4.93 -0.741052
4.94 -0.74523
4.95 -0.750757
4.96 -0.757723
4.97 -0.766026
4.98 -0.775622
4.99 -0.786056
5 -0.797022
5.01 -0.808006
5.02 -0.81857
5.03 -0.828215
5.04 -0.836722
5.05 -0.843635
5.06 -0.849089
5.07 -0.853022
5.08 -0.855691
5.09 -0.857456
5.1 -0.858674
5.11 -0.859816
5.12 -0.861261
5.13 -0.863236
5.14 -0.865792
5.15 -0.86871
5.16 -0.871476
5.17 -0.873065
5.18 -0.872416
5.19 -0.867812
5.2 -0.857359
5.21 -0.839531
5.22 -0.811076
5.23 -0.771495
5.24 -0.717413
5.25 -0.648478
5.26 -0.563542
5.27 -0.461437
5.28 -0.344294
5.29 -0.2109
5.3 -0.0654839
5.31 0.0902871
5.32 0.252446
5.33 0.416934
5.34 0.578809
5.35 0.733826
5.36 0.875943
5.37 1.00127
5.38 1.10549
5.39 1.18343
5.4 1.23521
5.41 1.25425
5.42 1.24423
5.43 1.2029
5.44 1.13229
5.45 1.03613
5.46 0.915191
5.47 0.776736
5.48 0.623429
5.49 0.461761
5.5 0.296483
5.51 0.133058
5.52 -0.0244832
5.53 -0.170491
5.54 -0.30322
5.55 -0.419103
5.56 -0.516727
5.57 -0.596444
5.58 -0.656365
5.59 -0.700119
5.6 -0.727352
5.61 -0.741651
5.62 -0.745152
5.63 -0.740201
5.64 -0.729946
5.65 -0.716048
5.66 -0.700848
5.67 -0.685543
5.68 -0.670999
5.69 -0.657394
5.7 -0.644509
5.71 -0.631536
5.72 -0.617319
5.73 -0.600604
5.74 -0.580084
5.75 -0.554169
5.76 -0.52251
5.77 -0.483416
5.78 -0.437736
5.79 -0.385255
5.8 -0.327048
5.81 -0.264692
5.82 -0.199815
5.83 -0.134865
5.84 -0.0724027
5.85 -0.0148722
5.86 0.0353502
5.87 0.0754094
5.88 0.104702
5.89 0.119882
5.9 0.122109
5.91 0.110139
5.92 0.0847192
5.93 0.0475361
5.94 -0.00100593
5.95 -0.0574527
5.96 -0.120403
5.97 -0.186769
5.98 -0.254285
5.99 -0.320439
6 -0.383559
6.01 -0.441323
6.02 -0.49336
6.03 -0.538624
6.04 -0.577166
6.05 -0.609741
6.06 -0.636611
6.07 -0.659675
6.08 -0.6799
6.09 -0.699042
6.1 -0.718408
6.11 -0.739376
6.12 -0.762618
6.13 -0.789143
6.14 -0.818632
6.15 -0.85104
6.16 -0.885563
6.17 -0.921146
6.18 -0.956443
6.19 -0.99014
6.2 -1.02053
6.21 -1.0465
6.22 -1.06699
6.23 -1.08092
6.24 -1.0887
6.25 -1.08947
6.26 -1.08479
6.27 -1.0752
6.28 -1.06218
6.29 -1.04729
6.3 -1.03206
6.31 -1.01786
6.32 -1.00595
6.33 -0.996751
6.34 -0.990229
6.35 -0.985592
6.36 -0.981133
6.37 -0.974019
6.38 -0.961256
6.39 -0.938408
6.4 -0.900627
6.41 -0.844243
6.42 -0.761234
6.43 -0.650654
6.44 -0.504511
6.45 -0.322047
6.46 -0.100745
6.47 0.162349
6.48 0.462102
6.49 0.801804
6.5 1.17179
6.51 1.56876
6.52 1.98417
6.53 2.40896
6.54 2.83289
6.55 3.24594
6.56 3.63525
6.57 3.99134
6.58 4.3042
6.59 4.56123
6.6 4.7613
6.61 4.88808
6.62 4.94744
6.63 4.93201
6.64 4.84327
6.65 4.68762
6.66 4.46219
6.67 4.18278
6.68 3.85111
6.69 3.48125
6.7 3.08263
6.71 2.66598
6.72 2.24317
6.73 1.82515
6.74 1.42101
6.75 1.04028
6.76 0.690447
6.77 0.374941
6.78 0.102547
6.79 -0.130469
6.8 -0.318462
6.81 -0.465923
6.82 -0.57462
6.83 -0.646338
6.84 -0.688911
6.85 -0.702964
6.86 -0.697401
6.87 -0.675521
6.88 -0.642711
6.89 -0.603494
6.9 -0.561302
6.91 -0.519376
6.92 -0.480075
6.93 -0.444768
6.94 -0.414267
6.95 -0.389109
6.96 -0.36853
6.97 -0.352694
6.98 -0.340263
6.99 -0.330799
7 -0.323562
7.01 -0.318003
7.02 -0.314082
7.03 -0.311635
7.04 -0.311205
7.05 -0.313244
7.06 -0.318488
7.07 -0.328063
7.08 -0.342279
7.09 -0.362757
7.1 -0.389221
7.11 -0.422435
7.12 -0.462269
7.13 -0.507982
7.14 -0.55942
7.15 -0.614722
7.16 -0.672888
7.17 -0.731967
7.18 -0.790294
7.19 -0.845808
7.2 -0.897265
7.21 -0.942301
7.22 -0.980582
7.23 -1.01078
7.24 -1.03259
7.25 -1.04656
7.26 -1.0523
7.27 -1.05183
7.28 -1.04568
7.29 -1.03585
7.3 -1.02386
7.31 -1.0114
7.32 -0.999899
7.33 -0.990894
7.34 -0.984915
7.35 -0.982586
7.36 -0.983734
7.37 -0.987564
7.38 -0.993044
7.39 -0.99834
7.4 -1.00124
7.41 -0.999429
7.42 -0.990461
7.43 -0.971071
7.44 -0.940187
7.45 -0.893529
7.46 -0.831526
7.47 -0.751887
7.48 -0.654339
7.49 -0.540163
7.5 -0.408429
7.51 -0.263227
7.52 -0.105407
7.53 0.0608627
7.54 0.232305
7.55 0.404812
7.56 0.574526
7.57 0.736304
7.58 0.887172
7.59 1.02265
7.6 1.13931
7.61 1.23575
7.62 1.30697
7.63 1.35505
7.64 1.37634
7.65 1.37288
7.66 1.34518
7.67 1.29347
7.68 1.22215
7.69 1.13077
7.7 1.02486
7.71 0.906274
7.72 0.778706
7.73 0.645685
7.74 0.510268
7.75 0.375784
7.76 0.245413
7.77 0.121663
7.78 0.00681287
7.79 -0.0963534
7.8 -0.187586
7.81 -0.263482
7.82 -0.325174
7.83 -0.371072
7.84 -0.40122
7.85 -0.416786
7.86 -0.416641
7.87 -0.403891
7.88 -0.37833
7.89 -0.342633
7.9 -0.298541
7.91 -0.248005
7.92 -0.193856
7.93 -0.138277
7.94 -0.0839715
7.95 -0.0334366
7.96 0.0108121
7.97 0.0471997
7.98 0.0725865
7.99 0.0870611
8 0.0881477
8.01 0.076238
8.02 0.0512047
8.03 0.0128399
8.04 -0.0365024
8.05 -0.0969632
8.06 -0.165201
8.07 -0.239692
8.08 -0.317782
8.09 -0.397017
8.1 -0.474762
8.11 -0.549072
8.12 -0.617478
8.13 -0.678774
8.14 -0.731897
8.15 -0.775755
8.16 -0.811346
8.17 -0.837912
8.18 -0.857651
8.19 -0.871398
8.2 -0.881029
8.21 -0.888429
8.22 -0.89536
8.23 -0.90342
8.24 -0.914066
8.25 -0.927931
8.26 -0.945209
8.27 -0.96554
8.28 -0.987483
8.29 -1.0091
8.3 -1.0278
8.31 -1.04021
8.32 -1.04241
8.33 -1.03148
8.34 -1.00115
8.35 -0.950448
8.36 -0.873277
8.37 -0.768661
8.38 -0.634658
8.39 -0.468556
8.4 -0.274098
8.41 -0.0483637
8.42 0.201772
8.43 0.474275
8.44 0.763382
8.45 1.06258
8.46 1.36531
8.47 1.66404
8.48 1.95036
8.49 2.21721
8.5 2.45775
8.51 2.66305
8.52 2.8318
8.53 2.95295
8.54 3.02946
8.55 3.05618
8.56 3.03316
8.57 2.96442
8.58 2.84687
8.59 2.69089
8.6 2.4967
8.61 2.27316
8.62 2.02616
8.63 1.76201
8.64 1.48893
8.65 1.21314
8.66 0.941462
8.67 0.679838
8.68 0.433683
8.69 0.205801
8.7 0.00219719
8.71 -0.178472
8.72 -0.332219
8.73 -0.460865
8.74 -0.565047
8.75 -0.645065
8.76 -0.705564
8.77 -0.746358
8.78 -0.772969
8.79 -0.787331
8.8 -0.792876
8.81 -0.792795
8.82 -0.7894
8.83 -0.785352
8.84 -0.782525
8.85 -0.78235
8.86 -0.785765
8.87 -0.793614
8.88 -0.805554
8.89 -0.822035
8.9 -0.841992
8.91 -0.865021
8.92 -0.890212
8.93 -0.916633
8.94 -0.943444
8.95 -0.969813
8.96 -0.994956
8.97 -1.01837
8.98 -1.03967
8.99 -1.05845
9 -1.07494
9.01 -1.08883
9.02 -1.10062
9.03 -1.11042
9.04 -1.11857
9.05 -1.12542
9.06 -1.13111
9.07 -1.13595
9.08 -1.13989
9.09 -1.14294
9.1 -1.14487
9.11 -1.14522
9.12 -1.14369
9.13 -1.13927
9.14 -1.13161
9.15 -1.11971
9.16 -1.10274
9.17 -1.08033
9.18 -1.05101
9.19 -1.01526
9.2 -0.971956
9.21 -0.921546
9.22 -0.864208
9.23 -0.800084
9.24 -0.730661
9.25 -0.656321
9.26 -0.579086
9.27 -0.500307
9.28 -0.421942
9.29 -0.345682
9.3 -0.274028
9.31 -0.208143
9.32 -0.15055
9.33 -0.102272
9.34 -0.0644777
9.35 -0.0387805
9.36 -0.0242548
9.37 -0.0227096
9.38 -0.0320332
9.39 -0.0521612
9.4 -0.0816408
9.41 -0.11842
9.42 -0.161318
9.43 -0.207524
9.44 -0.255264
9.45 -0.302249
9.46 -0.346669
9.47 -0.386464
9.48 -0.420897
9.49 -0.448009
9.5 -0.468194
9.51 -0.480866
9.52 -0.486443
9.53 -0.486057
9.54 -0.480166
9.55 -0.470844
9.56 -0.459251
9.57 -0.447231
9.58 -0.43625
9.59 -0.427985
9.6 -0.423237
9.61 -0.423594
9.62 -0.428972
9.63 -0.439919
9.64 -0.456227
9.65 -0.477102
9.66 -0.502266
9.67 -0.530177
9.68 -0.560038
9.69 -0.590533
9.7 -0.620677
9.71 -0.649437
9.72 -0.67635
9.73 -0.700666
9.74 -0.722606
9.75 -0.742165
9.76 -0.759796
9.77 -0.776136
9.78 -0.791746
9.79 -0.807291
9.8 -0.823192
9.81 -0.839539
9.82 -0.856043
9.83 -0.871778
9.84 -0.885531
9.85 -0.894685
9.86 -0.897115
9.87 -0.88919
9.88 -0.866907
9.89 -0.827555
9.9 -0.764051
9.91 -0.675863
9.92 -0.556089
9.93 -0.403565
9.94 -0.216112
9.95 0.00990741
9.96 0.270231
9.97 0.568857
9.98 0.898125
9.99 1.25609
10 1.63651
10.01 2.0317
10.02 2.43455
10.03 2.83561
10.04 3.22513
10.05 3.59403
10.06 3.93374
10.07 4.23277
10.08 4.48866
10.09 4.68736
10.1 4.83114
10.11 4.91305
10.12 4.93178
10.13 4.89189
10.14 4.78799
10.15 4.63286
10.16 4.42585
10.17 4.1776
10.18 3.89533
10.19 3.5863
10.2 3.26142
10.21 2.92778
10.22 2.59475
10.23 2.2696
10.24 1.95946
10.25 1.66823
10.26 1.40324
10.27 1.16349
10.28 0.953578
10.29 0.771697
10.3 0.616928
10.31 0.488831
10.32 0.381929
10.33 0.295928
10.34 0.224557
10.35 0.16523
10.36 0.113964
10.37 0.0671944
10.38 0.0221712
10.39 -0.0236525
10.4 -0.0722376
10.41 -0.12467
10.42 -0.181521
10.43 -0.243162
10.44 -0.3087
10.45 -0.377899
10.46 -0.44925
10.47 -0.521733
10.48 -0.593957
10.49 -0.664807
10.5 -0.732765
10.51 -0.797264
10.52 -0.857029
10.53 -0.911701
10.54 -0.960872
10.55 -1.00387
10.56 -1.04126
10.57 -1.07212
10.58 -1.09729
10.59 -1.11647
10.6 -1.12974
10.61 -1.13757
10.62 -1.13924
10.63 -1.13567
10.64 -1.12622
10.65 -1.11134
10.66 -1.09114
10.67 -1.06547
10.68 -1.0352
10.69 -1.00007
10.7 -0.961267
10.71 -0.919236
10.72 -0.87494
10.73 -0.82944
10.74 -0.783853
10.75 -0.73933
10.76 -0.697242
10.77 -0.658673
10.78 -0.624641
10.79 -0.59654
10.8 -0.57443
10.81 -0.559915
10.82 -0.552406
10.83 -0.552474
10.84 -0.559951
10.85 -0.573998
10.86 -0.59485
10.87 -0.620818
10.88 -0.651606
10.89 -0.685863
10.9 -0.722625
10.91 -0.760912
10.92 -0.799662
10.93 -0.837956
10.94 -0.875064
10.95 -0.91028
10.96 -0.943042
10.97 -0.973179
10.98 -1.00005
10.99 -1.02399
11 -1.04463
11.01 -1.06228
11.02 -1.07708
11.03 -1.08907
11.04 -1.09881
11.05 -1.10626
11.06 -1.11202
11.07 -1.11631
11.08 -1.1195
11.09 -1.12198
11.1 -1.12407
11.11 -1.12613
11.12 -1.12846
11.13 -1.1313
11.14 -1.13478
11.15 -1.13896
11.16 -1.14365
11.17 -1.14856
11.18 -1.15309
11.19 -1.15642
11.2 -1.15735
11.21 -1.15482
11.22 -1.14646
11.23 -1.13128
11.24 -1.10635
11.25 -1.07001
11.26 -1.02026
11.27 -0.953826
11.28 -0.870871
11.29 -0.767042
11.3 -0.643783
11.31 -0.499276
11.32 -0.333643
11.33 -0.1491
11.34 0.0551269
11.35 0.273909
11.36 0.5057
11.37 0.745512
11.38 0.989057
11.39 1.23091
11.4 1.46633
11.41 1.68822
11.42 1.89274
11.43 2.07381
11.44 2.22636
11.45 2.3488
11.46 2.43333
11.47 2.48329
11.48 2.49344
11.49 2.46642
11.5 2.40352
11.51 2.30487
11.52 2.17753
11.53 2.02152
11.54 1.84514
11.55 1.65205
11.56 1.44813
11.57 1.23901
11.58 1.02991
11.59 0.825399
11.6 0.630314
11.61 0.447697
11.62 0.279941
11.63 0.130059
11.64 -0.00316214
11.65 -0.117045
11.66 -0.21467
11.67 -0.296298
11.68 -0.363952
11.69 -0.42062
11.7 -0.467534
11.71 -0.508438
11.72 -0.545
11.73 -0.579692
11.74 -0.614131
11.75 -0.64974
11.76 -0.687108
11.77 -0.7268
11.78 -0.76828
11.79 -0.810962
11.8 -0.853609
11.81 -0.894909
11.82 -0.932714
11.83 -0.965747
11.84 -0.991513
11.85 -1.00855
11.86 -1.01536
11.87 -1.00962
11.88 -0.991714
11.89 -0.958837
11.9 -0.912368
11.91 -0.851386
11.92 -0.77622
11.93 -0.688496
11.94 -0.587623
11.95 -0.476773
11.96 -0.35642
11.97 -0.22913
11.98 -0.0968722
11.99 0.0382006
12 0.173636
12.01 0.30685
12.02 0.435699
12.03 0.557645
12.04 0.670215
12.05 0.772178
12.06 0.859822
12.07 0.933586
12.08 0.990414
12.09 1.03028
12.1 1.05271
12.11 1.05623
12.12 1.04321
12.13 1.01182
12.14 0.965376
12.15 0.904389
12.16 0.830859
12.17 0.747634
12.18 0.656078
12.19 0.559812
12.2 0.460895
12.21 0.362135
12.22 0.265707
12.23 0.174119
12.24 0.0884064
12.25 0.0109439
12.26 -0.0584084
12.27 -0.118801
12.28 -0.170352
12.29 -0.214224
12.3 -0.250459
12.31 -0.28142
12.32 -0.308064
12.33 -0.332418
12.34 -0.35605
12.35 -0.380653
12.36 -0.40732
12.37 -0.437453
12.38 -0.471194
12.39 -0.508841
12.4 -0.549947
12.41 -0.593441
12.42 -0.638085
