# xPDFsuite Configuration #
[PDF]
wavelength = 0.1432
dataformat = twotheta
inputfile = 1_1Pd_CeO2_cycle-00216.chi
backgroundfile = background-00000.chi
mode = xray
bgscale = 1.007
composition = CeO2
outputtype = gr
qmaxinst = 28.8974762299
qmin = 0.5
qmax = 27.9
rmax = 50.0
rmin = 0.0
rstep = 0.01
rpoly = 1.8657

[Misc]
inputdir = G:/SankarDec16/1Pd/Chi
savedir = D:/DATA/APS_CeO2/1Pd
backgroundfilefull = G:/SankarDec16/Background/background-00000.chi

#### start data
#S 1
#L r($\AA$)  G($\AA^{-2}$)
0 0
0.01 -0.00674639
0.02 -0.0129837
0.03 -0.0181878
0.04 -0.021964
0.05 -0.024093
0.06 -0.0242223
0.07 -0.0225874
0.08 -0.0190762
0.09 -0.0141378
0.1 -0.00808394
0.11 -0.00139071
0.12 0.00542351
0.13 0.0117762
0.14 0.0172566
0.15 0.0213605
0.16 0.0237942
0.17 0.0244411
0.18 0.023063
0.19 0.0200074
0.2 0.0152906
0.21 0.00943731
0.22 0.00283571
0.23 -0.00397933
0.24 -0.0105207
0.25 -0.0161612
0.26 -0.020608
0.27 -0.0234021
0.28 -0.0243647
0.29 -0.0234885
0.3 -0.0206611
0.31 -0.0163251
0.32 -0.010625
0.33 -0.00413535
0.34 0.0026981
0.35 0.00930748
0.36 0.0152611
0.37 0.0199176
0.38 0.0231168
0.39 0.0244675
0.4 0.0239149
0.41 0.0215613
0.42 0.0174264
0.43 0.0120264
0.44 0.00562709
0.45 -0.00117493
0.46 -0.00789819
0.47 -0.0139694
0.48 -0.0190337
0.49 -0.0224673
0.5 -0.0242507
0.51 -0.02408
0.52 -0.0220276
0.53 -0.0183009
0.54 -0.0130511
0.55 -0.00684313
0.56 -5.11806e-05
0.57 0.00673495
0.58 0.013022
0.59 0.0182589
0.6 0.0221859
0.61 0.0242273
0.62 0.0245057
0.63 0.0228202
0.64 0.019367
0.65 0.014449
0.66 0.00834205
0.67 0.001632
0.68 -0.0052166
0.69 -0.0116496
0.7 -0.0171864
0.71 -0.0213254
0.72 -0.0239148
0.73 -0.0244556
0.74 -0.0232067
0.75 -0.0200795
0.76 -0.0153848
0.77 -0.00950503
0.78 -0.00282623
0.79 0.00407459
0.8 0.0106679
0.81 0.0164637
0.82 0.0210205
0.83 0.0239132
0.84 0.0251068
0.85 0.0242081
0.86 0.0215982
0.87 0.0173082
0.88 0.0117466
0.89 0.00535444
0.9 -0.00139276
0.91 -0.00796217
0.92 -0.0137923
0.93 -0.0184907
0.94 -0.0216884
0.95 -0.0230737
0.96 -0.02274
0.97 -0.0204477
0.98 -0.0166877
0.99 -0.0116353
1 -0.00579331
1.01 0.000350362
1.02 0.00622364
1.03 0.0113752
1.04 0.0152115
1.05 0.0174737
1.06 0.0178849
1.07 0.0162727
1.08 0.0128907
1.09 0.00768119
1.1 0.00127823
1.11 -0.00596119
1.12 -0.0133992
1.13 -0.0204652
1.14 -0.0264188
1.15 -0.0308666
1.16 -0.0330866
1.17 -0.0329177
1.18 -0.0301022
1.19 -0.0245166
1.2 -0.0165713
1.21 -0.00623005
1.22 0.00567115
1.23 0.0186892
1.24 0.0320415
1.25 0.0450365
1.26 0.0567931
1.27 0.0668196
1.28 0.0742353
1.29 0.0787902
1.3 0.0801006
1.31 0.0778864
1.32 0.0725239
1.33 0.0636971
1.34 0.0522807
1.35 0.0385001
1.36 0.0230619
1.37 0.00662956
1.38 -0.0101285
1.39 -0.0265441
1.4 -0.0419104
1.41 -0.0557619
1.42 -0.0676345
1.43 -0.0770847
1.44 -0.0841583
1.45 -0.0883213
1.46 -0.0900108
1.47 -0.089072
1.48 -0.0857619
1.49 -0.080375
1.5 -0.0729807
1.51 -0.0640934
1.52 -0.0538019
1.53 -0.0425167
1.54 -0.0304592
1.55 -0.0178843
1.56 -0.00506578
1.57 0.00775247
1.58 0.0203186
1.59 0.0323443
1.6 0.0435393
1.61 0.0536611
1.62 0.062236
1.63 0.0691627
1.64 0.0738837
1.65 0.0763074
1.66 0.0761491
1.67 0.0731313
1.68 0.0674742
1.69 0.0587601
1.7 0.0476011
1.71 0.0340384
1.72 0.0185851
1.73 0.00179703
1.74 -0.0157656
1.75 -0.0333635
1.76 -0.0502521
1.77 -0.0657839
1.78 -0.0793302
1.79 -0.0902365
1.8 -0.098426
1.81 -0.103189
1.82 -0.105023
1.83 -0.10383
1.84 -0.100113
1.85 -0.094488
1.86 -0.0875501
1.87 -0.0802208
1.88 -0.07334
1.89 -0.0677167
1.9 -0.0640842
1.91 -0.0631862
1.92 -0.0651198
1.93 -0.0705901
1.94 -0.079004
1.95 -0.0903249
1.96 -0.103851
1.97 -0.118766
1.98 -0.13412
1.99 -0.148835
2 -0.161628
2.01 -0.17153
2.02 -0.17752
2.03 -0.178524
2.04 -0.174492
2.05 -0.164151
2.06 -0.148371
2.07 -0.126845
2.08 -0.100263
2.09 -0.069491
2.1 -0.0350941
2.11 0.00151781
2.12 0.0395547
2.13 0.0778726
2.14 0.115665
2.15 0.152156
2.16 0.187072
2.17 0.219916
2.18 0.251063
2.19 0.280654
2.2 0.30928
2.21 0.33757
2.22 0.366291
2.23 0.396023
2.24 0.427501
2.25 0.460937
2.26 0.496457
2.27 0.533865
2.28 0.57243
2.29 0.611233
2.3 0.648941
2.31 0.683877
2.32 0.714194
2.33 0.738366
2.34 0.753613
2.35 0.759498
2.36 0.753248
2.37 0.734906
2.38 0.703693
2.39 0.659177
2.4 0.603295
2.41 0.535537
2.42 0.459458
2.43 0.376526
2.44 0.289802
2.45 0.202096
2.46 0.116684
2.47 0.0359687
2.48 -0.0366505
2.49 -0.0996329
2.5 -0.1512
2.51 -0.189796
2.52 -0.216464
2.53 -0.229622
2.54 -0.232332
2.55 -0.225256
2.56 -0.210991
2.57 -0.192131
2.58 -0.171216
2.59 -0.151016
2.6 -0.134245
2.61 -0.12279
2.62 -0.118317
2.63 -0.122261
2.64 -0.134129
2.65 -0.154982
2.66 -0.182618
2.67 -0.216267
2.68 -0.253762
2.69 -0.292977
2.7 -0.331527
2.71 -0.367426
2.72 -0.398231
2.73 -0.422745
2.74 -0.439798
2.75 -0.44853
2.76 -0.449886
2.77 -0.443435
2.78 -0.43159
2.79 -0.415552
2.8 -0.397643
2.81 -0.379967
2.82 -0.365056
2.83 -0.35444
2.84 -0.350448
2.85 -0.353698
2.86 -0.364895
2.87 -0.384276
2.88 -0.41036
2.89 -0.442769
2.9 -0.478743
2.91 -0.516425
2.92 -0.553129
2.93 -0.586633
2.94 -0.613931
2.95 -0.633965
2.96 -0.644191
2.97 -0.644594
2.98 -0.634825
2.99 -0.615139
3 -0.587723
3.01 -0.553483
3.02 -0.51584
3.03 -0.477203
3.04 -0.440733
3.05 -0.408917
3.06 -0.385174
3.07 -0.370386
3.08 -0.367255
3.09 -0.375432
3.1 -0.395008
3.11 -0.425347
3.12 -0.463785
3.13 -0.50897
3.14 -0.557088
3.15 -0.605354
3.16 -0.650376
3.17 -0.68962
3.18 -0.719592
3.19 -0.739758
3.2 -0.747673
3.21 -0.744237
3.22 -0.729917
3.23 -0.706096
3.24 -0.67592
3.25 -0.641788
3.26 -0.607684
3.27 -0.577117
3.28 -0.553706
3.29 -0.539903
3.3 -0.539511
3.31 -0.55221
3.32 -0.580307
3.33 -0.621878
3.34 -0.675661
3.35 -0.739236
3.36 -0.808496
3.37 -0.879765
3.38 -0.948422
3.39 -1.00995
3.4 -1.06019
3.41 -1.09658
3.42 -1.11476
3.43 -1.11591
3.44 -1.09773
3.45 -1.06328
3.46 -1.01467
3.47 -0.955471
3.48 -0.890892
3.49 -0.82591
3.5 -0.765837
3.51 -0.716036
3.52 -0.680892
3.53 -0.662635
3.54 -0.665105
3.55 -0.685494
3.56 -0.72406
3.57 -0.775049
3.58 -0.833113
3.59 -0.890049
3.6 -0.937901
3.61 -0.9638
3.62 -0.960723
3.63 -0.916197
3.64 -0.821351
3.65 -0.671531
3.66 -0.454114
3.67 -0.175116
3.68 0.173866
3.69 0.58373
3.7 1.0499
3.71 1.56452
3.72 2.11182
3.73 2.68093
3.74 3.25272
3.75 3.81057
3.76 4.33591
3.77 4.8147
3.78 5.22361
3.79 5.55878
3.8 5.79852
3.81 5.94261
3.82 5.98484
3.83 5.91983
3.84 5.76118
3.85 5.50022
3.86 5.16108
3.87 4.74862
3.88 4.27996
3.89 3.77206
3.9 3.23916
3.91 2.69995
3.92 2.16995
3.93 1.66301
3.94 1.19101
3.95 0.766309
3.96 0.390421
3.97 0.0765534
3.98 -0.182638
3.99 -0.383231
4 -0.530143
4.01 -0.630683
4.02 -0.687163
4.03 -0.712615
4.04 -0.711394
4.05 -0.694076
4.06 -0.667423
4.07 -0.63842
4.08 -0.612255
4.09 -0.594133
4.1 -0.585564
4.11 -0.588623
4.12 -0.60298
4.13 -0.626993
4.14 -0.659338
4.15 -0.69628
4.16 -0.735112
4.17 -0.772311
4.18 -0.804958
4.19 -0.829861
4.2 -0.845897
4.21 -0.849869
4.22 -0.842721
4.23 -0.823363
4.24 -0.792621
4.25 -0.751977
4.26 -0.701888
4.27 -0.645143
4.28 -0.58264
4.29 -0.51655
4.3 -0.448158
4.31 -0.378658
4.32 -0.308923
4.33 -0.239491
4.34 -0.170512
4.35 -0.101975
4.36 -0.0336459
4.37 0.034728
4.38 0.103399
4.39 0.172389
4.4 0.241555
4.41 0.310381
4.42 0.378094
4.43 0.443363
4.44 0.505139
4.45 0.560909
4.46 0.609709
4.47 0.649102
4.48 0.677396
4.49 0.69374
4.5 0.695395
4.51 0.683612
4.52 0.656382
4.53 0.615353
4.54 0.561141
4.55 0.494755
4.56 0.419188
4.57 0.335494
4.58 0.247339
4.59 0.156907
4.6 0.0670591
4.61 -0.0200175
4.62 -0.101562
4.63 -0.176675
4.64 -0.243197
4.65 -0.301092
4.66 -0.350033
4.67 -0.389954
4.68 -0.422477
4.69 -0.447621
4.7 -0.467785
4.71 -0.48399
4.72 -0.497946
4.73 -0.511047
4.74 -0.524575
4.75 -0.539353
4.76 -0.556173
4.77 -0.575121
4.78 -0.596136
4.79 -0.618855
4.8 -0.642498
4.81 -0.666257
4.82 -0.689184
4.83 -0.710291
4.84 -0.7287
4.85 -0.743925
4.86 -0.755074
4.87 -0.762513
4.88 -0.765857
4.89 -0.765829
4.9 -0.762951
4.91 -0.757987
4.92 -0.751991
4.93 -0.745902
4.94 -0.740673
4.95 -0.737202
4.96 -0.736185
4.97 -0.737918
4.98 -0.742978
4.99 -0.750888
5 -0.761738
5.01 -0.774794
5.02 -0.789496
5.03 -0.805117
5.04 -0.82088
5.05 -0.835997
5.06 -0.849942
5.07 -0.862145
5.08 -0.872301
5.09 -0.880385
5.1 -0.886172
5.11 -0.890104
5.12 -0.892158
5.13 -0.892713
5.14 -0.891882
5.15 -0.889601
5.16 -0.885841
5.17 -0.87982
5.18 -0.87109
5.19 -0.858374
5.2 -0.840302
5.21 -0.815732
5.22 -0.781959
5.23 -0.73858
5.24 -0.68263
5.25 -0.613691
5.26 -0.530618
5.27 -0.432179
5.28 -0.320098
5.29 -0.193033
5.3 -0.054654
5.31 0.0937206
5.32 0.248595
5.33 0.40628
5.34 0.562314
5.35 0.712618
5.36 0.851533
5.37 0.975189
5.38 1.07932
5.39 1.15875
5.4 1.21332
5.41 1.23638
5.42 1.23115
5.43 1.19511
5.44 1.12991
5.45 1.03893
5.46 0.92256
5.47 0.787872
5.48 0.637197
5.49 0.476974
5.5 0.311883
5.51 0.147356
5.52 -0.0123393
5.53 -0.161522
5.54 -0.29806
5.55 -0.418163
5.56 -0.520074
5.57 -0.603859
5.58 -0.667267
5.59 -0.713762
5.6 -0.742684
5.61 -0.757567
5.62 -0.76048
5.63 -0.75374
5.64 -0.740715
5.65 -0.723103
5.66 -0.703613
5.67 -0.683673
5.68 -0.664489
5.69 -0.646531
5.7 -0.629964
5.71 -0.614148
5.72 -0.598268
5.73 -0.581136
5.74 -0.561532
5.75 -0.537925
5.76 -0.509736
5.77 -0.475272
5.78 -0.434977
5.79 -0.388404
5.8 -0.33625
5.81 -0.279756
5.82 -0.220114
5.83 -0.15954
5.84 -0.100175
5.85 -0.0443284
5.86 0.00578382
5.87 0.0474549
5.88 0.0798719
5.89 0.0998002
5.9 0.107966
5.91 0.102945
5.92 0.0850945
5.93 0.0557155
5.94 0.0147781
5.95 -0.0346169
5.96 -0.09153
5.97 -0.153128
5.98 -0.217402
5.99 -0.282107
6 -0.34545
6.01 -0.405364
6.02 -0.461093
6.03 -0.511516
6.04 -0.556347
6.05 -0.595967
6.06 -0.63028
6.07 -0.660748
6.08 -0.687909
6.09 -0.713168
6.1 -0.737522
6.11 -0.762008
6.12 -0.787303
6.13 -0.814089
6.14 -0.842318
6.15 -0.871933
6.16 -0.902379
6.17 -0.932923
6.18 -0.962488
6.19 -0.990203
6.2 -1.01473
6.21 -1.03534
6.22 -1.0513
6.23 -1.06188
6.24 -1.06755
6.25 -1.06783
6.26 -1.06407
6.27 -1.05686
6.28 -1.04753
6.29 -1.03735
6.3 -1.02764
6.31 -1.01934
6.32 -1.01337
6.33 -1.00977
6.34 -1.00819
6.35 -1.00745
6.36 -1.00574
6.37 -0.999842
6.38 -0.986901
6.39 -0.962369
6.4 -0.921533
6.41 -0.860961
6.42 -0.772784
6.43 -0.656485
6.44 -0.50436
6.45 -0.31605
6.46 -0.0893732
6.47 0.17824
6.48 0.481497
6.49 0.823284
6.5 1.194
6.51 1.59019
6.52 2.00337
6.53 2.42469
6.54 2.84399
6.55 3.25165
6.56 3.63505
6.57 3.98511
6.58 4.29215
6.59 4.54397
6.6 4.73963
6.61 4.86322
6.62 4.92064
6.63 4.90474
6.64 4.81699
6.65 4.66367
6.66 4.44194
6.67 4.16721
6.68 3.84107
6.69 3.47721
6.7 3.08478
6.71 2.67416
6.72 2.25696
6.73 1.84374
6.74 1.44348
6.75 1.06546
6.76 0.717081
6.77 0.4018
6.78 0.128286
6.79 -0.106925
6.8 -0.298171
6.81 -0.449658
6.82 -0.562953
6.83 -0.639598
6.84 -0.687171
6.85 -0.706043
6.86 -0.704934
6.87 -0.686941
6.88 -0.657313
6.89 -0.620532
6.9 -0.579889
6.91 -0.538751
6.92 -0.499429
6.93 -0.46344
6.94 -0.431692
6.95 -0.404834
6.96 -0.382277
6.97 -0.364286
6.98 -0.349673
6.99 -0.338101
7 -0.328923
7.01 -0.321634
7.02 -0.316258
7.03 -0.312602
7.04 -0.311228
7.05 -0.312534
7.06 -0.317216
7.07 -0.326354
7.08 -0.340198
7.09 -0.360331
7.1 -0.386437
7.11 -0.419259
7.12 -0.458662
7.13 -0.503915
7.14 -0.554888
7.15 -0.609758
7.16 -0.667573
7.17 -0.726428
7.18 -0.7847
7.19 -0.840386
7.2 -0.892239
7.21 -0.937949
7.22 -0.977139
7.23 -1.00848
7.24 -1.0316
7.25 -1.04698
7.26 -1.05417
7.27 -1.05509
7.28 -1.05016
7.29 -1.0413
7.3 -1.02993
7.31 -1.01766
7.32 -1.00589
7.33 -0.996058
7.34 -0.988754
7.35 -0.984584
7.36 -0.983435
7.37 -0.984605
7.38 -0.987133
7.39 -0.98934
7.4 -0.989144
7.41 -0.984371
7.42 -0.972725
7.43 -0.951111
7.44 -0.918525
7.45 -0.870896
7.46 -0.808638
7.47 -0.729572
7.48 -0.633436
7.49 -0.52145
7.5 -0.392728
7.51 -0.251169
7.52 -0.0975841
7.53 0.0640517
7.54 0.23061
7.55 0.398167
7.56 0.563042
7.57 0.720321
7.58 0.867166
7.59 0.999288
7.6 1.11342
7.61 1.20822
7.62 1.27887
7.63 1.32737
7.64 1.35019
7.65 1.34926
7.66 1.32503
7.67 1.27764
7.68 1.21127
7.69 1.12539
7.7 1.02521
7.71 0.912431
7.72 0.790482
7.73 0.662701
7.74 0.531849
7.75 0.401158
7.76 0.273535
7.77 0.151428
7.78 0.0370208
7.79 -0.0670152
7.8 -0.16028
7.81 -0.239493
7.82 -0.305504
7.83 -0.356643
7.84 -0.392728
7.85 -0.414672
7.86 -0.421101
7.87 -0.414835
7.88 -0.395366
7.89 -0.36512
7.9 -0.325602
7.91 -0.278477
7.92 -0.226551
7.93 -0.171684
7.94 -0.116722
7.95 -0.0640619
7.96 -0.016309
7.97 0.0247648
7.98 0.0559616
7.99 0.0769956
8 0.0852076
8.01 0.0806405
8.02 0.0628829
8.03 0.0313832
8.04 -0.0117204
8.05 -0.0669615
8.06 -0.13108
8.07 -0.2028
8.08 -0.279567
8.09 -0.358886
8.1 -0.438279
8.11 -0.515511
8.12 -0.588129
8.13 -0.654637
8.14 -0.713766
8.15 -0.764179
8.16 -0.806567
8.17 -0.839901
8.18 -0.866115
8.19 -0.885788
8.2 -0.900569
8.21 -0.912235
8.22 -0.922293
8.23 -0.932427
8.24 -0.943938
8.25 -0.957576
8.26 -0.973596
8.27 -0.991706
8.28 -1.0107
8.29 -1.02871
8.3 -1.0434
8.31 -1.05156
8.32 -1.04946
8.33 -1.03431
8.34 -1.00003
8.35 -0.945724
8.36 -0.865426
8.37 -0.758185
8.38 -0.622091
8.39 -0.454467
8.4 -0.258976
8.41 -0.0327354
8.42 0.2175
8.43 0.489721
8.44 0.778233
8.45 1.07659
8.46 1.37828
8.47 1.67582
8.48 1.96082
8.49 2.22626
8.5 2.46531
8.51 2.66904
8.52 2.83615
8.53 2.95557
8.54 3.03026
8.55 3.05509
8.56 3.03009
8.57 2.95932
8.58 2.83971
8.59 2.68165
8.6 2.48546
8.61 2.26
8.62 2.01125
8.63 1.74557
8.64 1.47124
8.65 1.19458
8.66 0.922386
8.67 0.660687
8.68 0.414911
8.69 0.187842
8.7 -0.0144765
8.71 -0.193479
8.72 -0.345178
8.73 -0.471487
8.74 -0.573112
8.75 -0.65043
8.76 -0.70818
8.77 -0.746269
8.78 -0.770298
8.79 -0.782281
8.8 -0.785724
8.81 -0.783845
8.82 -0.779041
8.83 -0.773936
8.84 -0.770454
8.85 -0.769981
8.86 -0.773435
8.87 -0.781632
8.88 -0.794153
8.89 -0.811423
8.9 -0.832294
8.91 -0.856316
8.92 -0.882519
8.93 -0.909931
8.94 -0.937661
8.95 -0.964863
8.96 -0.990721
8.97 -1.01473
8.98 -1.03651
8.99 -1.05567
9 -1.07245
9.01 -1.08655
9.02 -1.09853
9.03 -1.1085
9.04 -1.11683
9.05 -1.12391
9.06 -1.12987
9.07 -1.13504
9.08 -1.1394
9.09 -1.14293
9.1 -1.1454
9.11 -1.14634
9.12 -1.14542
9.13 -1.14161
9.14 -1.13454
9.15 -1.12317
9.16 -1.10665
9.17 -1.08459
9.18 -1.05548
9.19 -1.01979
9.2 -0.976362
9.21 -0.92565
9.22 -0.867822
9.23 -0.803009
9.24 -0.732721
9.25 -0.657329
9.26 -0.578892
9.27 -0.498774
9.28 -0.418964
9.29 -0.341191
9.3 -0.26799
9.31 -0.200569
9.32 -0.141502
9.33 -0.0918587
9.34 -0.052856
9.35 -0.0261744
9.36 -0.0109085
9.37 -0.00895888
9.38 -0.018212
9.39 -0.0386602
9.4 -0.0688742
9.41 -0.106787
9.42 -0.15127
9.43 -0.199433
9.44 -0.249513
9.45 -0.299143
9.46 -0.346452
9.47 -0.389301
9.48 -0.426849
9.49 -0.457027
9.5 -0.48012
9.51 -0.495418
9.52 -0.503217
9.53 -0.504576
9.54 -0.499783
9.55 -0.490928
9.56 -0.47904
9.57 -0.465989
9.58 -0.453245
9.59 -0.44248
9.6 -0.434643
9.61 -0.43134
9.62 -0.432693
9.63 -0.439376
9.64 -0.451368
9.65 -0.468048
9.66 -0.489367
9.67 -0.51391
9.68 -0.54111
9.69 -0.569751
9.7 -0.598951
9.71 -0.627812
9.72 -0.65578
9.73 -0.682233
9.74 -0.707184
9.75 -0.730577
9.76 -0.752686
9.77 -0.773932
9.78 -0.794674
9.79 -0.815318
9.8 -0.836024
9.81 -0.856651
9.82 -0.876703
9.83 -0.894995
9.84 -0.910288
9.85 -0.91969
9.86 -0.921201
9.87 -0.911122
9.88 -0.885541
9.89 -0.841944
9.9 -0.773334
9.91 -0.679517
9.92 -0.553798
9.93 -0.395328
9.94 -0.202193
9.95 0.0289213
9.96 0.293591
9.97 0.59546
9.98 0.926847
9.99 1.28563
10 1.66553
10.01 2.05897
10.02 2.45879
10.03 2.85586
10.04 3.24051
10.05 3.60398
10.06 3.93796
10.07 4.23123
10.08 4.4816
10.09 4.67533
10.1 4.81485
10.11 4.89342
10.12 4.90987
10.13 4.86872
10.14 4.76473
10.15 4.61044
10.16 4.40521
10.17 4.1594
10.18 3.88005
10.19 3.5742
10.2 3.25251
10.21 2.9218
10.22 2.59126
10.23 2.26798
10.24 1.95894
10.25 1.66804
10.26 1.40248
10.27 1.16145
10.28 0.949547
10.29 0.765194
10.3 0.60765
10.31 0.476708
10.32 0.367113
10.33 0.278853
10.34 0.205816
10.35 0.145632
10.36 0.0944553
10.37 0.048733
10.38 0.00586271
10.39 -0.0369031
10.4 -0.081527
10.41 -0.129329
10.42 -0.181078
10.43 -0.237393
10.44 -0.297646
10.45 -0.361908
10.46 -0.428884
10.47 -0.497812
10.48 -0.5675
10.49 -0.636885
10.5 -0.704674
10.51 -0.770125
10.52 -0.832032
10.53 -0.889829
10.54 -0.942938
10.55 -0.990488
10.56 -1.03275
10.57 -1.06855
10.58 -1.09846
10.59 -1.12192
10.6 -1.13877
10.61 -1.14938
10.62 -1.1528
10.63 -1.15001
10.64 -1.14029
10.65 -1.12423
10.66 -1.10204
10.67 -1.0737
10.68 -1.04037
10.69 -1.00196
10.7 -0.959913
10.71 -0.914891
10.72 -0.868069
10.73 -0.820622
10.74 -0.77388
10.75 -0.728939
10.76 -0.687266
10.77 -0.649838
10.78 -0.617578
10.79 -0.591756
10.8 -0.572213
10.81 -0.560378
10.82 -0.555436
10.83 -0.557759
10.84 -0.566984
10.85 -0.58217
10.86 -0.603347
10.87 -0.628886
10.88 -0.658394
10.89 -0.69063
10.9 -0.724724
10.91 -0.759813
10.92 -0.795058
10.93 -0.829718
10.94 -0.863294
10.95 -0.895288
10.96 -0.925354
10.97 -0.953434
10.98 -0.979124
10.99 -1.00273
11 -1.02401
11.01 -1.04318
11.02 -1.06033
11.03 -1.07543
11.04 -1.0888
11.05 -1.10029
11.06 -1.11024
11.07 -1.11868
11.08 -1.12575
11.09 -1.13171
11.1 -1.13663
11.11 -1.14084
11.12 -1.14448
11.13 -1.14782
11.14 -1.15098
11.15 -1.15406
11.16 -1.15703
11.17 -1.15965
11.18 -1.16154
11.19 -1.16203
11.2 -1.1601
11.21 -1.15485
11.22 -1.14408
11.23 -1.12691
11.24 -1.10052
11.25 -1.06329
11.26 -1.01323
11.27 -0.947094
11.28 -0.864923
11.29 -0.762346
11.3 -0.640637
11.31 -0.497875
11.32 -0.334032
11.33 -0.151196
11.34 0.0515646
11.35 0.269195
11.36 0.500279
11.37 0.739859
11.38 0.983674
11.39 1.22632
11.4 1.46297
11.41 1.68648
11.42 1.89289
11.43 2.07602
11.44 2.23062
11.45 2.355
11.46 2.44116
11.47 2.49236
11.48 2.5032
11.49 2.47626
11.5 2.41279
11.51 2.31284
11.52 2.18357
11.53 2.02497
11.54 1.84551
11.55 1.64893
11.56 1.4413
11.57 1.22841
11.58 1.01567
11.59 0.80784
11.6 0.609955
11.61 0.4252
11.62 0.256094
11.63 0.105818
11.64 -0.0268935
11.65 -0.139203
11.66 -0.234355
11.67 -0.312628
11.68 -0.376182
11.69 -0.428206
11.7 -0.470082
11.71 -0.505827
11.72 -0.537331
11.73 -0.567311
11.74 -0.597589
11.75 -0.629855
11.76 -0.664755
11.77 -0.703129
11.78 -0.744371
11.79 -0.787975
11.8 -0.83266
11.81 -0.876941
11.82 -0.918624
11.83 -0.956112
11.84 -0.986737
11.85 -1.00874
11.86 -1.02037
11.87 -1.01899
11.88 -1.00481
11.89 -0.974717
11.9 -0.930027
11.91 -0.869658
11.92 -0.793889
11.93 -0.704457
11.94 -0.600715
11.95 -0.486146
11.96 -0.361332
11.97 -0.22915
11.98 -0.0918256
11.99 0.0481754
12 0.188156
12.01 0.325181
12.02 0.456967
12.03 0.580752
12.04 0.693933
12.05 0.795325
12.06 0.881073
12.07 0.951895
12.08 1.00477
12.09 1.03996
12.1 1.05722
12.11 1.05538
12.12 1.03709
12.13 1.00084
12.14 0.950169
12.15 0.885826
12.16 0.809997
12.17 0.725546
12.18 0.634027
12.19 0.538848
12.2 0.442086
12.21 0.346314
12.22 0.253505
12.23 0.16594
12.24 0.0843693
12.25 0.0108974
12.26 -0.0548428
12.27 -0.112228
12.28 -0.161558
12.29 -0.204039
12.3 -0.239884
12.31 -0.271298
12.32 -0.299258
12.33 -0.325595
12.34 -0.351709
12.35 -0.379091
12.36 -0.408593
12.37 -0.441379
12.38 -0.477399
12.39 -0.516761
12.4 -0.55887
12.41 -0.602636
12.42 -0.646689
