# xPDFsuite Configuration #
[PDF]
wavelength = 0.1432
dataformat = twotheta
inputfile = 1_1Pd_CeO2_cycle-00046.chi
backgroundfile = background-00000.chi
mode = xray
bgscale = 1.007
composition = CeO2
outputtype = gr
qmaxinst = 28.8974762299
qmin = 0.5
qmax = 27.9
rmax = 50.0
rmin = 0.0
rstep = 0.01
rpoly = 1.8657

[Misc]
inputdir = G:/SankarDec16/1Pd/Chi
savedir = D:/DATA/APS_CeO2/1Pd
backgroundfilefull = G:/SankarDec16/Background/background-00000.chi

#### start data
#S 1
#L r($\AA$)  G($\AA^{-2}$)
0 0
0.01 -0.00580958
0.02 -0.0111806
0.03 -0.0156617
0.04 -0.0189129
0.05 -0.0207453
0.06 -0.0208553
0.07 -0.019446
0.08 -0.0164208
0.09 -0.0121668
0.1 -0.00695238
0.11 -0.0011879
0.12 0.00468021
0.13 0.0101502
0.14 0.0148682
0.15 0.0184003
0.16 0.0204934
0.17 0.0210477
0.18 0.019858
0.19 0.017224
0.2 0.0131601
0.21 0.00811823
0.22 0.00243297
0.23 -0.00343488
0.24 -0.00906598
0.25 -0.01392
0.26 -0.0177453
0.27 -0.0201468
0.28 -0.0209709
0.29 -0.0202116
0.3 -0.0177727
0.31 -0.0140358
0.32 -0.00912562
0.33 -0.00353709
0.34 0.00234576
0.35 0.00803396
0.36 0.0131561
0.37 0.0171601
0.38 0.0199086
0.39 0.0210652
0.4 0.0205835
0.41 0.0185521
0.42 0.0149885
0.43 0.0103375
0.44 0.00482843
0.45 -0.0010251
0.46 -0.00680863
0.47 -0.0120288
0.48 -0.0163808
0.49 -0.0193279
0.5 -0.0208543
0.51 -0.0206992
0.52 -0.0189255
0.53 -0.0157127
0.54 -0.0111913
0.55 -0.00584791
0.56 -4.9758e-06
0.57 0.00583024
0.58 0.0112334
0.59 0.015731
0.6 0.0191001
0.61 0.0208463
0.62 0.0210759
0.63 0.0196172
0.64 0.0166399
0.65 0.012405
0.66 0.00715083
0.67 0.00138114
0.68 -0.00450403
0.69 -0.0100287
0.7 -0.0147799
0.71 -0.0183269
0.72 -0.0205405
0.73 -0.0209924
0.74 -0.0199062
0.75 -0.0172071
0.76 -0.013163
0.77 -0.00810316
0.78 -0.00236028
0.79 0.00357002
0.8 0.00923238
0.81 0.0142064
0.82 0.0181131
0.83 0.0205883
0.84 0.0216026
0.85 0.0208192
0.86 0.0185663
0.87 0.0148709
0.88 0.0100845
0.89 0.00458576
0.9 -0.00121739
0.91 -0.00686809
0.92 -0.0118853
0.93 -0.0159333
0.94 -0.0186966
0.95 -0.019909
0.96 -0.0196514
0.97 -0.0177196
0.98 -0.0145344
0.99 -0.0102461
1 -0.00528457
1.01 -6.65164e-05
1.02 0.00492043
1.03 0.00929248
1.04 0.0125459
1.05 0.0144628
1.06 0.0148113
1.07 0.0134498
1.08 0.0105978
1.09 0.00621549
1.1 0.000844384
1.11 -0.00520405
1.12 -0.0113838
1.13 -0.0172083
1.14 -0.0220431
1.15 -0.0255607
1.16 -0.0271463
1.17 -0.0266737
1.18 -0.0239316
1.19 -0.0188279
1.2 -0.0117242
1.21 -0.00260866
1.22 0.00779598
1.23 0.0190935
1.24 0.0306039
1.25 0.0417297
1.26 0.0517008
1.27 0.0601047
1.28 0.0661751
1.29 0.0697097
1.3 0.0703836
1.31 0.0679643
1.32 0.0627926
1.33 0.0546052
1.34 0.0441749
1.35 0.0317101
1.36 0.0178363
1.37 0.00313786
1.38 -0.01179
1.39 -0.0263668
1.4 -0.0399652
1.41 -0.0521834
1.42 -0.0626154
1.43 -0.0708753
1.44 -0.077013
1.45 -0.0805618
1.46 -0.081919
1.47 -0.0809563
1.48 -0.0779109
1.49 -0.0730514
1.5 -0.0664515
1.51 -0.0585691
1.52 -0.0494946
1.53 -0.03959
1.54 -0.029053
1.55 -0.0181064
1.56 -0.00698013
1.57 0.00411919
1.58 0.014991
1.59 0.0254026
1.6 0.0351259
1.61 0.0439713
1.62 0.0515625
1.63 0.0578231
1.64 0.0623055
1.65 0.0649342
1.66 0.0654743
1.67 0.06369
1.68 0.059747
1.69 0.05328
1.7 0.0447675
1.71 0.034208
1.72 0.0219866
1.73 0.0085291
1.74 -0.00576389
1.75 -0.020295
1.76 -0.0345174
1.77 -0.0479038
1.78 -0.0599643
1.79 -0.070184
1.8 -0.0784661
1.81 -0.0842622
1.82 -0.0879062
1.83 -0.0893023
1.84 -0.0888003
1.85 -0.0868404
1.86 -0.0838416
1.87 -0.080482
1.88 -0.0773605
1.89 -0.0750711
1.9 -0.074141
1.91 -0.0750986
1.92 -0.0780134
1.93 -0.0833598
1.94 -0.0907045
1.95 -0.0999803
1.96 -0.11065
1.97 -0.122103
1.98 -0.133588
1.99 -0.144338
2 -0.153359
2.01 -0.159965
2.02 -0.1634
2.03 -0.162869
2.04 -0.158377
2.05 -0.148954
2.06 -0.135289
2.07 -0.117132
2.08 -0.0949837
2.09 -0.0694676
2.1 -0.0409147
2.11 -0.0103474
2.12 0.021798
2.13 0.0547406
2.14 0.0880137
2.15 0.121214
2.16 0.15416
2.17 0.186773
2.18 0.219242
2.19 0.251833
2.2 0.284954
2.21 0.318975
2.22 0.354456
2.23 0.391508
2.24 0.430514
2.25 0.471235
2.26 0.513407
2.27 0.556399
2.28 0.599308
2.29 0.640736
2.3 0.679467
2.31 0.713643
2.32 0.741542
2.33 0.761869
2.34 0.771988
2.35 0.771945
2.36 0.759268
2.37 0.734471
2.38 0.69716
2.39 0.647342
2.4 0.587165
2.41 0.516589
2.42 0.439113
2.43 0.356401
2.44 0.271432
2.45 0.186824
2.46 0.105745
2.47 0.0301579
2.48 -0.0367996
2.49 -0.0940233
2.5 -0.140088
2.51 -0.173842
2.52 -0.196539
2.53 -0.207022
2.54 -0.208323
2.55 -0.201295
2.56 -0.188474
2.57 -0.172295
2.58 -0.155225
2.59 -0.139649
2.6 -0.128076
2.61 -0.122019
2.62 -0.122851
2.63 -0.13168
2.64 -0.147827
2.65 -0.172026
2.66 -0.202085
2.67 -0.237092
2.68 -0.274924
2.69 -0.313575
2.7 -0.350713
2.71 -0.38463
2.72 -0.413016
2.73 -0.434927
2.74 -0.449367
2.75 -0.455658
2.76 -0.454838
2.77 -0.446603
2.78 -0.433327
2.79 -0.41621
2.8 -0.397481
2.81 -0.379129
2.82 -0.363554
2.83 -0.352154
2.84 -0.347119
2.85 -0.348996
2.86 -0.35844
2.87 -0.375684
2.88 -0.399348
2.89 -0.429151
2.9 -0.462542
2.91 -0.497882
2.92 -0.532746
2.93 -0.565117
2.94 -0.592332
2.95 -0.613376
2.96 -0.625987
2.97 -0.63008
2.98 -0.625292
2.99 -0.611771
3 -0.591367
3.01 -0.564749
3.02 -0.534848
3.03 -0.503636
3.04 -0.473765
3.05 -0.447331
3.06 -0.42713
3.07 -0.413952
3.08 -0.409974
3.09 -0.414938
3.1 -0.4289
3.11 -0.45132
3.12 -0.480053
3.13 -0.513963
3.14 -0.550023
3.15 -0.586009
3.16 -0.619275
3.17 -0.647891
3.18 -0.669223
3.19 -0.683002
3.2 -0.687547
3.21 -0.683776
3.22 -0.672319
3.23 -0.654584
3.24 -0.63314
3.25 -0.610313
3.26 -0.589113
3.27 -0.572487
3.28 -0.563176
3.29 -0.562879
3.3 -0.574434
3.31 -0.597057
3.32 -0.632165
3.33 -0.677653
3.34 -0.731974
3.35 -0.792545
3.36 -0.855788
3.37 -0.917956
3.38 -0.975428
3.39 -1.02419
3.4 -1.06096
3.41 -1.08398
3.42 -1.08985
3.43 -1.08031
3.44 -1.05398
3.45 -1.01418
3.46 -0.963396
3.47 -0.905407
3.48 -0.844989
3.49 -0.787258
3.5 -0.736591
3.51 -0.697927
3.52 -0.674822
3.53 -0.668757
3.54 -0.682709
3.55 -0.713296
3.56 -0.759968
3.57 -0.816685
3.58 -0.877793
3.59 -0.934888
3.6 -0.98042
3.61 -1.00145
3.62 -0.991778
3.63 -0.939362
3.64 -0.836081
3.65 -0.677944
3.66 -0.453106
3.67 -0.168028
3.68 0.185017
3.69 0.596775
3.7 1.06251
3.71 1.57433
3.72 2.11693
3.73 2.67964
3.74 3.24412
3.75 3.79434
3.76 4.3125
3.77 4.78521
3.78 5.18999
3.79 5.52324
3.8 5.76397
3.81 5.91191
3.82 5.96087
3.83 5.90532
3.84 5.75818
3.85 5.51039
3.86 5.18509
3.87 4.78632
3.88 4.33025
3.89 3.83308
3.9 3.30795
3.91 2.77334
3.92 2.24389
3.93 1.73358
3.94 1.25426
3.95 0.818461
3.96 0.428576
3.97 0.0981883
3.98 -0.178764
3.99 -0.39746
4 -0.561649
4.01 -0.677728
4.02 -0.746727
4.03 -0.781334
4.04 -0.784856
4.05 -0.767919
4.06 -0.737169
4.07 -0.699674
4.08 -0.661547
4.09 -0.628271
4.1 -0.60276
4.11 -0.587983
4.12 -0.584862
4.13 -0.592761
4.14 -0.611696
4.15 -0.638404
4.16 -0.671291
4.17 -0.706887
4.18 -0.742457
4.19 -0.774802
4.2 -0.80191
4.21 -0.820373
4.22 -0.829724
4.23 -0.828003
4.24 -0.814775
4.25 -0.790489
4.26 -0.754253
4.27 -0.708327
4.28 -0.652468
4.29 -0.588739
4.3 -0.518201
4.31 -0.442
4.32 -0.361867
4.33 -0.278496
4.34 -0.193433
4.35 -0.1075
4.36 -0.0217085
4.37 0.0631592
4.38 0.146031
4.39 0.226363
4.4 0.302878
4.41 0.374915
4.42 0.441451
4.43 0.501074
4.44 0.553552
4.45 0.596493
4.46 0.630284
4.47 0.653285
4.48 0.665014
4.49 0.665634
4.5 0.653691
4.51 0.631013
4.52 0.596697
4.53 0.552561
4.54 0.499479
4.55 0.438563
4.56 0.372033
4.57 0.300851
4.58 0.227383
4.59 0.153061
4.6 0.0795837
4.61 0.00815824
4.62 -0.0596858
4.63 -0.123622
4.64 -0.182556
4.65 -0.236638
4.66 -0.285802
4.67 -0.330104
4.68 -0.370442
4.69 -0.406776
4.7 -0.440275
4.71 -0.471267
4.72 -0.500371
4.73 -0.528055
4.74 -0.554459
4.75 -0.57985
4.76 -0.604037
4.77 -0.626918
4.78 -0.648189
4.79 -0.667377
4.8 -0.684369
4.81 -0.698424
4.82 -0.709727
4.83 -0.717939
4.84 -0.723193
4.85 -0.725852
4.86 -0.726083
4.87 -0.724746
4.88 -0.722354
4.89 -0.719782
4.9 -0.71775
4.91 -0.717094
4.92 -0.718229
4.93 -0.721984
4.94 -0.728253
4.95 -0.737293
4.96 -0.748845
4.97 -0.762413
4.98 -0.777557
4.99 -0.793371
5 -0.809087
5.01 -0.82386
5.02 -0.836957
5.03 -0.847599
5.04 -0.855643
5.05 -0.860411
5.06 -0.862409
5.07 -0.861684
5.08 -0.858854
5.09 -0.854657
5.1 -0.849851
5.11 -0.845296
5.12 -0.841805
5.13 -0.839877
5.14 -0.839812
5.15 -0.841629
5.16 -0.844707
5.17 -0.848212
5.18 -0.850722
5.19 -0.850413
5.2 -0.845062
5.21 -0.832802
5.22 -0.810035
5.23 -0.775919
5.24 -0.726714
5.25 -0.661834
5.26 -0.579924
5.27 -0.479619
5.28 -0.36313
5.29 -0.229084
5.3 -0.0819958
5.31 0.0763948
5.32 0.241873
5.33 0.410125
5.34 0.575967
5.35 0.734896
5.36 0.880628
5.37 1.0091
5.38 1.11586
5.39 1.19561
5.4 1.24853
5.41 1.26793
5.42 1.25768
5.43 1.21557
5.44 1.14379
5.45 1.04619
5.46 0.923682
5.47 0.78365
5.48 0.628855
5.49 0.465851
5.5 0.299423
5.51 0.135044
5.52 -0.0232971
5.53 -0.169979
5.54 -0.303332
5.55 -0.419843
5.56 -0.51816
5.57 -0.598666
5.58 -0.659502
5.59 -0.70427
5.6 -0.732587
5.61 -0.747967
5.62 -0.752466
5.63 -0.748313
5.64 -0.738585
5.65 -0.724789
5.66 -0.709246
5.67 -0.693069
5.68 -0.677121
5.69 -0.661635
5.7 -0.646417
5.71 -0.630834
5.72 -0.613851
5.73 -0.594415
5.74 -0.571402
5.75 -0.543449
5.76 -0.510321
5.77 -0.470588
5.78 -0.425084
5.79 -0.373704
5.8 -0.317487
5.81 -0.257882
5.82 -0.196436
5.83 -0.135305
5.84 -0.0768311
5.85 -0.0231473
5.86 0.0236497
5.87 0.061043
5.88 0.0885758
5.89 0.103276
5.9 0.106255
5.91 0.0964102
5.92 0.0744148
5.93 0.0417572
5.94 -0.00128637
5.95 -0.0516832
5.96 -0.108342
5.97 -0.168611
5.98 -0.230616
5.99 -0.292312
6 -0.352234
6.01 -0.408587
6.02 -0.460941
6.03 -0.508474
6.04 -0.551166
6.05 -0.589533
6.06 -0.623733
6.07 -0.655114
6.08 -0.684307
6.09 -0.712503
6.1 -0.740529
6.11 -0.76918
6.12 -0.798818
6.13 -0.829801
6.14 -0.861795
6.15 -0.894429
6.16 -0.926901
6.17 -0.958367
6.18 -0.987495
6.19 -1.01357
6.2 -1.03518
6.21 -1.05181
6.22 -1.06294
6.23 -1.06807
6.24 -1.06802
6.25 -1.06262
6.26 -1.05354
6.27 -1.04169
6.28 -1.02864
6.29 -1.01581
6.3 -1.00477
6.31 -0.996329
6.32 -0.991534
6.33 -0.9902
6.34 -0.991812
6.35 -0.994992
6.36 -0.997603
6.37 -0.996167
6.38 -0.987511
6.39 -0.966812
6.4 -0.929107
6.41 -0.870833
6.42 -0.783876
6.43 -0.667813
6.44 -0.514831
6.45 -0.324745
6.46 -0.0955005
6.47 0.17529
6.48 0.482057
6.49 0.82745
6.5 1.20159
6.51 1.60078
6.52 2.0163
6.53 2.43917
6.54 2.85899
6.55 3.26625
6.56 3.64818
6.57 3.99586
6.58 4.29972
6.59 4.54771
6.6 4.73917
6.61 4.85839
6.62 4.91153
6.63 4.8917
6.64 4.80061
6.65 4.6447
6.66 4.42138
6.67 4.14604
6.68 3.82044
6.69 3.45816
6.7 3.06831
6.71 2.66118
6.72 2.24815
6.73 1.83964
6.74 1.44435
6.75 1.07134
6.76 0.727748
6.77 0.416841
6.78 0.147001
6.79 -0.0853001
6.8 -0.274634
6.81 -0.425216
6.82 -0.538653
6.83 -0.616523
6.84 -0.666225
6.85 -0.688156
6.86 -0.690756
6.87 -0.676999
6.88 -0.651909
6.89 -0.619755
6.9 -0.583595
6.91 -0.54662
6.92 -0.510907
6.93 -0.477849
6.94 -0.448234
6.95 -0.422577
6.96 -0.400353
6.97 -0.381697
6.98 -0.365607
6.99 -0.351776
7 -0.339707
7.01 -0.329078
7.02 -0.320066
7.03 -0.312702
7.04 -0.307739
7.05 -0.305761
7.06 -0.307621
7.07 -0.31458
7.08 -0.32691
7.09 -0.346369
7.1 -0.372546
7.11 -0.406213
7.12 -0.447144
7.13 -0.494469
7.14 -0.54796
7.15 -0.605574
7.16 -0.666202
7.17 -0.727743
7.18 -0.788417
7.19 -0.846036
7.2 -0.899302
7.21 -0.945734
7.22 -0.985019
7.23 -1.01579
7.24 -1.03778
7.25 -1.0516
7.26 -1.0569
7.27 -1.05582
7.28 -1.04897
7.29 -1.03848
7.3 -1.02593
7.31 -1.01314
7.32 -1.00153
7.33 -0.992748
7.34 -0.987264
7.35 -0.9857
7.36 -0.98781
7.37 -0.992705
7.38 -0.999236
7.39 -1.00545
7.4 -1.00898
7.41 -1.0074
7.42 -0.99816
7.43 -0.97788
7.44 -0.945517
7.45 -0.896698
7.46 -0.831997
7.47 -0.749185
7.48 -0.648158
7.49 -0.530387
7.5 -0.395184
7.51 -0.246847
7.52 -0.0865189
7.53 0.0814505
7.54 0.253601
7.55 0.425618
7.56 0.593711
7.57 0.752552
7.58 0.899433
7.59 1.02995
7.6 1.14095
7.61 1.23136
7.62 1.29652
7.63 1.3389
7.64 1.35528
7.65 1.34804
7.66 1.318
7.67 1.26574
7.68 1.1956
7.69 1.1075
7.7 1.00657
7.71 0.89466
7.72 0.775083
7.73 0.650927
7.74 0.524802
7.75 0.399458
7.76 0.277471
7.77 0.160829
7.78 0.0513306
7.79 -0.0488067
7.8 -0.139358
7.81 -0.217493
7.82 -0.28397
7.83 -0.337249
7.84 -0.377017
7.85 -0.403902
7.86 -0.416338
7.87 -0.416624
7.88 -0.403867
7.89 -0.38
7.9 -0.346103
7.91 -0.303344
7.92 -0.25436
7.93 -0.200512
7.94 -0.144776
7.95 -0.0894198
7.96 -0.0372102
7.97 0.00974665
7.98 0.0480232
7.99 0.0767454
8 0.0928128
8.01 0.0957111
8.02 0.0845516
8.03 0.0582205
8.04 0.0186686
8.05 -0.0352045
8.06 -0.0999913
8.07 -0.174571
8.08 -0.256216
8.09 -0.34206
8.1 -0.42939
8.11 -0.515312
8.12 -0.596899
8.13 -0.672032
8.14 -0.738915
8.15 -0.795585
8.16 -0.842509
8.17 -0.878022
8.18 -0.904191
8.19 -0.921396
8.2 -0.931444
8.21 -0.936488
8.22 -0.938242
8.23 -0.939097
8.24 -0.94082
8.25 -0.944829
8.26 -0.951938
8.27 -0.962514
8.28 -0.975628
8.29 -0.990088
8.3 -1.00347
8.31 -1.01281
8.32 -1.01427
8.33 -1.00472
8.34 -0.977922
8.35 -0.932282
8.36 -0.861426
8.37 -0.763738
8.38 -0.636761
8.39 -0.47718
8.4 -0.288346
8.41 -0.0667271
8.42 0.180903
8.43 0.452796
8.44 0.743202
8.45 1.04539
8.46 1.35276
8.47 1.6572
8.48 1.95
8.49 2.22354
8.5 2.47051
8.51 2.68143
8.52 2.85472
8.53 2.97875
8.54 3.05649
8.55 3.08257
8.56 3.05708
8.57 2.98429
8.58 2.86122
8.59 2.69878
8.6 2.49753
8.61 2.26683
8.62 2.01302
8.63 1.7429
8.64 1.46493
8.65 1.18583
8.66 0.912377
8.67 0.650705
8.68 0.406154
8.69 0.181287
8.7 -0.017996
8.71 -0.193526
8.72 -0.341595
8.73 -0.464469
8.74 -0.563135
8.75 -0.638283
8.76 -0.694735
8.77 -0.732657
8.78 -0.757514
8.79 -0.771325
8.8 -0.777415
8.81 -0.778749
8.82 -0.777481
8.83 -0.775905
8.84 -0.775628
8.85 -0.777769
8.86 -0.783026
8.87 -0.791982
8.88 -0.804256
8.89 -0.820116
8.9 -0.838661
8.91 -0.859543
8.92 -0.882069
8.93 -0.905568
8.94 -0.929491
8.95 -0.953287
8.96 -0.976504
8.97 -0.998848
8.98 -1.02011
8.99 -1.04008
9 -1.05885
9.01 -1.0762
9.02 -1.09233
9.03 -1.10717
9.04 -1.12071
9.05 -1.13299
9.06 -1.14371
9.07 -1.15291
9.08 -1.16016
9.09 -1.16525
9.1 -1.16783
9.11 -1.16727
9.12 -1.16348
9.13 -1.1554
9.14 -1.14309
9.15 -1.12579
9.16 -1.10308
9.17 -1.07498
9.18 -1.04048
9.19 -1.00033
9.2 -0.953836
9.21 -0.901611
9.22 -0.843956
9.23 -0.781132
9.24 -0.714365
9.25 -0.644041
9.26 -0.571717
9.27 -0.498462
9.28 -0.425791
9.29 -0.355005
9.3 -0.288112
9.31 -0.226031
9.32 -0.17087
9.33 -0.123548
9.34 -0.0851532
9.35 -0.0572412
9.36 -0.039199
9.37 -0.0329076
9.38 -0.0367519
9.39 -0.0509997
9.4 -0.0746662
9.41 -0.106082
9.42 -0.144577
9.43 -0.187525
9.44 -0.23354
9.45 -0.280369
9.46 -0.326218
9.47 -0.369005
9.48 -0.40762
9.49 -0.439939
9.5 -0.465826
9.51 -0.484303
9.52 -0.495297
9.53 -0.499569
9.54 -0.497041
9.55 -0.489684
9.56 -0.478291
9.57 -0.464762
9.58 -0.450621
9.59 -0.437658
9.6 -0.427129
9.61 -0.4209
9.62 -0.419465
9.63 -0.423845
9.64 -0.434377
9.65 -0.450635
9.66 -0.472942
9.67 -0.499784
9.68 -0.530747
9.69 -0.564383
9.7 -0.599591
9.71 -0.635162
9.72 -0.670087
9.73 -0.703272
9.74 -0.734278
9.75 -0.762563
9.76 -0.787972
9.77 -0.810747
9.78 -0.830785
9.79 -0.848745
9.8 -0.864632
9.81 -0.878694
9.82 -0.890773
9.83 -0.900134
9.84 -0.906157
9.85 -0.906577
9.86 -0.899976
9.87 -0.883276
9.88 -0.853103
9.89 -0.807158
9.9 -0.739023
9.91 -0.648179
9.92 -0.528133
9.93 -0.37756
9.94 -0.194141
9.95 0.0259632
9.96 0.279082
9.97 0.56958
9.98 0.890489
9.99 1.24042
10 1.61374
10.01 2.00317
10.02 2.40224
10.03 2.8015
10.04 3.19158
10.05 3.56323
10.06 3.90773
10.07 4.21337
10.08 4.47711
10.09 4.68451
10.1 4.83719
10.11 4.92764
10.12 4.95398
10.13 4.92035
10.14 4.82077
10.15 4.66801
10.16 4.46108
10.17 4.21075
10.18 3.92441
10.19 3.60952
10.2 3.27753
10.21 2.93588
10.22 2.59455
10.23 2.26132
10.24 1.94386
10.25 1.64641
10.26 1.37685
10.27 1.1342
10.28 0.923349
10.29 0.742363
10.3 0.59019
10.31 0.466226
10.32 0.364516
10.33 0.284493
10.34 0.219356
10.35 0.166126
10.36 0.120387
10.37 0.0783107
10.38 0.036738
10.39 -0.0068549
10.4 -0.054632
10.41 -0.10753
10.42 -0.165978
10.43 -0.230166
10.44 -0.298828
10.45 -0.371458
10.46 -0.446174
10.47 -0.521651
10.48 -0.596208
10.49 -0.668593
10.5 -0.737037
10.51 -0.801096
10.52 -0.859439
10.53 -0.911927
10.54 -0.958353
10.55 -0.998308
10.56 -1.03266
10.57 -1.06083
10.58 -1.08391
10.59 -1.10182
10.6 -1.11486
10.61 -1.12349
10.62 -1.12715
10.63 -1.12648
10.64 -1.1208
10.65 -1.11022
10.66 -1.09456
10.67 -1.07333
10.68 -1.04709
10.69 -1.01518
10.7 -0.9786
10.71 -0.937549
10.72 -0.892864
10.73 -0.845683
10.74 -0.79704
10.75 -0.74845
10.76 -0.701432
10.77 -0.657473
10.78 -0.617941
10.79 -0.584658
10.8 -0.557997
10.81 -0.540037
10.82 -0.530326
10.83 -0.529702
10.84 -0.53809
10.85 -0.554525
10.86 -0.579303
10.87 -0.610298
10.88 -0.647029
10.89 -0.687689
10.9 -0.730928
10.91 -0.775294
10.92 -0.819402
10.93 -0.861825
10.94 -0.901702
10.95 -0.938052
10.96 -0.970227
10.97 -0.998196
10.98 -1.02125
10.99 -1.04019
11 -1.05482
11.01 -1.06592
11.02 -1.074
11.03 -1.07956
11.04 -1.08349
11.05 -1.08623
11.06 -1.0885
11.07 -1.09078
11.08 -1.09352
11.09 -1.09699
11.1 -1.10155
11.11 -1.10717
11.12 -1.11397
11.13 -1.12179
11.14 -1.13042
11.15 -1.13956
11.16 -1.14873
11.17 -1.15726
11.18 -1.16447
11.19 -1.16936
11.2 -1.17069
11.21 -1.16754
11.22 -1.15755
11.23 -1.14008
11.24 -1.11236
11.25 -1.07306
11.26 -1.02044
11.27 -0.951538
11.28 -0.866659
11.29 -0.761713
11.3 -0.638128
11.31 -0.494144
11.32 -0.329802
11.33 -0.147133
11.34 0.0547898
11.35 0.271135
11.36 0.500617
11.37 0.738516
11.38 0.980766
11.39 1.22219
11.4 1.45809
11.41 1.68152
11.42 1.8885
11.43 2.07287
11.44 2.22934
11.45 2.35604
11.46 2.44484
11.47 2.49875
11.48 2.51215
11.49 2.48738
11.5 2.42552
11.51 2.3264
11.52 2.19715
11.53 2.03761
11.54 1.85638
11.55 1.65726
11.56 1.44648
11.57 1.23007
11.58 1.01369
11.59 0.802362
11.6 0.601422
11.61 0.414285
11.62 0.243648
11.63 0.0929129
11.64 -0.0392453
11.65 -0.149841
11.66 -0.242352
11.67 -0.317156
11.68 -0.376662
11.69 -0.424348
11.7 -0.461908
11.71 -0.493656
11.72 -0.521827
11.73 -0.549371
11.74 -0.578294
11.75 -0.610512
11.76 -0.64657
11.77 -0.687458
11.78 -0.732282
11.79 -0.780418
11.8 -0.830301
11.81 -0.880124
11.82 -0.927364
11.83 -0.970103
11.84 -1.00531
11.85 -1.03099
11.86 -1.0452
11.87 -1.04506
11.88 -1.03089
11.89 -0.99939
11.9 -0.952168
11.91 -0.888231
11.92 -0.808111
11.93 -0.713842
11.94 -0.605043
11.95 -0.48551
11.96 -0.356113
11.97 -0.21995
11.98 -0.0794123
11.99 0.0628429
12 0.204179
12.01 0.341532
12.02 0.472818
12.03 0.595343
12.04 0.706679
12.05 0.805851
12.06 0.889172
12.07 0.957564
12.08 1.00817
12.09 1.04137
12.1 1.05701
12.11 1.05396
12.12 1.03482
12.13 0.998085
12.14 0.947157
12.15 0.882699
12.16 0.80677
12.17 0.722136
12.18 0.630234
12.19 0.534442
12.2 0.436787
12.21 0.339879
12.22 0.245752
12.23 0.156787
12.24 0.0738632
12.25 -0.000739149
12.26 -0.0672562
12.27 -0.124902
12.28 -0.173839
12.29 -0.215246
12.3 -0.249199
12.31 -0.27804
12.32 -0.302748
12.33 -0.325346
12.34 -0.347414
12.35 -0.370682
12.36 -0.396244
12.37 -0.42558
12.38 -0.458835
12.39 -0.496365
12.4 -0.537763
