# xPDFsuite Configuration #
[PDF]
wavelength = 0.1432
dataformat = twotheta
inputfile = 1_1Pd_CeO2_cycle-00031.chi
backgroundfile = background-00000.chi
mode = xray
bgscale = 1.007
composition = CeO2
outputtype = gr
qmaxinst = 28.8974762299
qmin = 0.5
qmax = 27.9
rmax = 50.0
rmin = 0.0
rstep = 0.01
rpoly = 1.8657

[Misc]
inputdir = G:/SankarDec16/1Pd/Chi
savedir = D:/DATA/APS_CeO2/1Pd
backgroundfilefull = G:/SankarDec16/Background/background-00000.chi

#### start data
#S 1
#L r($\AA$)  G($\AA^{-2}$)
0 0
0.01 -0.00712744
0.02 -0.0137193
0.03 -0.0192241
0.04 -0.0232261
0.05 -0.0254937
0.06 -0.0256542
0.07 -0.0239543
0.08 -0.0202726
0.09 -0.0150806
0.1 -0.00870351
0.11 -0.00164043
0.12 0.0055627
0.13 0.012295
0.14 0.0181206
0.15 0.0225075
0.16 0.025142
0.17 0.025897
0.18 0.0245154
0.19 0.021358
0.2 0.0164347
0.21 0.010294
0.22 0.00334028
0.23 -0.00386649
0.24 -0.0108109
0.25 -0.0168346
0.26 -0.0216209
0.27 -0.024682
0.28 -0.0258205
0.29 -0.0250198
0.3 -0.0221502
0.31 -0.0176708
0.32 -0.0117219
0.33 -0.00490515
0.34 0.00231477
0.35 0.00934197
0.36 0.0157153
0.37 0.0207589
0.38 0.0242899
0.39 0.0258872
0.4 0.0254787
0.41 0.0231598
0.42 0.0189346
0.43 0.0133398
0.44 0.00664021
0.45 -0.000536668
0.46 -0.00768692
0.47 -0.0142055
0.48 -0.0197069
0.49 -0.0235288
0.5 -0.0256306
0.51 -0.0256779
0.52 -0.0237278
0.53 -0.0199836
0.54 -0.0145839
0.55 -0.00811879
0.56 -0.000966134
0.57 0.00624899
0.58 0.0130066
0.59 0.0187198
0.6 0.0230969
0.61 0.0255196
0.62 0.0260921
0.63 0.0245825
0.64 0.0211751
0.65 0.0161726
0.66 0.00984267
0.67 0.00280203
0.68 -0.00447528
0.69 -0.0113948
0.7 -0.0174444
0.71 -0.0220819
0.72 -0.0251235
0.73 -0.0260229
0.74 -0.0250251
0.75 -0.022011
0.76 -0.0172842
0.77 -0.0112324
0.78 -0.00423944
0.79 0.00308004
0.8 0.0101794
0.81 0.0165228
0.82 0.0216316
0.83 0.0250351
0.84 0.0266666
0.85 0.0260804
0.86 0.02365
0.87 0.019376
0.88 0.0136659
0.89 0.00697234
0.9 -0.000225208
0.91 -0.00734849
0.92 -0.0138112
0.93 -0.0191693
0.94 -0.0230112
0.95 -0.0249741
0.96 -0.0251207
0.97 -0.0231529
0.98 -0.0195598
0.99 -0.0144861
1 -0.0084376
1.01 -0.00191841
1.02 0.00449248
1.03 0.010293
1.04 0.0148628
1.05 0.0178888
1.06 0.0190511
1.07 0.0181273
1.08 0.0153418
1.09 0.0105838
1.1 0.00448798
1.11 -0.00261335
1.12 -0.0100752
1.13 -0.0173085
1.14 -0.023561
1.15 -0.0283927
1.16 -0.0310532
1.17 -0.0313356
1.18 -0.0289454
1.19 -0.02372
1.2 -0.0160513
1.21 -0.00586705
1.22 0.00598678
1.23 0.0190749
1.24 0.0325964
1.25 0.0458346
1.26 0.0578819
1.27 0.0682075
1.28 0.0758925
1.29 0.0806535
1.3 0.0820759
1.31 0.0798497
1.32 0.0743502
1.33 0.0652338
1.34 0.0534029
1.35 0.0390845
1.36 0.0230123
1.37 0.00587801
1.38 -0.0116239
1.39 -0.0287933
1.4 -0.0448983
1.41 -0.0594558
1.42 -0.0719908
1.43 -0.082057
1.44 -0.0897112
1.45 -0.0944307
1.46 -0.0966762
1.47 -0.0963154
1.48 -0.0936266
1.49 -0.0889165
1.5 -0.0822657
1.51 -0.0741718
1.52 -0.0647041
1.53 -0.0542261
1.54 -0.0429024
1.55 -0.0309015
1.56 -0.0184362
1.57 -0.00560523
1.58 0.0073757
1.59 0.0203398
1.6 0.0330527
1.61 0.0452864
1.62 0.0566411
1.63 0.0669022
1.64 0.0755132
1.65 0.0822144
1.66 0.0865859
1.67 0.0881489
1.68 0.0869247
1.69 0.0822009
1.7 0.0744215
1.71 0.0633454
1.72 0.0492977
1.73 0.032733
1.74 0.0139666
1.75 -0.00611392
1.76 -0.0269025
1.77 -0.0475074
1.78 -0.0671542
1.79 -0.0849425
1.8 -0.100436
1.81 -0.112588
1.82 -0.121505
1.83 -0.126682
1.84 -0.12825
1.85 -0.126574
1.86 -0.121811
1.87 -0.114944
1.88 -0.106494
1.89 -0.0974761
1.9 -0.0887004
1.91 -0.0811037
1.92 -0.0752306
1.93 -0.0720561
1.94 -0.0715622
1.95 -0.0741625
1.96 -0.0796705
1.97 -0.0876584
1.98 -0.0977462
1.99 -0.108942
2 -0.120425
2.01 -0.131128
2.02 -0.140057
2.03 -0.146047
2.04 -0.148601
2.05 -0.146291
2.06 -0.139326
2.07 -0.126976
2.08 -0.109354
2.09 -0.086859
2.1 -0.0594407
2.11 -0.0282969
2.12 0.00631386
2.13 0.0432591
2.14 0.0818409
2.15 0.121286
2.16 0.160922
2.17 0.200197
2.18 0.238826
2.19 0.276584
2.2 0.313487
2.21 0.349689
2.22 0.385358
2.23 0.420803
2.24 0.456228
2.25 0.491772
2.26 0.527421
2.27 0.562934
2.28 0.597925
2.29 0.631501
2.3 0.662936
2.31 0.690889
2.32 0.714048
2.33 0.731345
2.34 0.740556
2.35 0.741521
2.36 0.731959
2.37 0.711993
2.38 0.680977
2.39 0.638516
2.4 0.586224
2.41 0.523552
2.42 0.453483
2.43 0.377155
2.44 0.297117
2.45 0.215749
2.46 0.135787
2.47 0.0593892
2.48 -0.0105156
2.49 -0.0724461
2.5 -0.124737
2.51 -0.165856
2.52 -0.196521
2.53 -0.215098
2.54 -0.224093
2.55 -0.223847
2.56 -0.216462
2.57 -0.204126
2.58 -0.188866
2.59 -0.173231
2.6 -0.159497
2.61 -0.14951
2.62 -0.14484
2.63 -0.146916
2.64 -0.155556
2.65 -0.171881
2.66 -0.194207
2.67 -0.222065
2.68 -0.253733
2.69 -0.287448
2.7 -0.321272
2.71 -0.353402
2.72 -0.381753
2.73 -0.405144
2.74 -0.422452
2.75 -0.432787
2.76 -0.436804
2.77 -0.433968
2.78 -0.426253
2.79 -0.414577
2.8 -0.400892
2.81 -0.387017
2.82 -0.375128
2.83 -0.366666
2.84 -0.363715
2.85 -0.36696
2.86 -0.37714
2.87 -0.394617
2.88 -0.418197
2.89 -0.447708
2.9 -0.480747
2.91 -0.51575
2.92 -0.550327
2.93 -0.582443
2.94 -0.609358
2.95 -0.629959
2.96 -0.641812
2.97 -0.644693
2.98 -0.638086
2.99 -0.621972
3 -0.598204
3.01 -0.567295
3.02 -0.532367
3.03 -0.495455
3.04 -0.459463
3.05 -0.426773
3.06 -0.400565
3.07 -0.381966
3.08 -0.37366
3.09 -0.375699
3.1 -0.388491
3.11 -0.411867
3.12 -0.44361
3.13 -0.482985
3.14 -0.526512
3.15 -0.571922
3.16 -0.616119
3.17 -0.656657
3.18 -0.690341
3.19 -0.716231
3.2 -0.731894
3.21 -0.73765
3.22 -0.733524
3.23 -0.720276
3.24 -0.700435
3.25 -0.675606
3.26 -0.649304
3.27 -0.624363
3.28 -0.603995
3.29 -0.590506
3.3 -0.587265
3.31 -0.594433
3.32 -0.614227
3.33 -0.645405
3.34 -0.687201
3.35 -0.737895
3.36 -0.794153
3.37 -0.853179
3.38 -0.91099
3.39 -0.96387
3.4 -1.00821
3.41 -1.0417
3.42 -1.06056
3.43 -1.06552
3.44 -1.0545
3.45 -1.02988
3.46 -0.993306
3.47 -0.947659
3.48 -0.897296
3.49 -0.846357
3.5 -0.799361
3.51 -0.760839
3.52 -0.734518
3.53 -0.722283
3.54 -0.72729
3.55 -0.74708
3.56 -0.781586
3.57 -0.825656
3.58 -0.874328
3.59 -0.919986
3.6 -0.955523
3.61 -0.968793
3.62 -0.953604
3.63 -0.898262
3.64 -0.794566
3.65 -0.638244
3.66 -0.417331
3.67 -0.137593
3.68 0.209052
3.69 0.614019
3.7 1.07307
3.71 1.5789
3.72 2.11649
3.73 2.67568
3.74 3.23809
3.75 3.78787
3.76 4.30708
3.77 4.78204
3.78 5.19005
3.79 5.52702
3.8 5.77157
3.81 5.92298
3.82 5.97471
3.83 5.92085
3.84 5.77423
3.85 5.52549
3.86 5.198
3.87 4.79585
3.88 4.3355
3.89 3.8335
3.9 3.30338
3.91 2.76405
3.92 2.2306
3.93 1.71733
3.94 1.23634
3.95 0.800434
3.96 0.41187
3.97 0.0843732
3.98 -0.188561
3.99 -0.402336
4 -0.56118
4.01 -0.671947
4.02 -0.736241
4.03 -0.767126
4.04 -0.768481
4.05 -0.751135
4.06 -0.721948
4.07 -0.688125
4.08 -0.655455
4.09 -0.629411
4.1 -0.612237
4.11 -0.606473
4.12 -0.612354
4.13 -0.628641
4.14 -0.654534
4.15 -0.686388
4.16 -0.721851
4.17 -0.757301
4.18 -0.789786
4.19 -0.815994
4.2 -0.834423
4.21 -0.841704
4.22 -0.838306
4.23 -0.822834
4.24 -0.795747
4.25 -0.758274
4.26 -0.710551
4.27 -0.655323
4.28 -0.593299
4.29 -0.526747
4.3 -0.457014
4.31 -0.385422
4.32 -0.313106
4.33 -0.240787
4.34 -0.168907
4.35 -0.0976833
4.36 -0.0271074
4.37 0.0429427
4.38 0.112524
4.39 0.181713
4.4 0.250286
4.41 0.317875
4.42 0.383818
4.43 0.446951
4.44 0.506443
4.45 0.559997
4.46 0.606839
4.47 0.644732
4.48 0.672127
4.49 0.68823
4.5 0.69042
4.51 0.679827
4.52 0.654445
4.53 0.615732
4.54 0.564153
4.55 0.500511
4.56 0.427597
4.57 0.346213
4.58 0.259888
4.59 0.170612
4.6 0.0811423
4.61 -0.00634768
4.62 -0.0891861
4.63 -0.166299
4.64 -0.235499
4.65 -0.296522
4.66 -0.348864
4.67 -0.392226
4.68 -0.428021
4.69 -0.455991
4.7 -0.478406
4.71 -0.496084
4.72 -0.510638
4.73 -0.523457
4.74 -0.535731
4.75 -0.54848
4.76 -0.562523
4.77 -0.57819
4.78 -0.595608
4.79 -0.614657
4.8 -0.634783
4.81 -0.655467
4.82 -0.675908
4.83 -0.695339
4.84 -0.713
4.85 -0.728425
4.86 -0.740843
4.87 -0.750429
4.88 -0.756797
4.89 -0.760429
4.9 -0.761663
4.91 -0.761022
4.92 -0.759309
4.93 -0.757169
4.94 -0.755363
4.95 -0.754534
4.96 -0.755207
4.97 -0.757617
4.98 -0.762145
4.99 -0.768474
5 -0.776619
5.01 -0.786061
5.02 -0.796392
5.03 -0.807087
5.04 -0.817657
5.05 -0.827572
5.06 -0.836583
5.07 -0.844403
5.08 -0.850979
5.09 -0.856434
5.1 -0.860839
5.11 -0.864567
5.12 -0.8678
5.13 -0.870779
5.14 -0.873561
5.15 -0.875979
5.16 -0.877712
5.17 -0.877839
5.18 -0.875551
5.19 -0.869313
5.2 -0.857433
5.21 -0.838525
5.22 -0.80952
5.23 -0.769917
5.24 -0.716435
5.25 -0.648629
5.26 -0.565277
5.27 -0.46508
5.28 -0.349981
5.29 -0.218569
5.3 -0.0748842
5.31 0.0796125
5.32 0.241123
5.33 0.405671
5.34 0.568483
5.35 0.725216
5.36 0.869884
5.37 0.998425
5.38 1.10638
5.39 1.18837
5.4 1.24429
5.41 1.26727
5.42 1.26077
5.43 1.22227
5.44 1.1536
5.45 1.05838
5.46 0.937167
5.47 0.797335
5.48 0.641442
5.49 0.476182
5.5 0.306445
5.51 0.137892
5.52 -0.0251392
5.53 -0.176737
5.54 -0.314847
5.55 -0.435602
5.56 -0.537309
5.57 -0.620156
5.58 -0.681938
5.59 -0.726345
5.6 -0.752818
5.61 -0.765083
5.62 -0.765349
5.63 -0.756075
5.64 -0.740716
5.65 -0.721092
5.66 -0.699912
5.67 -0.678641
5.68 -0.658463
5.69 -0.639791
5.7 -0.622753
5.71 -0.60661
5.72 -0.590488
5.73 -0.573121
5.74 -0.553239
5.75 -0.52927
5.76 -0.500633
5.77 -0.465636
5.78 -0.424775
5.79 -0.377659
5.8 -0.325065
5.81 -0.268307
5.82 -0.208699
5.83 -0.148489
5.84 -0.0899268
5.85 -0.0353253
5.86 0.0130864
5.87 0.0526083
5.88 0.08253
5.89 0.0996663
5.9 0.104907
5.91 0.0969575
5.92 0.0763438
5.93 0.0445018
5.94 0.00160678
5.95 -0.0491889
5.96 -0.106775
5.97 -0.16832
5.98 -0.231797
5.99 -0.294969
6 -0.356202
6.01 -0.413483
6.02 -0.466293
6.03 -0.513678
6.04 -0.555577
6.05 -0.592547
6.06 -0.624746
6.07 -0.653708
6.08 -0.680173
6.09 -0.705548
6.1 -0.730843
6.11 -0.757076
6.12 -0.784737
6.13 -0.814426
6.14 -0.845815
6.15 -0.878644
6.16 -0.912094
6.17 -0.945226
6.18 -0.976666
6.19 -1.00547
6.2 -1.03008
6.21 -1.04978
6.22 -1.06382
6.23 -1.07153
6.24 -1.0736
6.25 -1.06966
6.26 -1.06142
6.27 -1.0497
6.28 -1.03614
6.29 -1.02227
6.3 -1.00975
6.31 -0.99962
6.32 -0.993069
6.33 -0.990119
6.34 -0.990418
6.35 -0.992771
6.36 -0.99509
6.37 -0.994059
6.38 -0.986425
6.39 -0.967377
6.4 -0.931847
6.41 -0.876124
6.42 -0.791954
6.43 -0.678706
6.44 -0.528371
6.45 -0.340583
6.46 -0.113128
6.47 0.156554
6.48 0.462908
6.49 0.808747
6.5 1.18408
6.51 1.5852
6.52 2.0033
6.53 2.42924
6.54 2.85252
6.55 3.26339
6.56 3.64897
6.57 4.00016
6.58 4.30728
6.59 4.55813
6.6 4.75203
6.61 4.87318
6.62 4.9278
6.63 4.90899
6.64 4.81854
6.65 4.66295
6.66 4.43969
6.67 4.16425
6.68 3.83842
6.69 3.47586
6.7 3.08567
6.71 2.67815
6.72 2.26465
6.73 1.85552
6.74 1.45942
6.75 1.08533
6.76 0.74033
6.77 0.427656
6.78 0.15562
6.79 -0.0792463
6.8 -0.271522
6.81 -0.425314
6.82 -0.54213
6.83 -0.623401
6.84 -0.676378
6.85 -0.701236
6.86 -0.70629
6.87 -0.694319
6.88 -0.670208
6.89 -0.638182
6.9 -0.601134
6.91 -0.562397
6.92 -0.523997
6.93 -0.48752
6.94 -0.453901
6.95 -0.423858
6.96 -0.39712
6.97 -0.374086
6.98 -0.353986
6.99 -0.336765
7 -0.322137
7.01 -0.30987
7.02 -0.300366
7.03 -0.29353
7.04 -0.290214
7.05 -0.290816
7.06 -0.296058
7.07 -0.307025
7.08 -0.323717
7.09 -0.34768
7.1 -0.37824
7.11 -0.415944
7.12 -0.460363
7.13 -0.510522
7.14 -0.565996
7.15 -0.624814
7.16 -0.685778
7.17 -0.746912
7.18 -0.806521
7.19 -0.862523
7.2 -0.913811
7.21 -0.958006
7.22 -0.994965
7.23 -1.02343
7.24 -1.0432
7.25 -1.05494
7.26 -1.05831
7.27 -1.05543
7.28 -1.04684
7.29 -1.0346
7.3 -1.02022
7.31 -1.00544
7.32 -0.991652
7.33 -0.980454
7.34 -0.972389
7.35 -0.968133
7.36 -0.967581
7.37 -0.969991
7.38 -0.974469
7.39 -0.979212
7.4 -0.982164
7.41 -0.981036
7.42 -0.973453
7.43 -0.956218
7.44 -0.928171
7.45 -0.885087
7.46 -0.827205
7.47 -0.752148
7.48 -0.659447
7.49 -0.550181
7.5 -0.423173
7.51 -0.282312
7.52 -0.128165
7.53 0.0352698
7.54 0.204884
7.55 0.376765
7.56 0.546992
7.57 0.710615
7.58 0.864426
7.59 1.00391
7.6 1.12544
7.61 1.22736
7.62 1.30444
7.63 1.35846
7.64 1.38547
7.65 1.38726
7.66 1.36413
7.67 1.31605
7.68 1.2474
7.69 1.15749
7.7 1.052
7.71 0.932768
7.72 0.8036
7.73 0.668221
7.74 0.529801
7.75 0.391945
7.76 0.257995
7.77 0.130669
7.78 0.0123951
7.79 -0.0938917
7.8 -0.187899
7.81 -0.266122
7.82 -0.329758
7.83 -0.377222
7.84 -0.408637
7.85 -0.425264
7.86 -0.426042
7.87 -0.414168
7.88 -0.389486
7.89 -0.354693
7.9 -0.311514
7.91 -0.261837
7.92 -0.208414
7.93 -0.153268
7.94 -0.0989931
7.95 -0.0479097
7.96 -0.00238575
7.97 0.0360648
7.98 0.0644845
7.99 0.0828411
8 0.0887086
8.01 0.0822764
8.02 0.0632305
8.03 0.031087
8.04 -0.0121231
8.05 -0.0669682
8.06 -0.130421
8.07 -0.201384
8.08 -0.277553
8.09 -0.356624
8.1 -0.436398
8.11 -0.514698
8.12 -0.589252
8.13 -0.65851
8.14 -0.72114
8.15 -0.775667
8.16 -0.822499
8.17 -0.860321
8.18 -0.890712
8.19 -0.913869
8.2 -0.931063
8.21 -0.943845
8.22 -0.953267
8.23 -0.961102
8.24 -0.968391
8.25 -0.976102
8.26 -0.984669
8.27 -0.994069
8.28 -1.00362
8.29 -1.0119
8.3 -1.01716
8.31 -1.01678
8.32 -1.00762
8.33 -0.98723
8.34 -0.950212
8.35 -0.895571
8.36 -0.817757
8.37 -0.715552
8.38 -0.586848
8.39 -0.428674
8.4 -0.243995
8.41 -0.029438
8.42 0.209057
8.43 0.470182
8.44 0.749002
8.45 1.03956
8.46 1.33619
8.47 1.63138
8.48 1.9173
8.49 2.18669
8.5 2.43254
8.51 2.64566
8.52 2.82397
8.53 2.9559
8.54 3.04347
8.55 3.08078
8.56 3.06699
8.57 3.00555
8.58 2.89244
8.59 2.73798
8.6 2.54184
8.61 2.31306
8.62 2.05775
8.63 1.78249
8.64 1.49636
8.65 1.20613
8.66 0.91964
8.67 0.643704
8.68 0.384698
8.69 0.146084
8.7 -0.0650554
8.71 -0.25
8.72 -0.40402
8.73 -0.529127
8.74 -0.626073
8.75 -0.695352
8.76 -0.742513
8.77 -0.767782
8.78 -0.777832
8.79 -0.775417
8.8 -0.764994
8.81 -0.750504
8.82 -0.735365
8.83 -0.722468
8.84 -0.714505
8.85 -0.712878
8.86 -0.718539
8.87 -0.732304
8.88 -0.75304
8.89 -0.780993
8.9 -0.81402
8.91 -0.851051
8.92 -0.890257
8.93 -0.929972
8.94 -0.968413
8.95 -1.00439
8.96 -1.03639
8.97 -1.06381
8.98 -1.08616
8.99 -1.103
9 -1.11511
9.01 -1.12226
9.02 -1.12582
9.03 -1.12638
9.04 -1.12497
9.05 -1.12256
9.06 -1.11996
9.07 -1.11782
9.08 -1.11662
9.09 -1.11646
9.1 -1.11721
9.11 -1.11841
9.12 -1.11937
9.13 -1.11899
9.14 -1.11631
9.15 -1.10995
9.16 -1.09859
9.17 -1.08146
9.18 -1.05659
9.19 -1.02429
9.2 -0.983085
9.21 -0.933438
9.22 -0.875535
9.23 -0.809577
9.24 -0.737389
9.25 -0.659529
9.26 -0.57845
9.27 -0.495822
9.28 -0.413971
9.29 -0.334841
9.3 -0.261288
9.31 -0.194495
9.32 -0.137184
9.33 -0.0902746
9.34 -0.0548378
9.35 -0.0323411
9.36 -0.0215433
9.37 -0.0240207
9.38 -0.0373231
9.39 -0.061101
9.4 -0.0936206
9.41 -0.132679
9.42 -0.176826
9.43 -0.223328
9.44 -0.2703
9.45 -0.315611
9.46 -0.357587
9.47 -0.39434
9.48 -0.425408
9.49 -0.449054
9.5 -0.465919
9.51 -0.475631
9.52 -0.47879
9.53 -0.476595
9.54 -0.46965
9.55 -0.459916
9.56 -0.448567
9.57 -0.437284
9.58 -0.4274
9.59 -0.420427
9.6 -0.416999
9.61 -0.418541
9.62 -0.424875
9.63 -0.436465
9.64 -0.453086
9.65 -0.474001
9.66 -0.498994
9.67 -0.526683
9.68 -0.556432
9.69 -0.587102
9.7 -0.617868
9.71 -0.64789
9.72 -0.676727
9.73 -0.70379
9.74 -0.729169
9.75 -0.752815
9.76 -0.774989
9.77 -0.796089
9.78 -0.816371
9.79 -0.836205
9.8 -0.85562
9.81 -0.874425
9.82 -0.892071
9.83 -0.907312
9.84 -0.919
9.85 -0.924236
9.86 -0.921216
9.87 -0.906389
9.88 -0.876082
9.89 -0.828004
9.9 -0.755493
9.91 -0.658526
9.92 -0.530739
9.93 -0.37141
9.94 -0.178742
9.95 0.0504399
9.96 0.311912
9.97 0.60926
9.98 0.935193
9.99 1.28781
10 1.66123
10.01 2.04826
10.02 2.44222
10.03 2.83428
10.04 3.21528
10.05 3.57665
10.06 3.91028
10.07 4.20517
10.08 4.45888
10.09 4.65779
10.1 4.80383
10.11 4.89001
10.12 4.91468
10.13 4.88186
10.14 4.78577
10.15 4.63853
10.16 4.43893
10.17 4.19706
10.18 3.91975
10.19 3.61373
10.2 3.28994
10.21 2.95505
10.22 2.6188
10.23 2.28854
10.24 1.97176
10.25 1.67288
10.26 1.39968
10.27 1.1518
10.28 0.9344
10.29 0.746184
10.3 0.586639
10.31 0.455799
10.32 0.348138
10.33 0.263741
10.34 0.19594
10.35 0.14206
10.36 0.0977177
10.37 0.0588433
10.38 0.0222228
10.39 -0.015284
10.4 -0.0561956
10.41 -0.102062
10.42 -0.153823
10.43 -0.212271
10.44 -0.276443
10.45 -0.346417
10.46 -0.420294
10.47 -0.496937
10.48 -0.574566
10.49 -0.651599
10.5 -0.726076
10.51 -0.796924
10.52 -0.862376
10.53 -0.921705
10.54 -0.97422
10.55 -1.01895
10.56 -1.05658
10.57 -1.08602
10.58 -1.10851
10.59 -1.12393
10.6 -1.13276
10.61 -1.1359
10.62 -1.1331
10.63 -1.12563
10.64 -1.11332
10.65 -1.09685
10.66 -1.07647
10.67 -1.0522
10.68 -1.02468
10.69 -0.993657
10.7 -0.95985
10.71 -0.923403
10.72 -0.884806
10.73 -0.844704
10.74 -0.803668
10.75 -0.762592
10.76 -0.722394
10.77 -0.684046
10.78 -0.648494
10.79 -0.617072
10.8 -0.590208
10.81 -0.569612
10.82 -0.555261
10.83 -0.548127
10.84 -0.54859
10.85 -0.556249
10.86 -0.571959
10.87 -0.594227
10.88 -0.623223
10.89 -0.657637
10.9 -0.696516
10.91 -0.738867
10.92 -0.783171
10.93 -0.828323
10.94 -0.872954
10.95 -0.915889
10.96 -0.955972
10.97 -0.992577
10.98 -1.0244
10.99 -1.05164
11 -1.07346
11.01 -1.09017
11.02 -1.10198
11.03 -1.10899
11.04 -1.11228
11.05 -1.11206
11.06 -1.10963
11.07 -1.10571
11.08 -1.10131
11.09 -1.09726
11.1 -1.09456
11.11 -1.09368
11.12 -1.09536
11.13 -1.09978
11.14 -1.10696
11.15 -1.11687
11.16 -1.12872
11.17 -1.14193
11.18 -1.15518
11.19 -1.16712
11.2 -1.17591
11.21 -1.18005
11.22 -1.17649
11.23 -1.16418
11.24 -1.13977
11.25 -1.10171
11.26 -1.04812
11.27 -0.975902
11.28 -0.885799
11.29 -0.773803
11.3 -0.642053
11.31 -0.489279
11.32 -0.316222
11.33 -0.125502
11.34 0.0830065
11.35 0.304163
11.36 0.536046
11.37 0.773822
11.38 1.01337
11.39 1.24945
11.4 1.47794
11.41 1.69207
11.42 1.88869
11.43 2.06225
11.44 2.20823
11.45 2.32541
11.46 2.40657
11.47 2.45498
11.48 2.46571
11.49 2.44118
11.5 2.38249
11.51 2.28949
11.52 2.16868
11.53 2.01965
11.54 1.8501
11.55 1.66318
11.56 1.46426
11.57 1.25869
11.58 1.05119
11.59 0.846465
11.6 0.649142
11.61 0.462554
11.62 0.289369
11.63 0.132953
11.64 -0.00734152
11.65 -0.12833
11.66 -0.232544
11.67 -0.319718
11.68 -0.391395
11.69 -0.450361
11.7 -0.497356
11.71 -0.536371
11.72 -0.568916
11.73 -0.59783
11.74 -0.62506
11.75 -0.652444
11.76 -0.681164
11.77 -0.712344
11.78 -0.745989
11.79 -0.78205
11.8 -0.819768
11.81 -0.858
11.82 -0.895086
11.83 -0.92946
11.84 -0.958772
11.85 -0.981169
11.86 -0.994807
11.87 -0.996949
11.88 -0.987381
11.89 -0.962769
11.9 -0.923961
11.91 -0.86953
11.92 -0.799364
11.93 -0.714935
11.94 -0.615217
11.95 -0.50366
11.96 -0.380626
11.97 -0.249056
11.98 -0.111245
11.99 0.0302648
12 0.172487
12.01 0.312353
12.02 0.447266
12.03 0.574256
12.04 0.690491
12.05 0.794638
12.06 0.882657
12.07 0.955264
12.08 1.00937
12.09 1.0453
12.1 1.0629
12.11 1.06109
12.12 1.04267
12.13 1.00625
12.14 0.955502
12.15 0.891262
12.16 0.815781
12.17 0.73192
12.18 0.641235
12.19 0.547028
12.2 0.451283
12.21 0.356428
12.22 0.264301
12.23 0.177
12.24 0.0952039
12.25 0.0208313
12.26 -0.0464613
12.27 -0.106097
12.28 -0.158322
12.29 -0.204201
12.3 -0.243837
12.31 -0.279185
12.32 -0.310998
12.33 -0.340855
12.34 -0.369928
12.35 -0.399418
12.36 -0.430107
12.37 -0.462865
12.38 -0.497727
12.39 -0.534737
12.4 -0.573388
12.41 -0.612813
