# xPDFsuite Configuration #
[PDF]
wavelength = 0.1432
dataformat = twotheta
inputfile = 1_1Pd_CeO2_cycle-00053.chi
backgroundfile = background-00000.chi
mode = xray
bgscale = 1.007
composition = CeO2
outputtype = gr
qmaxinst = 28.8974762299
qmin = 0.5
qmax = 27.9
rmax = 50.0
rmin = 0.0
rstep = 0.01
rpoly = 1.8657

[Misc]
inputdir = G:/SankarDec16/1Pd/Chi
savedir = D:/DATA/APS_CeO2/1Pd
backgroundfilefull = G:/SankarDec16/Background/background-00000.chi

#### start data
#S 1
#L r($\AA$)  G($\AA^{-2}$)
0 0
0.01 -0.00632709
0.02 -0.0121779
0.03 -0.0170619
0.04 -0.0206097
0.05 -0.0226157
0.06 -0.022749
0.07 -0.0212297
0.08 -0.0179511
0.09 -0.0133329
0.1 -0.00766543
0.11 -0.00139327
0.12 0.00499834
0.13 0.0109655
0.14 0.0161219
0.15 0.0199955
0.16 0.022309
0.17 0.0229514
0.18 0.0216966
0.19 0.0188676
0.2 0.0144759
0.21 0.00901077
0.22 0.0028333
0.23 -0.00355763
0.24 -0.00970506
0.25 -0.0150232
0.26 -0.019234
0.27 -0.0219061
0.28 -0.0228678
0.29 -0.022108
0.3 -0.0195161
0.31 -0.015503
0.32 -0.010198
0.33 -0.00413696
0.34 0.00226551
0.35 0.00847935
0.36 0.0140977
0.37 0.0185207
0.38 0.0215917
0.39 0.0229407
0.4 0.0225096
0.41 0.0203881
0.42 0.0165867
0.43 0.0115846
0.44 0.00562323
0.45 -0.000740314
0.46 -0.00705752
0.47 -0.012792
0.48 -0.0176066
0.49 -0.0209158
0.5 -0.0226919
0.51 -0.0226441
0.52 -0.0208309
0.53 -0.0174389
0.54 -0.0125994
0.55 -0.0068378
0.56 -0.000495713
0.57 0.0058742
0.58 0.0118112
0.59 0.0167976
0.6 0.0205823
0.61 0.0226222
0.62 0.02302
0.63 0.0215782
0.64 0.0184694
0.65 0.0139685
0.66 0.00832167
0.67 0.00207553
0.68 -0.00434402
0.69 -0.0104149
0.7 -0.0156861
0.71 -0.0196832
0.72 -0.0222533
0.73 -0.0229211
0.74 -0.0219147
0.75 -0.0191391
0.76 -0.0148724
0.77 -0.00946371
0.78 -0.00326138
0.79 0.00319366
0.8 0.00941396
0.81 0.0149337
0.82 0.0193355
0.83 0.0222128
0.84 0.0235185
0.85 0.022872
0.86 0.0206142
0.87 0.0167585
0.88 0.0116738
0.89 0.00576411
0.9 -0.000539297
0.91 -0.00673338
0.92 -0.0122999
0.93 -0.0168602
0.94 -0.0200619
0.95 -0.0216004
0.96 -0.0215463
0.97 -0.0196581
0.98 -0.0163786
0.99 -0.0118536
1 -0.00653932
1.01 -0.000884292
1.02 0.00459037
1.03 0.00945532
1.04 0.0131619
1.05 0.0154542
1.06 0.0160645
1.07 0.0148179
1.08 0.0119341
1.09 0.00734315
1.1 0.0016223
1.11 -0.0049095
1.12 -0.0116663
1.13 -0.0181193
1.14 -0.0235834
1.15 -0.0276822
1.16 -0.0297395
1.17 -0.0295906
1.18 -0.0269831
1.19 -0.0217866
1.2 -0.014372
1.21 -0.00468879
1.22 0.00648685
1.23 0.0187498
1.24 0.031368
1.25 0.0436894
1.26 0.0548833
1.27 0.0644721
1.28 0.0716142
1.29 0.0760538
1.3 0.0774096
1.31 0.0753924
1.32 0.0703434
1.33 0.061932
1.34 0.0509831
1.35 0.0376905
1.36 0.0227211
1.37 0.00670859
1.38 -0.00971552
1.39 -0.0258915
1.4 -0.0411388
1.41 -0.0549852
1.42 -0.066966
1.43 -0.0766301
1.44 -0.0839986
1.45 -0.0885288
1.46 -0.0906263
1.47 -0.0901203
1.48 -0.0872467
1.49 -0.0822857
1.5 -0.0752917
1.51 -0.0667746
1.52 -0.0568139
1.53 -0.0458205
1.54 -0.034013
1.55 -0.0216412
1.56 -0.00897928
1.57 0.00374693
1.58 0.0162887
1.59 0.0283814
1.6 0.0397547
1.61 0.050183
1.62 0.0592335
1.63 0.0668031
1.64 0.0723745
1.65 0.0758444
1.66 0.0769295
1.67 0.0753388
1.68 0.0712435
1.69 0.0641905
1.7 0.0547109
1.71 0.0427684
1.72 0.0287801
1.73 0.0132201
1.74 -0.00348535
1.75 -0.0206325
1.76 -0.0376114
1.77 -0.0537805
1.78 -0.0685504
1.79 -0.0812828
1.8 -0.0918049
1.81 -0.0994081
1.82 -0.104407
1.83 -0.106598
1.84 -0.106302
1.85 -0.10397
1.86 -0.0999755
1.87 -0.0951167
1.88 -0.0899985
1.89 -0.0853578
1.9 -0.0818196
1.91 -0.0800428
1.92 -0.0802274
1.93 -0.0829972
1.94 -0.0880139
1.95 -0.0953341
1.96 -0.104493
1.97 -0.114907
1.98 -0.125895
1.99 -0.136605
2 -0.146053
2.01 -0.153433
2.02 -0.157902
2.03 -0.158548
2.04 -0.155248
2.05 -0.146894
2.06 -0.134081
2.07 -0.116446
2.08 -0.0944227
2.09 -0.0686171
2.1 -0.039311
2.11 -0.00761753
2.12 0.0260072
2.13 0.0606501
2.14 0.0957358
2.15 0.130713
2.16 0.165278
2.17 0.199165
2.18 0.232491
2.19 0.265385
2.2 0.298201
2.21 0.331307
2.22 0.365215
2.23 0.400174
2.24 0.436602
2.25 0.474443
2.26 0.513578
2.27 0.553569
2.28 0.593675
2.29 0.632738
2.3 0.669637
2.31 0.70269
2.32 0.730252
2.33 0.751034
2.34 0.762473
2.35 0.764444
2.36 0.75445
2.37 0.732779
2.38 0.698866
2.39 0.652484
2.4 0.595575
2.41 0.527809
2.42 0.45255
2.43 0.371234
2.44 0.286725
2.45 0.20161
2.46 0.118932
2.47 0.0408402
2.48 -0.0295399
2.49 -0.0908552
2.5 -0.141502
2.51 -0.18008
2.52 -0.207584
2.53 -0.222554
2.54 -0.227819
2.55 -0.22396
2.56 -0.213339
2.57 -0.198314
2.58 -0.181152
2.59 -0.164397
2.6 -0.150471
2.61 -0.141115
2.62 -0.137843
2.63 -0.141969
2.64 -0.153096
2.65 -0.172201
2.66 -0.197358
2.67 -0.22791
2.68 -0.26195
2.69 -0.297596
2.7 -0.33274
2.71 -0.365599
2.72 -0.393992
2.73 -0.416825
2.74 -0.433025
2.75 -0.44178
2.76 -0.443895
2.77 -0.438915
2.78 -0.428962
2.79 -0.415046
2.8 -0.399202
2.81 -0.383294
2.82 -0.369539
2.83 -0.359349
2.84 -0.354796
2.85 -0.356509
2.86 -0.365179
2.87 -0.38111
2.88 -0.403081
2.89 -0.430893
2.9 -0.462174
2.91 -0.495403
2.92 -0.528287
2.93 -0.558896
2.94 -0.584681
2.95 -0.604632
2.96 -0.616559
2.97 -0.620336
2.98 -0.615584
2.99 -0.602418
3 -0.582603
3.01 -0.556781
3.02 -0.527792
3.03 -0.497566
3.04 -0.468708
3.05 -0.443287
3.06 -0.424081
3.07 -0.411885
3.08 -0.408887
3.09 -0.414854
3.1 -0.429868
3.11 -0.453418
3.12 -0.48337
3.13 -0.518613
3.14 -0.556098
3.15 -0.593587
3.16 -0.62839
3.17 -0.658524
3.18 -0.681274
3.19 -0.696309
3.2 -0.70184
3.21 -0.698727
3.22 -0.687526
3.23 -0.669571
3.24 -0.647449
3.25 -0.623402
3.26 -0.600538
3.27 -0.581813
3.28 -0.570061
3.29 -0.567086
3.3 -0.575828
3.31 -0.595641
3.32 -0.628077
3.33 -0.671141
3.34 -0.723396
3.35 -0.782367
3.36 -0.844482
3.37 -0.906111
3.38 -0.963547
3.39 -1.01279
3.4 -1.0505
3.41 -1.07481
3.42 -1.08226
3.43 -1.07448
3.44 -1.04998
3.45 -1.01203
3.46 -0.963008
3.47 -0.906659
3.48 -0.847741
3.49 -0.791344
3.5 -0.741884
3.51 -0.704319
3.52 -0.682254
3.53 -0.677208
3.54 -0.692195
3.55 -0.723848
3.56 -0.771619
3.57 -0.829431
3.58 -0.891574
3.59 -0.94954
3.6 -0.995695
3.61 -1.0169
3.62 -1.00689
3.63 -0.953429
3.64 -0.848294
3.65 -0.68745
3.66 -0.458911
3.67 -0.169286
3.68 0.189179
3.69 0.606996
3.7 1.07923
3.71 1.5977
3.72 2.1468
3.73 2.71538
3.74 3.28484
3.75 3.83869
3.76 4.35882
3.77 4.83167
3.78 5.23433
3.79 5.56344
3.8 5.79776
3.81 5.93739
3.82 5.9764
3.83 5.90963
3.84 5.75058
3.85 5.49076
3.86 5.15393
3.87 4.74482
3.88 4.28022
3.89 3.77674
3.9 3.24825
3.91 2.71313
3.92 2.18653
3.93 1.68211
3.94 1.21153
3.95 0.787037
3.96 0.410227
3.97 0.0942007
3.98 -0.16807
3.99 -0.372551
4 -0.523879
4.01 -0.629094
4.02 -0.690226
4.03 -0.720066
4.04 -0.722698
4.05 -0.708557
4.06 -0.684275
4.07 -0.656735
4.08 -0.631221
4.09 -0.612867
4.1 -0.603421
4.11 -0.605044
4.12 -0.617607
4.13 -0.639652
4.14 -0.670041
4.15 -0.70519
4.16 -0.742548
4.17 -0.778664
4.18 -0.81067
4.19 -0.835397
4.2 -0.851641
4.21 -0.856185
4.22 -0.849815
4.23 -0.831344
4.24 -0.801455
4.25 -0.76152
4.26 -0.711856
4.27 -0.655207
4.28 -0.592372
4.29 -0.525534
4.3 -0.455985
4.31 -0.384947
4.32 -0.313397
4.33 -0.241931
4.34 -0.170832
4.35 -0.100185
4.36 -0.0298641
4.37 0.0403114
4.38 0.110496
4.39 0.180709
4.4 0.250752
4.41 0.320147
4.42 0.388145
4.43 0.453455
4.44 0.515106
4.45 0.570631
4.46 0.619139
4.47 0.65824
4.48 0.686274
4.49 0.702406
4.5 0.703892
4.51 0.691955
4.52 0.664543
4.53 0.623248
4.54 0.56863
4.55 0.501628
4.56 0.425215
4.57 0.340371
4.58 0.250798
4.59 0.158678
4.6 0.0669294
4.61 -0.0221803
4.62 -0.105791
4.63 -0.182886
4.64 -0.25116
4.65 -0.310463
4.66 -0.360352
4.67 -0.400633
4.68 -0.43293
4.69 -0.457136
4.7 -0.475765
4.71 -0.489851
4.72 -0.501232
4.73 -0.511458
4.74 -0.521981
4.75 -0.533829
4.76 -0.548022
4.77 -0.564828
4.78 -0.584359
4.79 -0.606439
4.8 -0.630286
4.81 -0.655276
4.82 -0.68029
4.83 -0.70433
4.84 -0.72634
4.85 -0.745623
4.86 -0.761065
4.87 -0.772753
4.88 -0.780005
4.89 -0.783301
4.9 -0.782932
4.91 -0.779408
4.92 -0.773774
4.93 -0.766712
4.94 -0.759373
4.95 -0.752636
4.96 -0.747386
4.97 -0.744165
4.98 -0.743765
4.99 -0.746059
5 -0.751445
5.01 -0.75949
5.02 -0.769907
5.03 -0.782262
5.04 -0.795834
5.05 -0.810137
5.06 -0.824482
5.07 -0.838362
5.08 -0.851319
5.09 -0.863107
5.1 -0.87334
5.11 -0.882107
5.12 -0.889141
5.13 -0.894513
5.14 -0.89809
5.15 -0.899542
5.16 -0.898753
5.17 -0.89469
5.18 -0.887003
5.19 -0.874358
5.2 -0.855494
5.21 -0.829438
5.22 -0.793604
5.23 -0.747857
5.24 -0.689412
5.25 -0.61807
5.26 -0.532857
5.27 -0.432708
5.28 -0.319389
5.29 -0.191681
5.3 -0.053158
5.31 0.094884
5.32 0.249076
5.33 0.405879
5.34 0.560991
5.35 0.710497
5.36 0.848921
5.37 0.972504
5.38 1.07707
5.39 1.15753
5.4 1.21365
5.41 1.2388
5.42 1.23601
5.43 1.20264
5.44 1.14013
5.45 1.05168
5.46 0.937421
5.47 0.804298
5.48 0.654403
5.49 0.494117
5.5 0.328051
5.51 0.161596
5.52 -0.000820394
5.53 -0.153501
5.54 -0.294023
5.55 -0.418412
5.56 -0.524629
5.57 -0.612494
5.58 -0.679433
5.59 -0.728759
5.6 -0.759522
5.61 -0.775195
5.62 -0.777772
5.63 -0.769519
5.64 -0.754005
5.65 -0.732934
5.66 -0.709357
5.67 -0.684898
5.68 -0.661079
5.69 -0.63864
5.7 -0.618085
5.71 -0.598946
5.72 -0.580706
5.73 -0.562245
5.74 -0.542424
5.75 -0.519755
5.76 -0.493465
5.77 -0.461847
5.78 -0.425005
5.79 -0.382296
5.8 -0.334109
5.81 -0.281421
5.82 -0.225101
5.83 -0.167206
5.84 -0.109603
5.85 -0.054551
5.86 -0.00420829
5.87 0.0387387
5.88 0.0732758
5.89 0.0961211
5.9 0.107672
5.91 0.106294
5.92 0.0920401
5.93 0.0659648
5.94 0.0277106
5.95 -0.0197443
5.96 -0.0757283
5.97 -0.137431
5.98 -0.202882
5.99 -0.26984
6 -0.336293
6.01 -0.400117
6.02 -0.460219
6.03 -0.515265
6.04 -0.564666
6.05 -0.608557
6.06 -0.646521
6.07 -0.679898
6.08 -0.708964
6.09 -0.735095
6.1 -0.759242
6.11 -0.782425
6.12 -0.805523
6.13 -0.829243
6.14 -0.853849
6.15 -0.879459
6.16 -0.905784
6.17 -0.932313
6.18 -0.958234
6.19 -0.98281
6.2 -1.00492
6.21 -1.02389
6.22 -1.03903
6.23 -1.04966
6.24 -1.0561
6.25 -1.05789
6.26 -1.05616
6.27 -1.05139
6.28 -1.04473
6.29 -1.0373
6.3 -1.03026
6.31 -1.02445
6.32 -1.02067
6.33 -1.01891
6.34 -1.01877
6.35 -1.01905
6.36 -1.018
6.37 -1.01236
6.38 -0.999378
6.39 -0.974523
6.4 -0.933128
6.41 -0.871801
6.42 -0.78267
6.43 -0.665249
6.44 -0.511803
6.45 -0.321969
6.46 -0.0935441
6.47 0.176075
6.48 0.481579
6.49 0.825885
6.5 1.19932
6.51 1.5984
6.52 2.01456
6.53 2.43881
6.54 2.86085
6.55 3.27094
6.56 3.65625
6.57 4.00756
6.58 4.31507
6.59 4.56639
6.6 4.76064
6.61 4.88172
6.62 4.93571
6.63 4.91548
6.64 4.8227
6.65 4.66387
6.66 4.43639
6.67 4.156
6.68 3.8246
6.69 3.45619
6.7 3.06018
6.71 2.64729
6.72 2.22913
6.73 1.81661
6.74 1.4185
6.75 1.04412
6.76 0.700669
6.77 0.391308
6.78 0.12446
6.79 -0.103794
6.8 -0.288176
6.81 -0.433312
6.82 -0.541135
6.83 -0.613617
6.84 -0.658438
6.85 -0.676406
6.86 -0.676063
6.87 -0.660608
6.88 -0.635107
6.89 -0.603726
6.9 -0.56953
6.91 -0.535358
6.92 -0.503124
6.93 -0.473853
6.94 -0.448039
6.95 -0.425849
6.96 -0.406541
6.97 -0.3899
6.98 -0.374889
6.99 -0.361048
7 -0.347907
7.01 -0.335286
7.02 -0.323445
7.03 -0.312754
7.04 -0.304198
7.05 -0.298705
7.06 -0.29742
7.07 -0.301944
7.08 -0.312697
7.09 -0.331781
7.1 -0.358724
7.11 -0.394404
7.12 -0.438497
7.13 -0.489923
7.14 -0.548302
7.15 -0.6112
7.16 -0.677207
7.17 -0.743845
7.18 -0.809001
7.19 -0.870103
7.2 -0.925717
7.21 -0.972956
7.22 -1.01161
7.23 -1.04017
7.24 -1.05849
7.25 -1.06741
7.26 -1.06671
7.27 -1.05898
7.28 -1.04513
7.29 -1.02772
7.3 -1.00868
7.31 -0.990243
7.32 -0.974049
7.33 -0.962172
7.34 -0.955064
7.35 -0.953535
7.36 -0.957306
7.37 -0.965305
7.38 -0.976356
7.39 -0.988071
7.4 -0.997894
7.41 -1.00297
7.42 -1.00044
7.43 -0.986517
7.44 -0.959912
7.45 -0.915835
7.46 -0.854773
7.47 -0.774261
7.48 -0.674122
7.49 -0.555906
7.5 -0.418829
7.51 -0.267514
7.52 -0.10316
7.53 0.0695605
7.54 0.246945
7.55 0.424391
7.56 0.597831
7.57 0.761625
7.58 0.912873
7.59 1.04692
7.6 1.16046
7.61 1.25236
7.62 1.31777
7.63 1.3593
7.64 1.37365
7.65 1.36338
7.66 1.32941
7.67 1.27248
7.68 1.19716
7.69 1.10354
7.7 0.997034
7.71 0.879684
7.72 0.755063
7.73 0.626426
7.74 0.496677
7.75 0.368608
7.76 0.24505
7.77 0.128006
7.78 0.019332
7.79 -0.0786787
7.8 -0.165982
7.81 -0.239666
7.82 -0.300792
7.83 -0.347928
7.84 -0.381011
7.85 -0.400931
7.86 -0.4064
7.87 -0.39999
7.88 -0.381133
7.89 -0.351994
7.9 -0.313881
7.91 -0.268233
7.92 -0.21767
7.93 -0.163849
7.94 -0.10954
7.95 -0.0570531
7.96 -0.00899271
7.97 0.0327925
7.98 0.0650373
7.99 0.087271
8 0.0966738
8.01 0.0930953
8.02 0.075953
8.03 0.044494
8.04 0.000804079
8.05 -0.0558419
8.06 -0.1221
8.07 -0.196713
8.08 -0.277019
8.09 -0.360345
8.1 -0.444052
8.11 -0.525638
8.12 -0.602397
8.13 -0.672582
8.14 -0.734697
8.15 -0.787128
8.16 -0.830524
8.17 -0.863568
8.18 -0.888324
8.19 -0.905307
8.2 -0.916285
8.21 -0.923247
8.22 -0.927836
8.23 -0.932095
8.24 -0.93758
8.25 -0.945379
8.26 -0.956035
8.27 -0.969605
8.28 -0.985021
8.29 -1.0008
8.3 -1.01457
8.31 -1.02329
8.32 -1.02321
8.33 -1.0114
8.34 -0.981782
8.35 -0.933085
8.36 -0.85921
8.37 -0.758846
8.38 -0.629797
8.39 -0.469042
8.4 -0.279986
8.41 -0.0593544
8.42 0.186235
8.43 0.455043
8.44 0.741523
8.45 1.03923
8.46 1.34183
8.47 1.64163
8.48 1.93027
8.49 2.20051
8.5 2.44531
8.51 2.65556
8.52 2.82965
8.53 2.95628
8.54 3.03812
8.55 3.06978
8.56 3.05105
8.57 2.98583
8.58 2.87076
8.59 2.71625
8.6 2.5224
8.61 2.29813
8.62 2.0494
8.63 1.78259
8.64 1.50617
8.65 1.22644
8.66 0.950499
8.67 0.684478
8.68 0.434018
8.69 0.202095
8.7 -0.00505309
8.71 -0.188698
8.72 -0.344669
8.73 -0.474767
8.74 -0.579604
8.75 -0.659445
8.76 -0.719076
8.77 -0.758302
8.78 -0.782856
8.79 -0.794773
8.8 -0.797659
8.81 -0.794865
8.82 -0.788879
8.83 -0.782485
8.84 -0.777723
8.85 -0.7761
8.86 -0.778625
8.87 -0.786215
8.88 -0.798458
8.89 -0.815857
8.9 -0.837197
8.91 -0.862013
8.92 -0.88926
8.93 -0.917864
8.94 -0.946832
8.95 -0.975194
8.96 -1.002
8.97 -1.02664
8.98 -1.04864
8.99 -1.06749
9 -1.08343
9.01 -1.09606
9.02 -1.10603
9.03 -1.11346
9.04 -1.1188
9.05 -1.12257
9.06 -1.12502
9.07 -1.12665
9.08 -1.1276
9.09 -1.128
9.1 -1.1278
9.11 -1.12667
9.12 -1.12435
9.13 -1.12
9.14 -1.11317
9.15 -1.1029
9.16 -1.08829
9.17 -1.06884
9.18 -1.04299
9.19 -1.01101
9.2 -0.971604
9.21 -0.925033
9.22 -0.871288
9.23 -0.810293
9.24 -0.743435
9.25 -0.670853
9.26 -0.594567
9.27 -0.515811
9.28 -0.436527
9.29 -0.35849
9.3 -0.284168
9.31 -0.214958
9.32 -0.153459
9.33 -0.10093
9.34 -0.058735
9.35 -0.0287284
9.36 -0.0101821
9.37 -0.00519962
9.38 -0.0117991
9.39 -0.030138
9.4 -0.058909
9.41 -0.0960768
9.42 -0.140656
9.43 -0.189644
9.44 -0.241329
9.45 -0.293208
9.46 -0.343306
9.47 -0.389353
9.48 -0.430305
9.49 -0.463918
9.5 -0.490274
9.51 -0.508461
9.52 -0.518577
9.53 -0.521569
9.54 -0.517481
9.55 -0.508441
9.56 -0.495316
9.57 -0.480046
9.58 -0.464148
9.59 -0.449351
9.6 -0.43684
9.61 -0.428337
9.62 -0.424263
9.63 -0.425525
9.64 -0.432399
9.65 -0.444487
9.66 -0.462109
9.67 -0.483943
9.68 -0.509739
9.69 -0.538331
9.7 -0.568905
9.71 -0.600653
9.72 -0.632784
9.73 -0.664719
9.74 -0.696084
9.75 -0.726622
9.76 -0.756252
9.77 -0.785051
9.78 -0.812959
9.79 -0.840089
9.8 -0.86617
9.81 -0.890834
9.82 -0.913373
9.83 -0.932342
9.84 -0.946652
9.85 -0.953191
9.86 -0.950336
9.87 -0.934505
9.88 -0.902132
9.89 -0.851109
9.9 -0.774835
9.91 -0.673575
9.92 -0.54111
9.93 -0.376974
9.94 -0.17958
9.95 0.0539914
9.96 0.319357
9.97 0.619804
9.98 0.947975
9.99 1.30178
10 1.67525
10.01 2.06126
10.02 2.45298
10.03 2.84187
10.04 3.21878
10.05 3.57543
10.06 3.90394
10.07 4.19361
10.08 4.4423
10.09 4.63675
10.1 4.77915
10.11 4.86279
10.12 4.88625
10.13 4.8536
10.14 4.75932
10.15 4.61527
10.16 4.4203
10.17 4.18417
10.18 3.91344
10.19 3.61451
10.2 3.2979
10.21 2.96983
10.22 2.63966
10.23 2.31433
10.24 2.00099
10.25 1.70392
10.26 1.43054
10.27 1.18071
10.28 0.959494
10.29 0.765916
10.3 0.599753
10.31 0.461398
10.32 0.345844
10.33 0.253656
10.34 0.178651
10.35 0.118635
10.36 0.069656
10.37 0.0278215
10.38 -0.00963024
10.39 -0.0460754
10.4 -0.0838724
10.41 -0.124919
10.42 -0.170459
10.43 -0.221663
10.44 -0.278135
10.45 -0.34047
10.46 -0.407299
10.47 -0.478006
10.48 -0.551275
10.49 -0.625711
10.5 -0.699829
10.51 -0.772297
10.52 -0.841499
10.53 -0.906321
10.54 -0.965733
10.55 -1.01833
10.56 -1.06419
10.57 -1.10164
10.58 -1.13136
10.59 -1.15266
10.6 -1.16554
10.61 -1.17071
10.62 -1.16741
10.63 -1.15721
10.64 -1.1398
10.65 -1.11626
10.66 -1.08725
10.67 -1.05325
10.68 -1.01555
10.69 -0.974524
10.7 -0.931487
10.71 -0.887185
10.72 -0.842634
10.73 -0.798682
10.74 -0.756447
10.75 -0.716515
10.76 -0.679993
10.77 -0.647427
10.78 -0.619403
10.79 -0.596824
10.8 -0.579458
10.81 -0.56846
10.82 -0.563204
10.83 -0.564112
10.84 -0.571074
10.85 -0.583488
10.86 -0.601735
10.87 -0.624581
10.88 -0.652049
10.89 -0.683206
10.9 -0.717422
10.91 -0.754095
10.92 -0.79226
10.93 -0.831295
10.94 -0.870308
10.95 -0.908562
10.96 -0.945256
10.97 -0.979878
10.98 -1.01142
10.99 -1.03981
11 -1.06421
11.01 -1.08456
11.02 -1.10072
11.03 -1.11238
11.04 -1.12018
11.05 -1.12388
11.06 -1.12444
11.07 -1.12225
11.08 -1.11813
11.09 -1.11294
11.1 -1.10755
11.11 -1.10281
11.12 -1.09961
11.13 -1.09857
11.14 -1.10012
11.15 -1.10469
11.16 -1.11185
11.17 -1.12153
11.18 -1.13258
11.19 -1.14389
11.2 -1.15371
11.21 -1.16036
11.22 -1.16079
11.23 -1.15345
11.24 -1.13471
11.25 -1.1025
11.26 -1.05451
11.27 -0.987112
11.28 -0.900754
11.29 -0.790905
11.3 -0.659688
11.31 -0.505652
11.32 -0.329602
11.33 -0.134455
11.34 0.0797422
11.35 0.307261
11.36 0.545747
11.37 0.789788
11.38 1.03477
11.39 1.27486
11.4 1.50572
11.41 1.72004
11.42 1.91479
11.43 2.0843
11.44 2.22428
11.45 2.33392
11.46 2.40632
11.47 2.44548
11.48 2.44704
11.49 2.4141
11.5 2.34832
11.51 2.25025
11.52 2.12652
11.53 1.97739
11.54 1.81031
11.55 1.62851
11.56 1.43707
11.57 1.24081
11.58 1.04405
11.59 0.850666
11.6 0.664619
11.61 0.488489
11.62 0.324321
11.63 0.174722
11.64 0.0388852
11.65 -0.0806953
11.66 -0.186277
11.67 -0.277685
11.68 -0.356159
11.69 -0.423904
11.7 -0.481274
11.71 -0.531383
11.72 -0.575087
11.73 -0.61446
11.74 -0.650837
11.75 -0.685323
11.76 -0.718942
11.77 -0.752184
11.78 -0.785327
11.79 -0.818268
11.8 -0.850558
11.81 -0.881619
11.82 -0.910191
11.83 -0.935517
11.84 -0.955869
11.85 -0.970076
11.86 -0.976834
11.87 -0.974027
11.88 -0.961525
11.89 -0.93649
11.9 -0.899446
11.91 -0.848921
11.92 -0.784425
11.93 -0.706875
11.94 -0.614757
11.95 -0.510821
11.96 -0.394795
11.97 -0.269051
11.98 -0.13544
11.99 0.0040099
12 0.146253
12.01 0.288578
12.02 0.427943
12.03 0.561206
12.04 0.685045
12.05 0.797532
12.06 0.894013
12.07 0.974568
12.08 1.03542
12.09 1.07639
12.1 1.09696
12.11 1.09559
12.12 1.07526
12.13 1.03433
12.14 0.97701
12.15 0.904433
12.16 0.819427
12.17 0.725508
12.18 0.624938
12.19 0.521647
12.2 0.418356
12.21 0.317957
12.22 0.222646
12.23 0.134954
12.24 0.0552955
12.25 -0.0141573
12.26 -0.0743857
12.27 -0.125114
12.28 -0.167207
12.29 -0.202402
12.3 -0.231512
12.31 -0.257112
12.32 -0.280673
12.33 -0.304215
12.34 -0.329242
12.35 -0.357355
12.36 -0.389064
12.37 -0.425467
12.38 -0.465985
12.39 -0.510372
12.4 -0.557547
12.41 -0.606022
