# xPDFsuite Configuration #
[PDF]
wavelength = 0.1432
dataformat = twotheta
inputfile = 1_1Pd_CeO2_cycle-00327.chi
backgroundfile = background-00000.chi
mode = xray
bgscale = 1.007
composition = CeO2
outputtype = gr
qmaxinst = 28.8974762299
qmin = 0.5
qmax = 27.9
rmax = 50.0
rmin = 0.0
rstep = 0.01
rpoly = 1.8657

[Misc]
inputdir = G:/SankarDec16/1Pd/Chi
savedir = D:/DATA/APS_CeO2/1Pd
backgroundfilefull = G:/SankarDec16/Background/background-00000.chi

#### start data
#S 1
#L r($\AA$)  G($\AA^{-2}$)
0 0
0.01 -0.00698608
0.02 -0.0134473
0.03 -0.0188432
0.04 -0.0227664
0.05 -0.0249897
0.06 -0.025148
0.07 -0.0234828
0.08 -0.0198752
0.09 -0.0147869
0.1 -0.00853685
0.11 -0.00161388
0.12 0.00544693
0.13 0.012047
0.14 0.0177589
0.15 0.0220613
0.16 0.0246465
0.17 0.0253897
0.18 0.0240386
0.19 0.0209467
0.2 0.0161231
0.21 0.0101055
0.22 0.0032899
0.23 -0.00377503
0.24 -0.010584
0.25 -0.0164918
0.26 -0.0211876
0.27 -0.0241932
0.28 -0.0253145
0.29 -0.0245349
0.3 -0.0217268
0.31 -0.0173397
0.32 -0.0115107
0.33 -0.00482923
0.34 0.00224933
0.35 0.00914101
0.36 0.0153934
0.37 0.0203441
0.38 0.0238129
0.39 0.0253867
0.4 0.0249942
0.41 0.0227282
0.42 0.0185919
0.43 0.0131111
0.44 0.00654477
0.45 -0.000492048
0.46 -0.00750545
0.47 -0.0139022
0.48 -0.0193037
0.49 -0.0230604
0.5 -0.0251314
0.51 -0.0251882
0.52 -0.0232857
0.53 -0.0196227
0.54 -0.0143339
0.55 -0.00799763
0.56 -0.000983695
0.57 0.00609482
0.58 0.012728
0.59 0.0183399
0.6 0.0226438
0.61 0.0250325
0.62 0.0256072
0.63 0.0241392
0.64 0.0208083
0.65 0.0159104
0.66 0.00970699
0.67 0.00280286
0.68 -0.00433774
0.69 -0.0111312
0.7 -0.017075
0.71 -0.0216363
0.72 -0.0246339
0.73 -0.0255306
0.74 -0.0245656
0.75 -0.0216206
0.76 -0.0169923
0.77 -0.0110604
0.78 -0.00420051
0.79 0.00298388
0.8 0.00995672
0.81 0.016191
0.82 0.0212163
0.83 0.0245688
0.84 0.0261816
0.85 0.025615
0.86 0.0232341
0.87 0.0190374
0.88 0.0134237
0.89 0.00683672
0.9 -0.000254045
0.91 -0.00727937
0.92 -0.0136634
0.93 -0.0189675
0.94 -0.0227851
0.95 -0.0247561
0.96 -0.0249387
0.97 -0.0230345
0.98 -0.0195208
0.99 -0.0145337
1 -0.00856642
1.01 -0.00211154
1.02 0.00426796
1.03 0.0100765
1.04 0.0147087
1.05 0.017853
1.06 0.019193
1.07 0.0185062
1.08 0.016005
1.09 0.011574
1.1 0.00582611
1.11 -0.000923027
1.12 -0.00805202
1.13 -0.0149925
1.14 -0.0210238
1.15 -0.0257183
1.16 -0.0283596
1.17 -0.0287477
1.18 -0.026604
1.19 -0.0217791
1.2 -0.0146503
1.21 -0.00516336
1.22 0.00587178
1.23 0.0180267
1.24 0.0305316
1.25 0.0427015
1.26 0.0536643
1.27 0.0629282
1.28 0.0696221
1.29 0.0734996
1.3 0.0741884
1.31 0.0714272
1.32 0.0656027
1.33 0.0564417
1.34 0.0448267
1.35 0.0310247
1.36 0.0157656
1.37 -0.000275126
1.38 -0.0163911
1.39 -0.0319443
1.4 -0.0462102
1.41 -0.0587741
1.42 -0.069209
1.43 -0.0771339
1.44 -0.0826705
1.45 -0.0853822
1.46 -0.0857841
1.47 -0.0838289
1.48 -0.0798571
1.49 -0.0742153
1.5 -0.0670746
1.51 -0.0589074
1.52 -0.0498602
1.53 -0.040253
1.54 -0.0302482
1.55 -0.0199936
1.56 -0.0096142
1.57 0.000807968
1.58 0.0111836
1.59 0.0214144
1.6 0.0313729
1.61 0.0409221
1.62 0.0497799
1.63 0.0577925
1.64 0.064523
1.65 0.069746
1.66 0.0730983
1.67 0.0741498
1.68 0.0728779
1.69 0.0686352
1.7 0.0617532
1.71 0.0519802
1.72 0.0395566
1.73 0.0248513
1.74 0.0081062
1.75 -0.00989597
1.76 -0.0286333
1.77 -0.047294
1.78 -0.0651714
1.79 -0.0814317
1.8 -0.0956485
1.81 -0.10684
1.82 -0.11507
1.83 -0.119843
1.84 -0.121252
1.85 -0.119616
1.86 -0.115059
1.87 -0.108498
1.88 -0.100415
1.89 -0.0917779
1.9 -0.0833666
1.91 -0.0760953
1.92 -0.0705068
1.93 -0.0675782
1.94 -0.0673182
1.95 -0.070171
1.96 -0.0759922
1.97 -0.084391
1.98 -0.0950457
1.99 -0.106978
2 -0.119416
2.01 -0.131286
2.02 -0.141589
2.03 -0.149138
2.04 -0.153375
2.05 -0.152818
2.06 -0.147584
2.07 -0.13685
2.08 -0.120622
2.09 -0.0992208
2.1 -0.0724587
2.11 -0.0415188
2.12 -0.00653912
2.13 0.0313254
2.14 0.0713886
2.15 0.11286
2.16 0.154952
2.17 0.197074
2.18 0.238761
2.19 0.279666
2.2 0.319638
2.21 0.358686
2.22 0.396785
2.23 0.434169
2.24 0.470863
2.25 0.506987
2.26 0.542474
2.27 0.577064
2.28 0.610491
2.29 0.641853
2.3 0.670647
2.31 0.695643
2.32 0.715724
2.33 0.729996
2.34 0.736448
2.35 0.735038
2.36 0.723689
2.37 0.70258
2.38 0.67114
2.39 0.629021
2.4 0.577731
2.41 0.516748
2.42 0.448833
2.43 0.375022
2.44 0.297664
2.45 0.218962
2.46 0.141439
2.47 0.0671222
2.48 -0.00126256
2.49 -0.0622956
2.5 -0.114388
2.51 -0.15605
2.52 -0.187894
2.53 -0.208301
2.54 -0.219557
2.55 -0.221887
2.56 -0.217194
2.57 -0.207485
2.58 -0.194571
2.59 -0.180882
2.6 -0.168499
2.61 -0.159224
2.62 -0.154572
2.63 -0.155955
2.64 -0.163321
2.65 -0.17782
2.66 -0.198002
2.67 -0.223549
2.68 -0.25296
2.69 -0.284655
2.7 -0.316937
2.71 -0.348088
2.72 -0.376223
2.73 -0.400154
2.74 -0.418775
2.75 -0.431154
2.76 -0.437758
2.77 -0.437933
2.78 -0.433366
2.79 -0.424732
2.8 -0.413697
2.81 -0.401857
2.82 -0.39105
2.83 -0.382663
2.84 -0.378511
2.85 -0.37934
2.86 -0.385893
2.87 -0.398617
2.88 -0.416617
2.89 -0.439904
2.9 -0.466506
2.91 -0.495217
2.92 -0.52408
2.93 -0.551396
2.94 -0.574948
2.95 -0.593724
2.96 -0.605744
2.97 -0.610749
2.98 -0.608285
2.99 -0.598313
3 -0.582293
3.01 -0.56065
3.02 -0.535873
3.03 -0.509605
3.04 -0.484163
3.05 -0.461431
3.06 -0.44391
3.07 -0.432432
3.08 -0.42903
3.09 -0.43362
3.1 -0.446378
3.11 -0.46696
3.12 -0.493504
3.13 -0.525115
3.14 -0.559031
3.15 -0.59326
3.16 -0.625334
3.17 -0.653399
3.18 -0.674935
3.19 -0.68954
3.2 -0.695503
3.21 -0.693522
3.22 -0.684034
3.23 -0.668198
3.24 -0.648376
3.25 -0.626602
3.26 -0.605793
3.27 -0.588723
3.28 -0.578104
3.29 -0.575701
3.3 -0.584388
3.31 -0.603649
3.32 -0.635092
3.33 -0.676925
3.34 -0.727885
3.35 -0.785727
3.36 -0.847046
3.37 -0.908473
3.38 -0.966355
3.39 -1.01683
3.4 -1.05656
3.41 -1.08358
3.42 -1.09438
3.43 -1.0903
3.44 -1.06964
3.45 -1.03535
3.46 -0.989518
3.47 -0.935526
3.48 -0.877973
3.49 -0.821526
3.5 -0.770658
3.51 -0.730146
3.52 -0.703672
3.53 -0.69295
3.54 -0.701118
3.55 -0.725266
3.56 -0.765162
3.57 -0.815211
3.58 -0.870128
3.59 -0.921913
3.6 -0.963171
3.61 -0.981351
3.62 -0.970134
3.63 -0.917559
3.64 -0.815327
3.65 -0.659178
3.66 -0.437022
3.67 -0.154886
3.68 0.195325
3.69 0.604733
3.7 1.06892
3.71 1.58032
3.72 2.12366
3.73 2.68852
3.74 3.25628
3.75 3.81084
3.76 4.33407
3.77 4.81219
3.78 5.22226
3.79 5.56028
3.8 5.8047
3.81 5.95495
3.82 6.00452
3.83 5.94759
3.84 5.79723
3.85 5.54418
3.86 5.21209
3.87 4.80525
3.88 4.34036
3.89 3.8342
3.9 3.30057
3.91 2.75846
3.92 2.22324
3.93 1.70923
3.94 1.22864
3.95 0.794305
3.96 0.408328
3.97 0.0844869
3.98 -0.184037
3.99 -0.392788
4 -0.54628
4.01 -0.65164
4.02 -0.710811
4.03 -0.737104
4.04 -0.734774
4.05 -0.714838
4.06 -0.684377
4.07 -0.65082
4.08 -0.619869
4.09 -0.597241
4.1 -0.584853
4.11 -0.585206
4.12 -0.598243
4.13 -0.622396
4.14 -0.656533
4.15 -0.696592
4.16 -0.739785
4.17 -0.782122
4.18 -0.820297
4.19 -0.850604
4.2 -0.871497
4.21 -0.87917
4.22 -0.874345
4.23 -0.855524
4.24 -0.82339
4.25 -0.779489
4.26 -0.724189
4.27 -0.660772
4.28 -0.590334
4.29 -0.515639
4.3 -0.438462
4.31 -0.360612
4.32 -0.283407
4.33 -0.208099
4.34 -0.135012
4.35 -0.0645684
4.36 0.00335836
4.37 0.0691423
4.38 0.132969
4.39 0.195451
4.4 0.256679
4.41 0.316806
4.42 0.375596
4.43 0.432375
4.44 0.486571
4.45 0.536409
4.46 0.581094
4.47 0.618624
4.48 0.647395
4.49 0.666416
4.5 0.672985
4.51 0.667739
4.52 0.648404
4.53 0.615945
4.54 0.570425
4.55 0.512184
4.56 0.443751
4.57 0.365439
4.58 0.280771
4.59 0.191513
4.6 0.100462
4.61 0.0099732
4.62 -0.0772077
4.63 -0.15955
4.64 -0.234609
4.65 -0.301661
4.66 -0.359826
4.67 -0.408369
4.68 -0.448465
4.69 -0.479402
4.7 -0.503456
4.71 -0.521248
4.72 -0.53444
4.73 -0.544605
4.74 -0.553023
4.75 -0.561142
4.76 -0.570039
4.77 -0.580471
4.78 -0.592912
4.79 -0.607643
4.8 -0.624309
4.81 -0.642797
4.82 -0.662265
4.83 -0.682098
4.84 -0.701453
4.85 -0.719662
4.86 -0.735824
4.87 -0.749706
4.88 -0.760641
4.89 -0.76872
4.9 -0.773955
4.91 -0.776498
4.92 -0.777012
4.93 -0.775775
4.94 -0.773651
4.95 -0.771187
4.96 -0.769048
4.97 -0.767703
4.98 -0.76773
4.99 -0.769218
5 -0.772512
5.01 -0.777467
5.02 -0.784001
5.03 -0.791949
5.04 -0.800914
5.05 -0.810721
5.06 -0.820951
5.07 -0.831381
5.08 -0.841765
5.09 -0.851949
5.1 -0.861762
5.11 -0.871149
5.12 -0.879924
5.13 -0.887947
5.14 -0.894939
5.15 -0.900368
5.16 -0.903842
5.17 -0.904083
5.18 -0.900481
5.19 -0.89145
5.2 -0.875511
5.21 -0.851572
5.22 -0.816812
5.23 -0.771177
5.24 -0.711744
5.25 -0.638457
5.26 -0.550419
5.27 -0.446687
5.28 -0.329271
5.29 -0.197101
5.3 -0.0540202
5.31 0.0984668
5.32 0.256766
5.33 0.417183
5.34 0.57518
5.35 0.726826
5.36 0.86647
5.37 0.9904
5.38 1.09445
5.39 1.17355
5.4 1.22766
5.41 1.25019
5.42 1.24441
5.43 1.20784
5.44 1.14211
5.45 1.05059
5.46 0.933613
5.47 0.798206
5.48 0.646635
5.49 0.485307
5.5 0.318874
5.51 0.15275
5.52 -0.00875516
5.53 -0.159944
5.54 -0.29859
5.55 -0.420823
5.56 -0.524779
5.57 -0.61043
5.58 -0.675388
5.59 -0.723071
5.6 -0.7527
5.61 -0.7678
5.62 -0.770422
5.63 -0.762878
5.64 -0.748637
5.65 -0.729417
5.66 -0.708082
5.67 -0.68615
5.68 -0.66496
5.69 -0.645088
5.7 -0.626826
5.71 -0.609582
5.72 -0.592632
5.73 -0.574784
5.74 -0.554817
5.75 -0.531175
5.76 -0.503191
5.77 -0.469121
5.78 -0.429299
5.79 -0.383199
5.8 -0.331436
5.81 -0.275202
5.82 -0.215639
5.83 -0.154984
5.84 -0.0953904
5.85 -0.0392428
5.86 0.011163
5.87 0.053003
5.88 0.0853754
5.89 0.104885
5.9 0.112212
5.91 0.105832
5.92 0.0860694
5.93 0.0542635
5.94 0.0103839
5.95 -0.0423021
5.96 -0.102748
5.97 -0.16791
5.98 -0.235586
5.99 -0.303278
6 -0.369045
6.01 -0.43051
6.02 -0.486881
6.03 -0.536866
6.04 -0.580153
6.05 -0.617209
6.06 -0.647937
6.07 -0.674098
6.08 -0.696386
6.09 -0.716546
6.1 -0.735866
6.11 -0.755748
6.12 -0.777108
6.13 -0.801052
6.14 -0.827603
6.15 -0.856945
6.16 -0.888567
6.17 -0.921627
6.18 -0.955065
6.19 -0.987618
6.2 -1.01776
6.21 -1.04432
6.22 -1.0662
6.23 -1.08219
6.24 -1.09249
6.25 -1.09604
6.26 -1.09411
6.27 -1.08699
6.28 -1.07592
6.29 -1.06231
6.3 -1.04741
6.31 -1.03264
6.32 -1.01914
6.33 -1.00746
6.34 -0.99768
6.35 -0.989171
6.36 -0.980508
6.37 -0.969098
6.38 -0.952237
6.39 -0.925762
6.4 -0.885077
6.41 -0.826645
6.42 -0.742703
6.43 -0.632212
6.44 -0.4873
6.45 -0.307031
6.46 -0.0887602
6.47 0.170657
6.48 0.466381
6.49 0.80195
6.5 1.16799
6.51 1.56146
6.52 1.97405
6.53 2.39684
6.54 2.81981
6.55 3.23285
6.56 3.6232
6.57 3.9812
6.58 4.29673
6.59 4.55702
6.6 4.76067
6.61 4.89115
6.62 4.95409
6.63 4.94193
6.64 4.85596
6.65 4.70252
6.66 4.47861
6.67 4.20013
6.68 3.86878
6.69 3.4988
6.7 3.09976
6.71 2.68258
6.72 2.25932
6.73 1.8411
6.74 1.43715
6.75 1.0571
6.76 0.708506
6.77 0.39474
6.78 0.124558
6.79 -0.105973
6.8 -0.29138
6.81 -0.436408
6.82 -0.543072
6.83 -0.613472
6.84 -0.655589
6.85 -0.670424
6.86 -0.666864
6.87 -0.64838
6.88 -0.620331
6.89 -0.587074
6.9 -0.551977
6.91 -0.517871
6.92 -0.486853
6.93 -0.459847
6.94 -0.437274
6.95 -0.419179
6.96 -0.404532
6.97 -0.392917
6.98 -0.382955
6.99 -0.373895
7 -0.364948
7.01 -0.355727
7.02 -0.346129
7.03 -0.336527
7.04 -0.327657
7.05 -0.320536
7.06 -0.316357
7.07 -0.316812
7.08 -0.322643
7.09 -0.336124
7.1 -0.357195
7.11 -0.387054
7.12 -0.425763
7.13 -0.472529
7.14 -0.527412
7.15 -0.588062
7.16 -0.653421
7.17 -0.72099
7.18 -0.788683
7.19 -0.853918
7.2 -0.914932
7.21 -0.968754
7.22 -1.01468
7.23 -1.05092
7.24 -1.07683
7.25 -1.0929
7.26 -1.0984
7.27 -1.0957
7.28 -1.08523
7.29 -1.06945
7.3 -1.05016
7.31 -1.02947
7.32 -1.00928
7.33 -0.991596
7.34 -0.97739
7.35 -0.967711
7.36 -0.962741
7.37 -0.961849
7.38 -0.964368
7.39 -0.968288
7.4 -0.971571
7.41 -0.971632
7.42 -0.965858
7.43 -0.950759
7.44 -0.924866
7.45 -0.883642
7.46 -0.827124
7.47 -0.75273
7.48 -0.659891
7.49 -0.549721
7.5 -0.421022
7.51 -0.277932
7.52 -0.121168
7.53 0.044977
7.54 0.217134
7.55 0.391075
7.56 0.562702
7.57 0.726727
7.58 0.879939
7.59 1.01768
7.6 1.13638
7.61 1.23454
7.62 1.30701
7.63 1.35593
7.64 1.37762
7.65 1.37422
7.66 1.34633
7.67 1.29429
7.68 1.22263
7.69 1.13107
7.7 1.0252
7.71 0.907001
7.72 0.780221
7.73 0.648382
7.74 0.514562
7.75 0.38197
7.76 0.253715
7.77 0.132148
7.78 0.0194001
7.79 -0.0819334
7.8 -0.171722
7.81 -0.246792
7.82 -0.308316
7.83 -0.354831
7.84 -0.386416
7.85 -0.404179
7.86 -0.40701
7.87 -0.397799
7.88 -0.376242
7.89 -0.344773
7.9 -0.304923
7.91 -0.258378
7.92 -0.207784
7.93 -0.155006
7.94 -0.102655
7.95 -0.0530234
7.96 -0.00853466
7.97 0.0292005
7.98 0.0571513
7.99 0.0751503
8 0.0806833
8.01 0.073857
8.02 0.0543132
8.03 0.0215516
8.04 -0.0223561
8.05 -0.0779133
8.06 -0.14199
8.07 -0.213362
8.08 -0.289586
8.09 -0.368268
8.1 -0.447036
8.11 -0.523738
8.12 -0.596012
8.13 -0.662405
8.14 -0.721677
8.15 -0.772506
8.16 -0.815532
8.17 -0.8497
8.18 -0.876841
8.19 -0.897446
8.2 -0.913047
8.21 -0.925323
8.22 -0.935624
8.23 -0.945586
8.24 -0.956372
8.25 -0.968711
8.26 -0.98283
8.27 -0.998413
8.28 -1.01437
8.29 -1.02884
8.3 -1.03967
8.31 -1.04379
8.32 -1.03767
8.33 -1.0187
8.34 -0.981032
8.35 -0.923911
8.36 -0.841631
8.37 -0.733336
8.38 -0.597225
8.39 -0.430751
8.4 -0.237462
8.41 -0.0145867
8.42 0.231378
8.43 0.498515
8.44 0.78137
8.45 1.07377
8.46 1.36946
8.47 1.66129
8.48 1.94118
8.49 2.20239
8.5 2.43831
8.51 2.64031
8.52 2.80709
8.53 2.92787
8.54 3.00541
8.55 3.0346
8.56 3.01531
8.57 2.95131
8.58 2.83936
8.59 2.68941
8.6 2.50145
8.61 2.28397
8.62 2.04258
8.63 1.78327
8.64 1.51412
8.65 1.24101
8.66 0.970803
8.67 0.709308
8.68 0.461978
8.69 0.231781
8.7 0.0247447
8.71 -0.160121
8.72 -0.318671
8.73 -0.452399
8.74 -0.561681
8.75 -0.64651
8.76 -0.711334
8.77 -0.755645
8.78 -0.784905
8.79 -0.800874
8.8 -0.806944
8.81 -0.806385
8.82 -0.801472
8.83 -0.795137
8.84 -0.789348
8.85 -0.785813
8.86 -0.785694
8.87 -0.790098
8.88 -0.798886
8.89 -0.812794
8.9 -0.830855
8.91 -0.852835
8.92 -0.877892
8.93 -0.905048
8.94 -0.933516
8.95 -0.962235
8.96 -0.990343
8.97 -1.01709
8.98 -1.04187
8.99 -1.06406
9 -1.08365
9.01 -1.10007
9.02 -1.11372
9.03 -1.12453
9.04 -1.13276
9.05 -1.13883
9.06 -1.14278
9.07 -1.14518
9.08 -1.14607
9.09 -1.1457
9.1 -1.14409
9.11 -1.14103
9.12 -1.13646
9.13 -1.12969
9.14 -1.12049
9.15 -1.10806
9.16 -1.09169
9.17 -1.07095
9.18 -1.04449
9.19 -1.01249
9.2 -0.973759
9.21 -0.928453
9.22 -0.87648
9.23 -0.817649
9.24 -0.75316
9.25 -0.682991
9.26 -0.608973
9.27 -0.532161
9.28 -0.454329
9.29 -0.377167
9.3 -0.302964
9.31 -0.233179
9.32 -0.170326
9.33 -0.115769
9.34 -0.0709552
9.35 -0.037849
9.36 -0.0159183
9.37 -0.00741652
9.38 -0.0105603
9.39 -0.0256798
9.4 -0.0516353
9.41 -0.086481
9.42 -0.129401
9.43 -0.177346
9.44 -0.228685
9.45 -0.280825
9.46 -0.331717
9.47 -0.379
9.48 -0.421459
9.49 -0.456729
9.5 -0.484729
9.51 -0.504418
9.52 -0.515777
9.53 -0.5197
9.54 -0.516147
9.55 -0.507307
9.56 -0.494057
9.57 -0.478454
9.58 -0.462126
9.59 -0.446958
9.6 -0.434266
9.61 -0.425974
9.62 -0.422587
9.63 -0.425145
9.64 -0.433989
9.65 -0.448691
9.66 -0.469605
9.67 -0.495223
9.68 -0.525193
9.69 -0.558114
9.7 -0.592951
9.71 -0.628604
9.72 -0.664081
9.73 -0.698434
9.74 -0.731189
9.75 -0.76185
9.76 -0.790223
9.77 -0.816437
9.78 -0.840301
9.79 -0.862244
9.8 -0.882058
9.81 -0.899722
9.82 -0.914822
9.83 -0.926275
9.84 -0.933334
9.85 -0.933326
9.86 -0.924865
9.87 -0.904703
9.88 -0.86949
9.89 -0.817134
9.9 -0.741277
9.91 -0.64188
9.92 -0.512745
9.93 -0.353056
9.94 -0.160945
9.95 0.0668526
9.96 0.326355
9.97 0.621264
9.98 0.944546
9.99 1.29447
10 1.66532
10.01 2.05006
10.02 2.44214
10.03 2.83276
10.04 3.21285
10.05 3.57382
10.06 3.90752
10.07 4.20297
10.08 4.45762
10.09 4.65785
10.1 4.80549
10.11 4.89351
10.12 4.92022
10.13 4.88961
10.14 4.79585
10.15 4.65103
10.16 4.45392
10.17 4.21456
10.18 3.93972
10.19 3.63607
10.2 3.31448
10.21 2.98151
10.22 2.64682
10.23 2.31764
10.24 2.00135
10.25 1.70232
10.26 1.42819
10.27 1.17866
10.28 0.9588
10.29 0.767427
10.3 0.60411
10.31 0.468999
10.32 0.356788
10.33 0.267751
10.34 0.195466
10.35 0.137498
10.36 0.0897113
10.37 0.0481753
10.38 0.00996373
10.39 -0.0281184
10.4 -0.0684337
10.41 -0.112657
10.42 -0.161844
10.43 -0.216944
10.44 -0.277316
10.45 -0.343303
10.46 -0.413365
10.47 -0.486702
10.48 -0.561879
10.49 -0.637503
10.5 -0.711995
10.51 -0.784197
10.52 -0.852527
10.53 -0.916066
10.54 -0.973942
10.55 -1.02493
10.56 -1.06928
10.57 -1.10547
10.58 -1.13429
10.59 -1.1551
10.6 -1.16795
10.61 -1.17345
10.62 -1.17084
10.63 -1.16151
10.64 -1.14502
10.65 -1.12231
10.66 -1.0939
10.67 -1.06011
10.68 -1.0222
10.69 -0.980438
10.7 -0.936214
10.71 -0.890314
10.72 -0.843887
10.73 -0.797952
10.74 -0.753842
10.75 -0.712336
10.76 -0.674798
10.77 -0.64194
10.78 -0.614489
10.79 -0.593508
10.8 -0.578673
10.81 -0.571225
10.82 -0.570275
10.83 -0.576088
10.84 -0.588253
10.85 -0.605853
10.86 -0.628858
10.87 -0.655753
10.88 -0.686133
10.89 -0.71884
10.9 -0.753054
10.91 -0.787939
10.92 -0.822724
10.93 -0.856651
10.94 -0.889265
10.95 -0.92005
10.96 -0.948651
10.97 -0.975016
10.98 -0.998691
10.99 -1.02001
11 -1.03873
11.01 -1.05509
11.02 -1.06921
11.03 -1.08112
11.04 -1.09122
11.05 -1.09947
11.06 -1.10631
11.07 -1.11187
11.08 -1.11644
11.09 -1.12033
11.1 -1.12377
11.11 -1.1271
11.12 -1.13057
11.13 -1.13439
11.14 -1.13869
11.15 -1.14353
11.16 -1.14874
11.17 -1.15402
11.18 -1.15882
11.19 -1.1623
11.2 -1.16331
11.21 -1.16078
11.22 -1.15235
11.23 -1.13704
11.24 -1.11192
11.25 -1.07531
11.26 -1.02524
11.27 -0.958406
11.28 -0.874985
11.29 -0.770614
11.3 -0.646749
11.31 -0.501576
11.32 -0.335225
11.33 -0.149928
11.34 0.0550792
11.35 0.274649
11.36 0.507222
11.37 0.747791
11.38 0.992061
11.39 1.23458
11.4 1.47063
11.41 1.69306
11.42 1.89806
11.43 2.07953
11.44 2.2324
11.45 2.35508
11.46 2.43976
11.47 2.48978
11.48 2.49988
11.49 2.47272
11.5 2.40958
11.51 2.3106
11.52 2.18283
11.53 2.02629
11.54 1.8493
11.55 1.65553
11.56 1.4509
11.57 1.24105
11.58 1.03123
11.59 0.826069
11.6 0.630421
11.61 0.44737
11.62 0.279339
11.63 0.129386
11.64 -0.00370741
11.65 -0.117222
11.66 -0.214272
11.67 -0.295122
11.68 -0.361828
11.69 -0.417433
11.7 -0.463217
11.71 -0.502999
11.72 -0.538524
11.73 -0.572334
11.74 -0.606112
11.75 -0.641366
11.76 -0.678693
11.77 -0.718745
11.78 -0.760946
11.79 -0.80472
11.8 -0.848795
11.81 -0.89178
11.82 -0.931476
11.83 -0.966489
11.84 -0.994227
11.85 -1.01312
11.86 -1.02157
11.87 -1.01713
11.88 -1.00015
11.89 -0.96772
11.9 -0.921243
11.91 -0.85977
11.92 -0.783666
11.93 -0.694643
11.94 -0.592159
11.95 -0.479532
11.96 -0.357341
11.97 -0.228289
11.98 -0.0944561
11.99 0.0418664
12 0.178182
12.01 0.31178
12.02 0.440547
12.03 0.561924
12.04 0.673482
12.05 0.774093
12.06 0.860118
12.07 0.93216
12.08 0.987298
12.09 1.02566
12.1 1.0469
12.11 1.04971
12.12 1.03651
12.13 1.00558
12.14 0.960216
12.15 0.900922
12.16 0.829628
12.17 0.749043
12.18 0.660421
12.19 0.56717
12.2 0.471165
12.21 0.375011
12.22 0.280711
12.23 0.190553
12.24 0.105531
12.25 0.0278071
12.26 -0.0426797
12.27 -0.105115
12.28 -0.159536
12.29 -0.20693
12.3 -0.247228
12.31 -0.282512
12.32 -0.313523
12.33 -0.342025
12.34 -0.369363
12.35 -0.396949
12.36 -0.425787
12.37 -0.457003
12.38 -0.490789
12.39 -0.527364
12.4 -0.566336
12.41 -0.606813
