# xPDFsuite Configuration #
[PDF]
wavelength = 0.1432
dataformat = twotheta
inputfile = 1_1Pd_CeO2_cycle-00313.chi
backgroundfile = background-00000.chi
mode = xray
bgscale = 1.007
composition = CeO2
outputtype = gr
qmaxinst = 28.8974762299
qmin = 0.5
qmax = 27.9
rmax = 50.0
rmin = 0.0
rstep = 0.01
rpoly = 1.8657

[Misc]
inputdir = G:/SankarDec16/1Pd/Chi
savedir = D:/DATA/APS_CeO2/1Pd
backgroundfilefull = G:/SankarDec16/Background/background-00000.chi

#### start data
#S 1
#L r($\AA$)  G($\AA^{-2}$)
0 0
0.01 -0.00637471
0.02 -0.0122691
0.03 -0.0171885
0.04 -0.0207605
0.05 -0.0227778
0.06 -0.0229072
0.07 -0.0213706
0.08 -0.018061
0.09 -0.0134021
0.1 -0.00768693
0.11 -0.00136428
0.12 0.00507656
0.13 0.0110866
0.14 0.0162769
0.15 0.0201713
0.16 0.0224911
0.17 0.0231249
0.18 0.0218457
0.19 0.01898
0.2 0.0145409
0.21 0.00902222
0.22 0.00278915
0.23 -0.00365447
0.24 -0.00984801
0.25 -0.0152
0.26 -0.0194313
0.27 -0.0221072
0.28 -0.0230558
0.29 -0.0222674
0.3 -0.0196321
0.31 -0.0155656
0.32 -0.0102004
0.33 -0.0040779
0.34 0.00238258
0.35 0.00864554
0.36 0.0143012
0.37 0.0187439
0.38 0.0218175
0.39 0.0231498
0.4 0.0226843
0.41 0.0205135
0.42 0.0166505
0.43 0.0115805
0.44 0.00554959
0.45 -0.000879139
0.46 -0.007252
0.47 -0.0130271
0.48 -0.0178654
0.49 -0.021176
0.5 -0.0229337
0.51 -0.0228469
0.52 -0.0209774
0.53 -0.0175163
0.54 -0.0125994
0.55 -0.00675874
0.56 -0.000342406
0.57 0.00609116
0.58 0.0120758
0.59 0.0170888
0.6 0.0208787
0.61 0.0228976
0.62 0.023253
0.63 0.0217482
0.64 0.0185613
0.65 0.0139729
0.66 0.0082361
0.67 0.00190432
0.68 -0.00458849
0.69 -0.010715
0.7 -0.016019
0.71 -0.0200217
0.72 -0.0225715
0.73 -0.0231897
0.74 -0.0221116
0.75 -0.0192447
0.76 -0.0148746
0.77 -0.00935768
0.78 -0.00305124
0.79 0.00349677
0.8 0.00978937
0.81 0.0153562
0.82 0.0197748
0.83 0.0226346
0.84 0.023892
0.85 0.0231628
0.86 0.0207973
0.87 0.0168122
0.88 0.0115849
0.89 0.00552739
0.9 -0.000920228
0.91 -0.00724798
0.92 -0.0129288
0.93 -0.0175803
0.94 -0.0208459
0.95 -0.0224183
0.96 -0.0223713
0.97 -0.020461
0.98 -0.017138
0.99 -0.01255
1 -0.0071589
1.01 -0.00141732
1.02 0.00415102
1.03 0.0091144
1.04 0.0129252
1.05 0.0153294
1.06 0.0160639
1.07 0.0149611
1.08 0.0122452
1.09 0.00785962
1.1 0.00238335
1.11 -0.00385496
1.12 -0.0102674
1.13 -0.0163271
1.14 -0.0213493
1.15 -0.0249729
1.16 -0.0265329
1.17 -0.0258877
1.18 -0.0228083
1.19 -0.0171973
1.2 -0.0094476
1.21 0.000440035
1.22 0.0116782
1.23 0.0238196
1.24 0.0361128
1.25 0.0478985
1.26 0.0583148
1.27 0.0669173
1.28 0.072849
1.29 0.0759
1.3 0.0757165
1.31 0.0720537
1.32 0.0653103
1.33 0.0552152
1.34 0.0426531
1.35 0.027887
1.36 0.0116446
1.37 -0.00539781
1.38 -0.0225294
1.39 -0.0390977
1.4 -0.0543538
1.41 -0.0678505
1.42 -0.0791184
1.43 -0.0877148
1.44 -0.093726
1.45 -0.0966112
1.46 -0.0968736
1.47 -0.0943847
1.48 -0.0894563
1.49 -0.0824335
1.5 -0.0734447
1.51 -0.0630482
1.52 -0.0513959
1.53 -0.0389268
1.54 -0.0258964
1.55 -0.0125872
1.56 0.000746678
1.57 0.0138352
1.58 0.0264875
1.59 0.0384341
1.6 0.0494413
1.61 0.0593209
1.62 0.0676593
1.63 0.0744072
1.64 0.0790675
1.65 0.0815774
1.66 0.0816785
1.67 0.0791059
1.68 0.0740487
1.69 0.0660772
1.7 0.0557305
1.71 0.0429895
1.72 0.0282819
1.73 0.0120892
1.74 -0.00513985
1.75 -0.0227037
1.76 -0.039964
1.77 -0.0562783
1.78 -0.0710422
1.79 -0.0836012
1.8 -0.0937941
1.81 -0.100885
1.82 -0.105222
1.83 -0.106601
1.84 -0.105374
1.85 -0.102027
1.86 -0.0969717
1.87 -0.0910616
1.88 -0.0849626
1.89 -0.0794678
1.9 -0.0752633
1.91 -0.0730787
1.92 -0.073133
1.93 -0.0761428
1.94 -0.0817383
1.95 -0.0900144
1.96 -0.10048
1.97 -0.112504
1.98 -0.125372
1.99 -0.138124
2 -0.149699
2.01 -0.15917
2.02 -0.165587
2.03 -0.167902
2.04 -0.165923
2.05 -0.158368
2.06 -0.145835
2.07 -0.127858
2.08 -0.104866
2.09 -0.077501
2.1 -0.0460367
2.11 -0.0117411
2.12 0.0248685
2.13 0.062697
2.14 0.10102
2.15 0.139095
2.16 0.17647
2.17 0.212635
2.18 0.247635
2.19 0.281416
2.2 0.314256
2.21 0.346517
2.22 0.378615
2.23 0.410971
2.24 0.443998
2.25 0.477862
2.26 0.5126
2.27 0.547995
2.28 0.583533
2.29 0.618338
2.3 0.651473
2.31 0.681512
2.32 0.706987
2.33 0.726698
2.34 0.738294
2.35 0.74152
2.36 0.733997
2.37 0.715813
2.38 0.686292
2.39 0.645026
2.4 0.593674
2.41 0.531686
2.42 0.462123
2.43 0.386151
2.44 0.306367
2.45 0.225185
2.46 0.145358
2.47 0.0690557
2.48 -0.000806994
2.49 -0.0627653
2.5 -0.115184
2.51 -0.156573
2.52 -0.187665
2.53 -0.206884
2.54 -0.216722
2.55 -0.217535
2.56 -0.211405
2.57 -0.200474
2.58 -0.186725
2.59 -0.17263
2.6 -0.160384
2.61 -0.151754
2.62 -0.148232
2.63 -0.151166
2.64 -0.16036
2.65 -0.176857
2.66 -0.199034
2.67 -0.226425
2.68 -0.257387
2.69 -0.290252
2.7 -0.32319
2.71 -0.354519
2.72 -0.382296
2.73 -0.405438
2.74 -0.42292
2.75 -0.433935
2.76 -0.439107
2.77 -0.437956
2.78 -0.432306
2.79 -0.422992
2.8 -0.411784
2.81 -0.400315
2.82 -0.390508
2.83 -0.383633
2.84 -0.381484
2.85 -0.384624
2.86 -0.393642
2.87 -0.408769
2.88 -0.428927
2.89 -0.453845
2.9 -0.481444
2.91 -0.510308
2.92 -0.538393
2.93 -0.563999
2.94 -0.58483
2.95 -0.600092
2.96 -0.607858
2.97 -0.608148
2.98 -0.600739
2.99 -0.58589
3 -0.565313
3.01 -0.539808
3.02 -0.512007
3.03 -0.483829
3.04 -0.457713
3.05 -0.43555
3.06 -0.419966
3.07 -0.411527
3.08 -0.412239
3.09 -0.421686
3.1 -0.439796
3.11 -0.465897
3.12 -0.497822
3.13 -0.534291
3.14 -0.572342
3.15 -0.609687
3.16 -0.643706
3.17 -0.672516
3.18 -0.693456
3.19 -0.706371
3.2 -0.709566
3.21 -0.704058
3.22 -0.690523
3.23 -0.670432
3.24 -0.646446
3.25 -0.620956
3.26 -0.597077
3.27 -0.577849
3.28 -0.566117
3.29 -0.563666
3.3 -0.573472
3.31 -0.594782
3.32 -0.629153
3.33 -0.674485
3.34 -0.729274
3.35 -0.790963
3.36 -0.85588
3.37 -0.920301
3.38 -0.980426
3.39 -1.03215
3.4 -1.07203
3.41 -1.09815
3.42 -1.10691
3.43 -1.09992
3.44 -1.07558
3.45 -1.03714
3.46 -0.986965
3.47 -0.928745
3.48 -0.867329
3.49 -0.807741
3.5 -0.754563
3.51 -0.712791
3.52 -0.686165
3.53 -0.676346
3.54 -0.6865
3.55 -0.713426
3.56 -0.756775
3.57 -0.810624
3.58 -0.869426
3.59 -0.924863
3.6 -0.969323
3.61 -0.989909
3.62 -0.980242
3.63 -0.928176
3.64 -0.825404
3.65 -0.667758
3.66 -0.44318
3.67 -0.158002
3.68 0.195697
3.69 0.608712
3.7 1.07635
3.71 1.59072
3.72 2.13637
3.73 2.70253
3.74 3.27059
3.75 3.8243
3.76 4.34556
3.77 4.82074
3.78 5.227
3.79 5.56066
3.8 5.80042
3.81 5.94602
3.82 5.99129
3.83 5.93073
3.84 5.77756
3.85 5.5229
3.86 5.19034
3.87 4.7843
3.88 4.32142
3.89 3.81828
3.9 3.28857
3.91 2.75094
3.92 2.22048
3.93 1.71118
3.94 1.23492
3.95 0.804239
3.96 0.421077
3.97 0.0988807
3.98 -0.169092
3.99 -0.378489
4 -0.533712
4.01 -0.641695
4.02 -0.704227
4.03 -0.734263
4.04 -0.735789
4.05 -0.719494
4.06 -0.692178
4.07 -0.66097
4.08 -0.631481
4.09 -0.609142
4.1 -0.596005
4.11 -0.59453
4.12 -0.60483
4.13 -0.625571
4.14 -0.655849
4.15 -0.69195
4.16 -0.731413
4.17 -0.770551
4.18 -0.80633
4.19 -0.835329
4.2 -0.856025
4.21 -0.864872
4.22 -0.862368
4.23 -0.846998
4.24 -0.819199
4.25 -0.78022
4.26 -0.730121
4.27 -0.671807
4.28 -0.60598
4.29 -0.535093
4.3 -0.460632
4.31 -0.384108
4.32 -0.306867
4.33 -0.229888
4.34 -0.153796
4.35 -0.0790622
4.36 -0.00586606
4.37 0.0658174
4.38 0.135811
4.39 0.204308
4.4 0.270954
4.41 0.33557
4.42 0.397608
4.43 0.456085
4.44 0.510469
4.45 0.558705
4.46 0.600343
4.47 0.633443
4.48 0.656745
4.49 0.66964
4.5 0.669823
4.51 0.65838
4.52 0.633514
4.53 0.596539
4.54 0.547846
4.55 0.488099
4.56 0.419775
4.57 0.343478
4.58 0.262361
4.59 0.17812
4.6 0.0931868
4.61 0.00951123
4.62 -0.0705788
4.63 -0.146025
4.64 -0.214882
4.65 -0.276799
4.66 -0.331237
4.67 -0.377813
4.68 -0.417652
4.69 -0.450367
4.7 -0.477861
4.71 -0.500706
4.72 -0.520207
4.73 -0.537534
4.74 -0.553572
4.75 -0.569277
4.76 -0.585248
4.77 -0.601848
4.78 -0.619203
4.79 -0.63723
4.8 -0.655587
4.81 -0.673818
4.82 -0.691403
4.83 -0.707737
4.84 -0.722274
4.85 -0.73471
4.86 -0.744456
4.87 -0.751749
4.88 -0.756317
4.89 -0.758624
4.9 -0.758994
4.91 -0.757905
4.92 -0.756041
4.93 -0.753978
4.94 -0.752341
4.95 -0.751684
4.96 -0.752444
4.97 -0.75481
4.98 -0.759123
4.99 -0.7651
5 -0.77279
5.01 -0.781762
5.02 -0.7917
5.03 -0.802208
5.04 -0.812874
5.05 -0.823331
5.06 -0.83334
5.07 -0.842694
5.08 -0.851328
5.09 -0.859296
5.1 -0.866613
5.11 -0.873466
5.12 -0.879879
5.13 -0.885878
5.14 -0.891312
5.15 -0.89576
5.16 -0.898791
5.17 -0.899183
5.18 -0.89616
5.19 -0.888054
5.2 -0.873215
5.21 -0.850392
5.22 -0.816583
5.23 -0.771614
5.24 -0.71241
5.25 -0.638873
5.26 -0.550079
5.27 -0.445094
5.28 -0.326052
5.29 -0.191961
5.3 -0.0468656
5.31 0.107564
5.32 0.267533
5.33 0.429202
5.34 0.587811
5.35 0.739411
5.36 0.878202
5.37 1.00054
5.38 1.10229
5.39 1.17849
5.4 1.2293
5.41 1.24832
5.42 1.23907
5.43 1.1993
5.44 1.13089
5.45 1.03736
5.46 0.919292
5.47 0.783695
5.48 0.632977
5.49 0.473416
5.5 0.309572
5.51 0.146701
5.52 -0.0111619
5.53 -0.15856
5.54 -0.293573
5.55 -0.412619
5.56 -0.514111
5.57 -0.598183
5.58 -0.662737
5.59 -0.711119
5.6 -0.7427
5.61 -0.76083
5.62 -0.767429
5.63 -0.764607
5.64 -0.755502
5.65 -0.741541
5.66 -0.725237
5.67 -0.70777
5.68 -0.690168
5.69 -0.672822
5.7 -0.655691
5.71 -0.638271
5.72 -0.619651
5.73 -0.598834
5.74 -0.574728
5.75 -0.545973
5.76 -0.512265
5.77 -0.472124
5.78 -0.426269
5.79 -0.3745
5.8 -0.317752
5.81 -0.257408
5.82 -0.194927
5.83 -0.132487
5.84 -0.0724119
5.85 -0.0169193
5.86 0.0318088
5.87 0.0711225
5.88 0.100435
5.89 0.116577
5.9 0.120556
5.91 0.111104
5.92 0.0887956
5.93 0.0550998
5.94 0.0101915
5.95 -0.0427459
5.96 -0.10261
5.97 -0.166546
5.98 -0.23251
5.99 -0.298233
6 -0.362031
6.01 -0.42182
6.02 -0.477014
6.03 -0.526562
6.04 -0.570302
6.05 -0.608725
6.06 -0.641842
6.07 -0.671193
6.08 -0.697398
6.09 -0.721892
6.1 -0.745691
6.11 -0.769835
6.12 -0.794949
6.13 -0.821685
6.14 -0.849911
6.15 -0.879503
6.16 -0.909821
6.17 -0.940072
6.18 -0.969089
6.19 -0.995994
6.2 -1.01939
6.21 -1.03858
6.22 -1.05285
6.23 -1.06152
6.24 -1.06517
6.25 -1.06339
6.26 -1.05768
6.27 -1.04876
6.28 -1.03808
6.29 -1.027
6.3 -1.01703
6.31 -1.00909
6.32 -1.00423
6.33 -1.00245
6.34 -1.00336
6.35 -1.00576
6.36 -1.00765
6.37 -1.00572
6.38 -0.996888
6.39 -0.976405
6.4 -0.939322
6.41 -0.882019
6.42 -0.796322
6.43 -0.681637
6.44 -0.529984
6.45 -0.34097
6.46 -0.112342
6.47 0.158542
6.48 0.4662
6.49 0.813574
6.5 1.19073
6.51 1.59407
6.52 2.01482
6.53 2.44383
6.54 2.87062
6.55 3.28532
6.56 3.67493
6.57 4.03018
6.58 4.34119
6.59 4.59548
6.6 4.79223
6.61 4.91524
6.62 4.97067
6.63 4.95136
6.64 4.85899
6.65 4.7001
6.66 4.47201
6.67 4.19052
6.68 3.85745
6.69 3.48681
6.7 3.08798
6.71 2.67165
6.72 2.24951
6.73 1.83241
6.74 1.42928
6.75 1.04948
6.76 0.70039
6.77 0.385321
6.78 0.112922
6.79 -0.120537
6.8 -0.309496
6.81 -0.458392
6.82 -0.568957
6.83 -0.642911
6.84 -0.687958
6.85 -0.704621
6.86 -0.701653
6.87 -0.68222
6.88 -0.65157
6.89 -0.614135
6.9 -0.573194
6.91 -0.531996
6.92 -0.492799
6.93 -0.457018
6.94 -0.425492
6.95 -0.398802
6.96 -0.376327
6.97 -0.358303
6.98 -0.343564
6.99 -0.331802
7 -0.322429
7.01 -0.315006
7.02 -0.309655
7.03 -0.306241
7.04 -0.305427
7.05 -0.307651
7.06 -0.313644
7.07 -0.32452
7.08 -0.340462
7.09 -0.36305
7.1 -0.391837
7.11 -0.427476
7.12 -0.469687
7.13 -0.517612
7.14 -0.570934
7.15 -0.627743
7.16 -0.686909
7.17 -0.746469
7.18 -0.804739
7.19 -0.859648
7.2 -0.910052
7.21 -0.953597
7.22 -0.990102
7.23 -1.01832
7.24 -1.03808
7.25 -1.05003
7.26 -1.05391
7.27 -1.0518
7.28 -1.04433
7.29 -1.03353
7.3 -1.02093
7.31 -1.00823
7.32 -0.996769
7.33 -0.988087
7.34 -0.982592
7.35 -0.98084
7.36 -0.98256
7.37 -0.986883
7.38 -0.992688
7.39 -0.998115
7.4 -1.0009
7.41 -0.998742
7.42 -0.98922
7.43 -0.969115
7.44 -0.937439
7.45 -0.889998
7.46 -0.827319
7.47 -0.747219
7.48 -0.649521
7.49 -0.535557
7.5 -0.404504
7.51 -0.260408
7.52 -0.104162
7.53 0.0601535
7.54 0.229337
7.55 0.399394
7.56 0.566618
7.57 0.726039
7.58 0.874839
7.59 1.00871
7.6 1.12441
7.61 1.22059
7.62 1.29245
7.63 1.34199
7.64 1.36565
7.65 1.36534
7.66 1.34149
7.67 1.29417
7.68 1.22755
7.69 1.14096
7.7 1.03966
7.71 0.925266
7.72 0.801196
7.73 0.670827
7.74 0.536909
7.75 0.402812
7.76 0.271512
7.77 0.145622
7.78 0.0274837
7.79 -0.0800231
7.8 -0.17635
7.81 -0.25793
7.82 -0.32553
7.83 -0.37727
7.84 -0.412857
7.85 -0.433211
7.86 -0.436811
7.87 -0.426699
7.88 -0.402363
7.89 -0.366491
7.9 -0.320805
7.91 -0.267249
7.92 -0.208939
7.93 -0.148107
7.94 -0.0878648
7.95 -0.0309559
7.96 0.0197422
7.97 0.062346
7.98 0.0933157
7.99 0.112548
8 0.117207
8.01 0.107577
8.02 0.0834116
8.03 0.0443743
8.04 -0.00698398
8.05 -0.0709053
8.06 -0.143686
8.07 -0.223669
8.08 -0.307899
8.09 -0.393623
8.1 -0.477905
8.11 -0.558514
8.12 -0.632673
8.13 -0.698972
8.14 -0.756174
8.15 -0.802984
8.16 -0.840464
8.17 -0.867673
8.18 -0.887023
8.19 -0.89937
8.2 -0.906757
8.21 -0.91128
8.22 -0.914843
8.23 -0.919308
8.24 -0.926306
8.25 -0.936666
8.26 -0.950727
8.27 -0.968284
8.28 -0.987924
8.29 -1.00784
8.3 -1.02535
8.31 -1.0371
8.32 -1.03911
8.33 -1.02833
8.34 -0.998417
8.35 -0.948262
8.36 -0.871668
8.37 -0.767544
8.38 -0.633863
8.39 -0.467824
8.4 -0.273156
8.41 -0.0468665
8.42 0.204123
8.43 0.477778
8.44 0.768288
8.45 1.06907
8.46 1.37352
8.47 1.67401
8.48 1.96206
8.49 2.23055
8.5 2.47258
8.51 2.67914
8.52 2.84892
8.53 2.9708
8.54 3.04775
8.55 3.0746
8.56 3.05139
8.57 2.98216
8.58 2.86381
8.59 2.70674
8.6 2.51117
8.61 2.28597
8.62 2.03705
8.63 1.77072
8.64 1.49523
8.65 1.2168
8.66 0.942308
8.67 0.677726
8.68 0.428526
8.69 0.197584
8.7 -0.00900837
8.71 -0.192512
8.72 -0.34881
8.73 -0.479632
8.74 -0.585507
8.75 -0.666589
8.76 -0.727506
8.77 -0.767887
8.78 -0.793314
8.79 -0.805645
8.8 -0.808343
8.81 -0.804703
8.82 -0.797056
8.83 -0.788291
8.84 -0.780403
8.85 -0.775057
8.86 -0.773399
8.87 -0.776535
8.88 -0.78429
8.89 -0.797438
8.9 -0.814993
8.91 -0.836762
8.92 -0.861935
8.93 -0.889548
8.94 -0.918898
8.95 -0.948893
8.96 -0.978742
8.97 -1.00766
8.98 -1.03504
8.99 -1.06021
9 -1.08307
9.01 -1.10298
9.02 -1.1202
9.03 -1.13453
9.04 -1.14606
9.05 -1.15508
9.06 -1.16142
9.07 -1.1656
9.08 -1.16744
9.09 -1.16717
9.1 -1.16474
9.11 -1.15991
9.12 -1.15273
9.13 -1.1425
9.14 -1.1292
9.15 -1.11217
9.16 -1.09091
9.17 -1.06522
9.18 -1.03398
9.19 -0.997603
9.2 -0.955149
9.21 -0.906924
9.22 -0.852983
9.23 -0.793311
9.24 -0.729029
9.25 -0.660275
9.26 -0.588661
9.27 -0.515194
9.28 -0.441458
9.29 -0.368907
9.3 -0.299626
9.31 -0.234787
9.32 -0.176644
9.33 -0.126323
9.34 -0.0850712
9.35 -0.0546114
9.36 -0.0343973
9.37 -0.0264523
9.38 -0.0291303
9.39 -0.0427346
9.4 -0.0662454
9.41 -0.0979151
9.42 -0.137054
9.43 -0.180909
9.44 -0.228059
9.45 -0.276168
9.46 -0.323398
9.47 -0.367636
9.48 -0.407745
9.49 -0.441603
9.5 -0.46907
9.51 -0.489176
9.52 -0.501847
9.53 -0.507834
9.54 -0.507039
9.55 -0.501389
9.56 -0.491616
9.57 -0.479543
9.58 -0.466614
9.59 -0.454499
9.6 -0.444409
9.61 -0.438058
9.62 -0.435953
9.63 -0.439051
9.64 -0.447704
9.65 -0.461572
9.66 -0.481021
9.67 -0.504735
9.68 -0.532444
9.69 -0.562919
9.7 -0.595252
9.71 -0.628485
9.72 -0.661717
9.73 -0.694123
9.74 -0.725246
9.75 -0.754637
9.76 -0.782096
9.77 -0.807701
9.78 -0.831245
9.79 -0.853053
9.8 -0.872868
9.81 -0.890587
9.82 -0.905739
9.83 -0.917193
9.84 -0.924184
9.85 -0.924028
9.86 -0.915372
9.87 -0.895004
9.88 -0.859641
9.89 -0.807251
9.9 -0.731574
9.91 -0.632605
9.92 -0.504232
9.93 -0.345653
9.94 -0.155002
9.95 0.0709902
9.96 0.328434
9.97 0.621091
9.98 0.942067
9.99 1.28976
10 1.65862
10.01 2.04172
10.02 2.43273
10.03 2.82287
10.04 3.20323
10.05 3.5652
10.06 3.90065
10.07 4.19856
10.08 4.45621
10.09 4.65988
10.1 4.81117
10.11 4.90284
10.12 4.93294
10.13 4.90527
10.14 4.81371
10.15 4.67027
10.16 4.47349
10.17 4.2334
10.18 3.95676
10.19 3.65025
10.2 3.32496
10.21 2.98753
10.22 2.64796
10.23 2.31372
10.24 1.99249
10.25 1.68891
10.26 1.41097
10.27 1.15847
10.28 0.936778
10.29 0.744734
10.3 0.581927
10.31 0.448517
10.32 0.338943
10.33 0.253397
10.34 0.185089
10.35 0.131329
10.36 0.087638
10.37 0.0498152
10.38 0.0145623
10.39 -0.021428
10.4 -0.0607875
10.41 -0.105196
10.42 -0.155694
10.43 -0.213189
10.44 -0.276745
10.45 -0.346538
10.46 -0.42063
10.47 -0.497899
10.48 -0.576524
10.49 -0.654841
10.5 -0.730842
10.51 -0.803329
10.52 -0.870451
10.53 -0.931373
10.54 -0.985318
10.55 -1.03121
10.56 -1.06972
10.57 -1.09964
10.58 -1.12227
10.59 -1.13745
10.6 -1.14571
10.61 -1.14802
10.62 -1.14419
10.63 -1.13559
10.64 -1.12213
10.65 -1.10457
10.66 -1.08326
10.67 -1.05828
10.68 -1.03028
10.69 -0.999069
10.7 -0.965294
10.71 -0.929072
10.72 -0.890811
10.73 -0.85106
10.74 -0.810264
10.75 -0.769219
10.76 -0.728704
10.77 -0.689608
10.78 -0.652814
10.79 -0.61958
10.8 -0.590405
10.81 -0.566978
10.82 -0.549439
10.83 -0.538878
10.84 -0.535877
10.85 -0.540232
10.86 -0.553084
10.87 -0.573103
10.88 -0.600759
10.89 -0.634882
10.9 -0.674651
10.91 -0.719246
10.92 -0.767004
10.93 -0.81694
10.94 -0.867376
10.95 -0.916992
10.96 -0.964316
10.97 -1.00838
10.98 -1.04748
10.99 -1.08147
11 -1.10905
11.01 -1.13026
11.02 -1.14501
11.03 -1.15308
11.04 -1.15565
11.05 -1.15266
11.06 -1.14573
11.07 -1.13569
11.08 -1.12386
11.09 -1.11152
11.1 -1.10005
11.11 -1.09044
11.12 -1.08395
11.13 -1.08119
11.14 -1.08256
11.15 -1.08847
11.16 -1.09815
11.17 -1.1114
11.18 -1.12662
11.19 -1.14244
11.2 -1.15673
11.21 -1.16755
11.22 -1.1715
11.23 -1.16696
11.24 -1.15006
11.25 -1.11876
11.26 -1.07076
11.27 -1.00248
11.28 -0.914592
11.29 -0.80266
11.3 -0.669072
11.31 -0.512547
11.32 -0.334087
11.33 -0.136738
11.34 0.0792964
11.35 0.308283
11.36 0.547812
11.37 0.792539
11.38 1.03792
11.39 1.27824
11.4 1.50929
11.41 1.72389
11.42 1.91913
11.43 2.08943
11.44 2.23058
11.45 2.34176
11.46 2.41608
11.47 2.45741
11.48 2.46131
11.49 2.4307
11.5 2.36707
11.51 2.27077
11.52 2.14832
11.53 1.99973
11.54 1.83244
11.55 1.64956
11.56 1.45618
11.57 1.25721
11.58 1.057
11.59 0.85968
11.6 0.669373
11.61 0.488923
11.62 0.320605
11.63 0.167313
11.64 0.0283903
11.65 -0.0933687
11.66 -0.2002
11.67 -0.291799
11.68 -0.3694
11.69 -0.435342
11.7 -0.489995
11.71 -0.536782
11.72 -0.57672
11.73 -0.612183
11.74 -0.644757
11.75 -0.67585
11.76 -0.706655
11.77 -0.73797
11.78 -0.770107
11.79 -0.803097
11.8 -0.836504
11.81 -0.869625
11.82 -0.901196
11.83 -0.930159
11.84 -0.954646
11.85 -0.973202
11.86 -0.984291
11.87 -0.985527
11.88 -0.976616
11.89 -0.954452
11.9 -0.919516
11.91 -0.870219
11.92 -0.806052
11.93 -0.728031
11.94 -0.634632
11.95 -0.528848
11.96 -0.410502
11.97 -0.282179
11.98 -0.145896
11.99 -0.00385841
12 0.14077
12.01 0.285132
12.02 0.426164
12.03 0.560682
12.04 0.685389
12.05 0.798438
12.06 0.895236
12.07 0.976004
12.08 1.03707
12.09 1.07839
12.1 1.09952
12.11 1.09902
12.12 1.0799
12.13 1.04053
12.14 0.985071
12.15 0.914588
12.16 0.831799
12.17 0.740095
12.18 0.641577
12.19 0.540057
12.2 0.438089
12.21 0.338473
12.22 0.243335
12.23 0.155112
12.24 0.0742961
12.25 0.00300774
12.26 -0.0595731
12.27 -0.113095
12.28 -0.158274
12.29 -0.196691
12.3 -0.229004
12.31 -0.257654
12.32 -0.28397
12.33 -0.309894
12.34 -0.336881
12.35 -0.366486
12.36 -0.399294
12.37 -0.436409
12.38 -0.477388
12.39 -0.522076
12.4 -0.569517
12.41 -0.618327
12.42 -0.666752
