# xPDFsuite Configuration #
[PDF]
wavelength = 0.1432
dataformat = twotheta
inputfile = 1_1Pd_CeO2_cycle-00064.chi
backgroundfile = background-00000.chi
mode = xray
bgscale = 1.007
composition = CeO2
outputtype = gr
qmaxinst = 28.8974762299
qmin = 0.5
qmax = 27.9
rmax = 50.0
rmin = 0.0
rstep = 0.01
rpoly = 1.8657

[Misc]
inputdir = G:/SankarDec16/1Pd/Chi
savedir = D:/DATA/APS_CeO2/1Pd
backgroundfilefull = G:/SankarDec16/Background/background-00000.chi

#### start data
#S 1
#L r($\AA$)  G($\AA^{-2}$)
0 0
0.01 -0.00564027
0.02 -0.0108552
0.03 -0.0152069
0.04 -0.0183657
0.05 -0.0201481
0.06 -0.0202594
0.07 -0.0188963
0.08 -0.0159645
0.09 -0.0118394
0.1 -0.0067808
0.11 -0.00118631
0.12 0.00451094
0.13 0.00982462
0.14 0.014411
0.15 0.0178488
0.16 0.0198919
0.17 0.0204425
0.18 0.0193008
0.19 0.0167564
0.2 0.012822
0.21 0.00793549
0.22 0.00242057
0.23 -0.00327631
0.24 -0.00874795
0.25 -0.0134706
0.26 -0.0171987
0.27 -0.0195482
0.28 -0.0203687
0.29 -0.0196528
0.3 -0.0173052
0.31 -0.0136949
0.32 -0.00894099
0.33 -0.00352286
0.34 0.00218771
0.35 0.00771676
0.36 0.0127029
0.37 0.0166105
0.38 0.0193039
0.39 0.0204554
0.4 0.0200173
0.41 0.0180736
0.42 0.0146385
0.43 0.0101423
0.44 0.0048048
0.45 -0.00087582
0.46 -0.00649803
0.47 -0.011583
0.48 -0.0158331
0.49 -0.0187269
0.5 -0.0202454
0.51 -0.0201333
0.52 -0.0184485
0.53 -0.0153623
0.54 -0.0109981
0.55 -0.00582692
0.56 -0.000158932
0.57 0.00551317
0.58 0.0107777
0.59 0.015174
0.6 0.0184831
0.61 0.020223
0.62 0.0204929
0.63 0.0191226
0.64 0.016273
0.65 0.0121946
0.66 0.0071147
0.67 0.00152192
0.68 -0.00419819
0.69 -0.00958197
0.7 -0.0142278
0.71 -0.0177155
0.72 -0.0199153
0.73 -0.0204083
0.74 -0.0194066
0.75 -0.016833
0.76 -0.0129432
0.77 -0.00805414
0.78 -0.00248435
0.79 0.0032841
0.8 0.0088115
0.81 0.0136865
0.82 0.0175391
0.83 0.0200117
0.84 0.0210704
0.85 0.0203824
0.86 0.0182605
0.87 0.0147246
0.88 0.0101105
0.89 0.00478226
0.9 -0.000870007
0.91 -0.00640095
0.92 -0.0113476
0.93 -0.0153797
0.94 -0.0181891
0.95 -0.0195135
0.96 -0.0194246
0.97 -0.0177194
0.98 -0.0147983
0.99 -0.0108008
1 -0.0061371
1.01 -0.00120642
1.02 0.00352622
1.03 0.00768957
1.04 0.010803
1.05 0.0126555
1.06 0.0130256
1.07 0.0117805
1.08 0.00913076
1.09 0.00504768
1.1 5.11088e-05
1.11 -0.00554991
1.12 -0.0112251
1.13 -0.016503
1.14 -0.0207617
1.15 -0.0236917
1.16 -0.0246918
1.17 -0.0236499
1.18 -0.0203671
1.19 -0.0147651
1.2 -0.00721077
1.21 0.0022877
1.22 0.013008
1.23 0.0245371
1.24 0.0361866
1.25 0.0473523
1.26 0.0572406
1.27 0.0654438
1.28 0.0711671
1.29 0.0742112
1.3 0.0742394
1.31 0.0710085
1.32 0.0648756
1.33 0.0555574
1.34 0.043864
1.35 0.0300093
1.36 0.0146516
1.37 -0.00158978
1.38 -0.018079
1.39 -0.0341891
1.4 -0.0492346
1.41 -0.0627667
1.42 -0.0743258
1.43 -0.0834642
1.44 -0.0902175
1.45 -0.0940318
1.46 -0.0953322
1.47 -0.093946
1.48 -0.0901226
1.49 -0.0841586
1.5 -0.0761268
1.51 -0.0665673
1.52 -0.0555943
1.53 -0.0436553
1.54 -0.0310098
1.55 -0.0179576
1.56 -0.00479224
1.57 0.0081913
1.58 0.0207571
1.59 0.0326056
1.6 0.0434772
1.61 0.0531733
1.62 0.0612766
1.63 0.06776
1.64 0.0721565
1.65 0.07445
1.66 0.0744354
1.67 0.0719182
1.68 0.0671236
1.69 0.0597186
1.7 0.0502358
1.71 0.0387056
1.72 0.0255426
1.73 0.011188
1.74 -0.00394305
1.75 -0.0192612
1.76 -0.0342216
1.77 -0.0483158
1.78 -0.0610692
1.79 -0.0719859
1.8 -0.080982
1.81 -0.0875229
1.82 -0.0919397
1.83 -0.0941314
1.84 -0.0944276
1.85 -0.0932421
1.86 -0.0909479
1.87 -0.0881888
1.88 -0.0854946
1.89 -0.0834203
1.9 -0.082439
1.91 -0.0830192
1.92 -0.0852317
1.93 -0.0894693
1.94 -0.095354
1.95 -0.102798
1.96 -0.111309
1.97 -0.120339
1.98 -0.129189
1.99 -0.137199
2 -0.143467
2.01 -0.147418
2.02 -0.148398
2.03 -0.14574
2.04 -0.1395
2.05 -0.128869
2.06 -0.114519
2.07 -0.0962909
2.08 -0.0746857
2.09 -0.0502917
2.1 -0.0234615
2.11 0.00491756
2.12 0.0344331
2.13 0.0644476
2.14 0.0945933
2.15 0.124592
2.16 0.154378
2.17 0.184012
2.18 0.21376
2.19 0.243998
2.2 0.275199
2.21 0.307756
2.22 0.342306
2.23 0.378886
2.24 0.417915
2.25 0.459064
2.26 0.502019
2.27 0.546077
2.28 0.590234
2.29 0.633024
2.3 0.673134
2.31 0.708633
2.32 0.737733
2.33 0.759099
2.34 0.770043
2.35 0.770623
2.36 0.758347
2.37 0.733765
2.38 0.696513
2.39 0.646635
2.4 0.586339
2.41 0.515629
2.42 0.438054
2.43 0.355325
2.44 0.270449
2.45 0.186062
2.46 0.105349
2.47 0.0302471
2.48 -0.0361146
2.49 -0.0926779
2.5 -0.138059
2.51 -0.171163
2.52 -0.193287
2.53 -0.203348
2.54 -0.204403
2.55 -0.197355
2.56 -0.184757
2.57 -0.169041
2.58 -0.152686
2.59 -0.138015
2.6 -0.127515
2.61 -0.122619
2.62 -0.124631
2.63 -0.134569
2.64 -0.151686
2.65 -0.176599
2.66 -0.207081
2.67 -0.242135
2.68 -0.279605
2.69 -0.317484
2.7 -0.353406
2.71 -0.385751
2.72 -0.412224
2.73 -0.431998
2.74 -0.44417
2.75 -0.448189
2.76 -0.445207
2.77 -0.435085
2.78 -0.420282
2.79 -0.402135
2.8 -0.382958
2.81 -0.36477
2.82 -0.35007
2.83 -0.34016
2.84 -0.337264
2.85 -0.341792
2.86 -0.354306
2.87 -0.374901
2.88 -0.402028
2.89 -0.435228
2.9 -0.471789
2.91 -0.509891
2.92 -0.546964
2.93 -0.580907
2.94 -0.608892
2.95 -0.629972
2.96 -0.641792
2.97 -0.644393
2.98 -0.637487
2.99 -0.621348
3 -0.598028
3.01 -0.568367
3.02 -0.535514
3.03 -0.501649
3.04 -0.469618
3.05 -0.441642
3.06 -0.420726
3.07 -0.407622
3.08 -0.404637
3.09 -0.411395
3.1 -0.427882
3.11 -0.453424
3.12 -0.485644
3.13 -0.523206
3.14 -0.562814
3.15 -0.601982
3.16 -0.63781
3.17 -0.668196
3.18 -0.690216
3.19 -0.703624
3.2 -0.706537
3.21 -0.7
3.22 -0.684699
3.23 -0.662176
3.24 -0.635295
3.25 -0.606591
3.26 -0.579447
3.27 -0.557134
3.28 -0.542745
3.29 -0.538239
3.3 -0.546862
3.31 -0.567866
3.32 -0.602997
3.33 -0.650064
3.34 -0.707526
3.35 -0.772726
3.36 -0.84175
3.37 -0.910723
3.38 -0.975537
3.39 -1.03185
3.4 -1.07595
3.41 -1.10573
3.42 -1.11729
3.43 -1.11223
3.44 -1.08874
3.45 -1.05013
3.46 -0.998764
3.47 -0.938406
3.48 -0.874127
3.49 -0.811045
3.5 -0.754043
3.51 -0.708317
3.52 -0.67786
3.53 -0.664527
3.54 -0.671744
3.55 -0.696385
3.56 -0.73831
3.57 -0.791593
3.58 -0.850724
3.59 -0.907394
3.6 -0.953834
3.61 -0.977156
3.62 -0.970746
3.63 -0.922362
3.64 -0.823523
3.65 -0.669917
3.66 -0.449343
3.67 -0.168025
3.68 0.182074
3.69 0.5918
3.7 1.05651
3.71 1.56835
3.72 2.11184
3.73 2.67624
3.74 3.2429
3.75 3.79555
3.76 4.31609
3.77 4.79085
3.78 5.19704
3.79 5.53093
3.8 5.77129
3.81 5.91785
3.82 5.96446
3.83 5.90566
3.84 5.75462
3.85 5.50252
3.86 5.17283
3.87 4.76996
3.88 4.31043
3.89 3.81072
3.9 3.28435
3.91 2.74983
3.92 2.22208
3.93 1.71493
3.94 1.24013
3.95 0.810037
3.96 0.426626
3.97 0.10315
3.98 -0.166965
3.99 -0.37937
4 -0.538303
4.01 -0.65049
4.02 -0.717507
4.03 -0.752012
4.04 -0.757679
4.05 -0.74491
4.06 -0.720226
4.07 -0.69043
4.08 -0.661074
4.09 -0.637218
4.1 -0.621088
4.11 -0.615038
4.12 -0.619343
4.13 -0.632923
4.14 -0.655066
4.15 -0.682519
4.16 -0.713176
4.17 -0.743815
4.18 -0.771815
4.19 -0.794253
4.2 -0.809814
4.21 -0.815539
4.22 -0.811856
4.23 -0.797536
4.24 -0.772972
4.25 -0.739212
4.26 -0.696296
4.27 -0.646571
4.28 -0.590503
4.29 -0.529969
4.3 -0.465997
4.31 -0.399542
4.32 -0.331552
4.33 -0.262367
4.34 -0.192455
4.35 -0.12187
4.36 -0.0506541
4.37 0.0211628
4.38 0.0935754
4.39 0.166305
4.4 0.238945
4.41 0.310788
4.42 0.380906
4.43 0.447837
4.44 0.510581
4.45 0.566546
4.46 0.614959
4.47 0.653456
4.48 0.680523
4.49 0.695478
4.5 0.695751
4.51 0.682733
4.52 0.654558
4.53 0.612931
4.54 0.558508
4.55 0.492305
4.56 0.417225
4.57 0.334271
4.58 0.24696
4.59 0.157358
4.6 0.0681847
4.61 -0.018471
4.62 -0.0999825
4.63 -0.175452
4.64 -0.242785
4.65 -0.301872
4.66 -0.352316
4.67 -0.393932
4.68 -0.428182
4.69 -0.454891
4.7 -0.476297
4.71 -0.493224
4.72 -0.507229
4.73 -0.519636
4.74 -0.531567
4.75 -0.54396
4.76 -0.557566
4.77 -0.572666
4.78 -0.589359
4.79 -0.607514
4.8 -0.626616
4.81 -0.646184
4.82 -0.665503
4.83 -0.683894
4.84 -0.700704
4.85 -0.715546
4.86 -0.727786
4.87 -0.737611
4.88 -0.744736
4.89 -0.749614
4.9 -0.752572
4.91 -0.754088
4.92 -0.754841
4.93 -0.755389
4.94 -0.756327
4.95 -0.758157
4.96 -0.761246
4.97 -0.765717
4.98 -0.771779
4.99 -0.779107
5 -0.7876
5.01 -0.796789
5.02 -0.806294
5.03 -0.815656
5.04 -0.824543
5.05 -0.832533
5.06 -0.839568
5.07 -0.845518
5.08 -0.850499
5.09 -0.854742
5.1 -0.858485
5.11 -0.862089
5.12 -0.865825
5.13 -0.869853
5.14 -0.874167
5.15 -0.878491
5.16 -0.882326
5.17 -0.884586
5.18 -0.884271
5.19 -0.879655
5.2 -0.868874
5.21 -0.850446
5.22 -0.821121
5.23 -0.780466
5.24 -0.725114
5.25 -0.654759
5.26 -0.568278
5.27 -0.464533
5.28 -0.345687
5.29 -0.210553
5.3 -0.0633958
5.31 0.0940855
5.32 0.257887
5.33 0.423922
5.34 0.587192
5.35 0.743439
5.36 0.886563
5.37 1.01266
5.38 1.11737
5.39 1.19549
5.4 1.24717
5.41 1.26575
5.42 1.25497
5.43 1.21256
5.44 1.1406
5.45 1.04282
5.46 0.920051
5.47 0.779604
5.48 0.624185
5.49 0.460358
5.5 0.292934
5.51 0.12745
5.52 -0.0320088
5.53 -0.179692
5.54 -0.313821
5.55 -0.430744
5.56 -0.528994
5.57 -0.6089
5.58 -0.668476
5.59 -0.711395
5.6 -0.73723
5.61 -0.749618
5.62 -0.750709
5.63 -0.742875
5.64 -0.729372
5.65 -0.711898
5.66 -0.692944
5.67 -0.673816
5.68 -0.655531
5.69 -0.6384
5.7 -0.622408
5.71 -0.606839
5.72 -0.590757
5.73 -0.572986
5.74 -0.55233
5.75 -0.527329
5.76 -0.497558
5.77 -0.461481
5.78 -0.419738
5.79 -0.372093
5.8 -0.319444
5.81 -0.263158
5.82 -0.204663
5.83 -0.14612
5.84 -0.0898055
5.85 -0.0378933
5.86 0.00750102
5.87 0.0438369
5.88 0.0705831
5.89 0.0847691
5.9 0.0874385
5.91 0.0774961
5.92 0.0556153
5.93 0.0232951
5.94 -0.0191145
5.95 -0.0685696
5.96 -0.123876
5.97 -0.182355
5.98 -0.242081
5.99 -0.300957
6 -0.357574
6.01 -0.410098
6.02 -0.458246
6.03 -0.501275
6.04 -0.539336
6.05 -0.57312
6.06 -0.603029
6.07 -0.63058
6.08 -0.656695
6.09 -0.682717
6.1 -0.709649
6.11 -0.738481
6.12 -0.769507
6.13 -0.803292
6.14 -0.839244
6.15 -0.876956
6.16 -0.915389
6.17 -0.953415
6.18 -0.989423
6.19 -1.02234
6.2 -1.05036
6.21 -1.07269
6.22 -1.08846
6.23 -1.09685
6.24 -1.09865
6.25 -1.0933
6.26 -1.08271
6.27 -1.0677
6.28 -1.05004
6.29 -1.03142
6.3 -1.01363
6.31 -0.997947
6.32 -0.985754
6.33 -0.977302
6.34 -0.972447
6.35 -0.970245
6.36 -0.96872
6.37 -0.964865
6.38 -0.955421
6.39 -0.935754
6.4 -0.900831
6.41 -0.846874
6.42 -0.765709
6.43 -0.656437
6.44 -0.511013
6.45 -0.328789
6.46 -0.10734
6.47 0.156168
6.48 0.456443
6.49 0.796634
6.5 1.16695
6.51 1.56398
6.52 1.9791
6.53 2.40326
6.54 2.82619
6.55 3.23799
6.56 3.62587
6.57 3.98051
6.58 4.29207
6.59 4.54815
6.6 4.74771
6.61 4.87468
6.62 4.93494
6.63 4.92126
6.64 4.83511
6.65 4.6828
6.66 4.46145
6.67 4.1866
6.68 3.85981
6.69 3.49486
6.7 3.10095
6.71 2.68848
6.72 2.26916
6.73 1.85353
6.74 1.45068
6.75 1.06989
6.76 0.718641
6.77 0.400437
6.78 0.124021
6.79 -0.114003
6.8 -0.307873
6.81 -0.461719
6.82 -0.577016
6.83 -0.65519
6.84 -0.703792
6.85 -0.723035
6.86 -0.721675
6.87 -0.702733
6.88 -0.671472
6.89 -0.63244
6.9 -0.588929
6.91 -0.544484
6.92 -0.501492
6.93 -0.461657
6.94 -0.426044
6.95 -0.395498
6.96 -0.36957
6.97 -0.348766
6.98 -0.331964
6.99 -0.318989
7 -0.309263
7.01 -0.302264
7.02 -0.298105
7.03 -0.296412
7.04 -0.297733
7.05 -0.302263
7.06 -0.310542
7.07 -0.323454
7.08 -0.341049
7.09 -0.364676
7.1 -0.393871
7.11 -0.429187
7.12 -0.470361
7.13 -0.516625
7.14 -0.56771
7.15 -0.621925
7.16 -0.678282
7.17 -0.735039
7.18 -0.790699
7.19 -0.843415
7.2 -0.892145
7.21 -0.934768
7.22 -0.971086
7.23 -0.999948
7.24 -1.02114
7.25 -1.03522
7.26 -1.04188
7.27 -1.04296
7.28 -1.03898
7.29 -1.03173
7.3 -1.02257
7.31 -1.01301
7.32 -1.00426
7.33 -0.997651
7.34 -0.993601
7.35 -0.992573
7.36 -0.994309
7.37 -0.99802
7.38 -1.0026
7.39 -1.00637
7.4 -1.00716
7.41 -1.00282
7.42 -0.991072
7.43 -0.968828
7.44 -0.935191
7.45 -0.886091
7.46 -0.822067
7.47 -0.740987
7.48 -0.642665
7.49 -0.528387
7.5 -0.397319
7.51 -0.253408
7.52 -0.0975078
7.53 0.0663791
7.54 0.235099
7.55 0.404699
7.56 0.571493
7.57 0.730522
7.58 0.878946
7.59 1.01244
7.6 1.12771
7.61 1.2234
7.62 1.29462
7.63 1.3434
7.64 1.36615
7.65 1.3648
7.66 1.3398
7.67 1.29129
7.68 1.22349
7.69 1.13588
7.7 1.03376
7.71 0.918871
7.72 0.794722
7.73 0.664722
7.74 0.531723
7.75 0.399017
7.76 0.269599
7.77 0.145959
7.78 0.0303229
7.79 -0.0745909
7.8 -0.168412
7.81 -0.247816
7.82 -0.313724
7.83 -0.364478
7.84 -0.399949
7.85 -0.42111
7.86 -0.426626
7.87 -0.41938
7.88 -0.398904
7.89 -0.367663
7.9 -0.327187
7.91 -0.279159
7.92 -0.226386
7.93 -0.170734
7.94 -0.115033
7.95 -0.061678
7.96 -0.0132668
7.97 0.0284308
7.98 0.0602025
7.99 0.081751
8 0.0903781
8.01 0.0860923
8.02 0.0684364
8.03 0.0367916
8.04 -0.00672247
8.05 -0.0627302
8.06 -0.127954
8.07 -0.201151
8.08 -0.27975
8.09 -0.361192
8.1 -0.442956
8.11 -0.522673
8.12 -0.597772
8.13 -0.666599
8.14 -0.727734
8.15 -0.779636
8.16 -0.822913
8.17 -0.856286
8.18 -0.8817
8.19 -0.899615
8.2 -0.911682
8.21 -0.919784
8.22 -0.925446
8.23 -0.93063
8.24 -0.936801
8.25 -0.945014
8.26 -0.9558
8.27 -0.969221
8.28 -0.984282
8.29 -0.999548
8.3 -1.01275
8.31 -1.02093
8.32 -1.02046
8.33 -1.00844
8.34 -0.97888
8.35 -0.930497
8.36 -0.857207
8.37 -0.757629
8.38 -0.629494
8.39 -0.469671
8.4 -0.281455
8.41 -0.0614185
8.42 0.183905
8.43 0.45289
8.44 0.740052
8.45 1.03893
8.46 1.34323
8.47 1.64509
8.48 1.93609
8.49 2.20875
8.5 2.45588
8.51 2.6681
8.52 2.84365
8.53 2.97091
8.54 3.05252
8.55 3.0829
8.56 3.06181
8.57 2.99324
8.58 2.87384
8.59 2.71433
8.6 2.51499
8.61 2.2851
8.62 2.03096
8.63 1.75933
8.64 1.47893
8.65 1.19655
8.66 0.919334
8.67 0.653683
8.68 0.405276
8.69 0.176943
8.7 -0.025059
8.71 -0.202469
8.72 -0.35134
8.73 -0.473974
8.74 -0.571406
8.75 -0.644427
8.76 -0.698163
8.77 -0.733003
8.78 -0.754787
8.79 -0.765858
8.8 -0.769886
8.81 -0.770041
8.82 -0.768827
8.83 -0.768473
8.84 -0.77074
8.85 -0.776549
8.86 -0.786406
8.87 -0.800615
8.88 -0.818384
8.89 -0.83955
8.9 -0.862799
8.91 -0.88734
8.92 -0.912094
8.93 -0.936226
8.94 -0.958785
8.95 -0.979458
8.96 -0.997673
8.97 -1.01351
8.98 -1.02709
8.99 -1.03864
9 -1.04881
9.01 -1.058
9.02 -1.06691
9.03 -1.07603
9.04 -1.0858
9.05 -1.09642
9.06 -1.10806
9.07 -1.12042
9.08 -1.13314
9.09 -1.14553
9.1 -1.1568
9.11 -1.16573
9.12 -1.17158
9.13 -1.17254
9.14 -1.16807
9.15 -1.15677
9.16 -1.1377
9.17 -1.11074
9.18 -1.07436
9.19 -1.02979
9.2 -0.976242
9.21 -0.914957
9.22 -0.846762
9.23 -0.772603
9.24 -0.694487
9.25 -0.613668
9.26 -0.532341
9.27 -0.452314
9.28 -0.375647
9.29 -0.303777
9.3 -0.239253
9.31 -0.182438
9.32 -0.135496
9.33 -0.0986245
9.34 -0.0723027
9.35 -0.0573156
9.36 -0.0521872
9.37 -0.0578423
9.38 -0.0719861
9.39 -0.0940981
9.4 -0.122628
9.41 -0.155792
9.42 -0.192376
9.43 -0.230376
9.44 -0.268394
9.45 -0.304964
9.46 -0.338964
9.47 -0.369149
9.48 -0.395305
9.49 -0.416324
9.5 -0.432743
9.51 -0.44438
9.52 -0.4517
9.53 -0.455528
9.54 -0.45628
9.55 -0.455224
9.56 -0.453088
9.57 -0.450902
9.58 -0.449457
9.59 -0.44962
9.6 -0.451747
9.61 -0.456609
9.62 -0.464078
9.63 -0.474379
9.64 -0.487358
9.65 -0.502607
9.66 -0.520013
9.67 -0.538878
9.68 -0.558941
9.69 -0.579715
9.7 -0.600908
9.71 -0.622318
9.72 -0.643844
9.73 -0.665553
9.74 -0.687578
9.75 -0.710161
9.76 -0.733575
9.77 -0.757961
9.78 -0.783568
9.79 -0.810137
9.8 -0.83741
9.81 -0.86459
9.82 -0.890634
9.83 -0.913717
9.84 -0.93232
9.85 -0.94295
9.86 -0.943697
9.87 -0.930722
9.88 -0.900307
9.89 -0.850362
9.9 -0.774225
9.91 -0.672422
9.92 -0.53886
9.93 -0.37337
9.94 -0.174616
9.95 0.060025
9.96 0.325989
9.97 0.626288
9.98 0.953543
9.99 1.30558
10 1.67649
10.01 2.05931
10.02 2.44737
10.03 2.83241
10.04 3.20558
10.05 3.55888
10.06 3.8847
10.07 4.17265
10.08 4.42063
10.09 4.61569
10.1 4.75983
10.11 4.84639
10.12 4.87377
10.13 4.84577
10.14 4.75662
10.15 4.61782
10.16 4.42788
10.17 4.19625
10.18 3.92919
10.19 3.63283
10.2 3.31763
10.21 2.98958
10.22 2.65823
10.23 2.33055
10.24 2.0139
10.25 1.71288
10.26 1.43516
10.27 1.18098
10.28 0.955757
10.29 0.758812
10.3 0.590165
10.31 0.45048
10.32 0.334718
10.33 0.243641
10.34 0.17082
10.35 0.113972
10.36 0.0688771
10.37 0.0313225
10.38 -0.00178754
10.39 -0.0341733
10.4 -0.0685724
10.41 -0.10715
10.42 -0.151364
10.43 -0.202636
10.44 -0.260467
10.45 -0.325618
10.46 -0.396402
10.47 -0.472065
10.48 -0.550965
10.49 -0.631348
10.5 -0.711332
10.51 -0.789226
10.52 -0.862988
10.53 -0.931227
10.54 -0.992684
10.55 -1.04568
10.56 -1.09043
10.57 -1.12506
10.58 -1.1506
10.59 -1.16651
10.6 -1.17313
10.61 -1.17154
10.62 -1.16141
10.63 -1.14471
10.64 -1.12156
10.65 -1.09339
10.66 -1.0611
10.67 -1.0255
10.68 -0.987794
10.69 -0.948618
10.7 -0.908958
10.71 -0.869481
10.72 -0.830902
10.73 -0.793684
10.74 -0.758607
10.75 -0.725804
10.76 -0.69596
10.77 -0.669247
10.78 -0.645939
10.79 -0.626558
10.8 -0.61087
10.81 -0.599673
10.82 -0.592568
10.83 -0.589949
10.84 -0.591898
10.85 -0.598137
10.86 -0.60924
10.87 -0.62445
10.88 -0.644123
10.89 -0.667738
10.9 -0.695011
10.91 -0.725759
10.92 -0.759166
10.93 -0.795045
10.94 -0.832463
10.95 -0.870859
10.96 -0.909425
10.97 -0.947457
10.98 -0.983985
10.99 -1.0185
11 -1.05002
11.01 -1.07808
11.02 -1.10223
11.03 -1.12178
11.04 -1.13707
11.05 -1.14741
11.06 -1.15359
11.07 -1.15569
11.08 -1.15433
11.09 -1.15036
11.1 -1.1444
11.11 -1.13756
11.12 -1.13068
11.13 -1.12465
11.14 -1.12014
11.15 -1.11782
11.16 -1.11768
11.17 -1.11996
11.18 -1.12389
11.19 -1.12875
11.2 -1.13313
11.21 -1.13552
11.22 -1.13331
11.23 -1.12486
11.24 -1.10678
11.25 -1.07686
11.26 -1.03268
11.27 -0.970476
11.28 -0.890287
11.29 -0.787348
11.3 -0.663295
11.31 -0.516291
11.32 -0.346686
11.33 -0.157078
11.34 0.0530129
11.35 0.277924
11.36 0.51568
11.37 0.760842
11.38 1.00877
11.39 1.25362
11.4 1.49061
11.41 1.71229
11.42 1.91507
11.43 2.09286
11.44 2.24085
11.45 2.35779
11.46 2.43618
11.47 2.47983
11.48 2.48387
11.49 2.45134
11.5 2.38384
11.51 2.28183
11.52 2.1524
11.53 1.99584
11.54 1.82024
11.55 1.62924
11.56 1.4285
11.57 1.22334
11.58 1.01873
11.59 0.818874
11.6 0.628279
11.61 0.449695
11.62 0.285287
11.63 0.137819
11.64 0.00608427
11.65 -0.107414
11.66 -0.205569
11.67 -0.288579
11.68 -0.358267
11.69 -0.41737
11.7 -0.466887
11.71 -0.510292
11.72 -0.548993
11.73 -0.58527
11.74 -0.620595
11.75 -0.65624
11.76 -0.692862
11.77 -0.730953
11.78 -0.770189
11.79 -0.810099
11.8 -0.849672
11.81 -0.887823
11.82 -0.922673
11.83 -0.95314
11.84 -0.976984
11.85 -0.992878
11.86 -0.999418
11.87 -0.994395
11.88 -0.978063
11.89 -0.947668
11.9 -0.904338
11.91 -0.847012
11.92 -0.77578
11.93 -0.692035
11.94 -0.594911
11.95 -0.487394
11.96 -0.369705
11.97 -0.244287
11.98 -0.113012
11.99 0.0220837
12 0.158425
12.01 0.293493
12.02 0.42491
12.03 0.55003
12.04 0.666173
12.05 0.771894
12.06 0.863266
12.07 0.940536
12.08 1.00044
12.09 1.04282
12.1 1.0671
12.11 1.0717
12.12 1.05904
12.13 1.0272
12.14 0.979674
12.15 0.916996
12.16 0.841294
12.17 0.755564
12.18 0.661272
12.19 0.562195
12.2 0.460502
12.21 0.359104
12.22 0.260248
12.23 0.166523
12.24 0.078963
12.25 7.04087e-06
12.26 -0.0705274
12.27 -0.131782
12.28 -0.183894
12.29 -0.228065
12.3 -0.264322
12.31 -0.295081
12.32 -0.321278
12.33 -0.344957
12.34 -0.367685
12.35 -0.39113
12.36 -0.416412
12.37 -0.444897
12.38 -0.476767
12.39 -0.51233
12.4 -0.551181
12.41 -0.592313
