# xPDFsuite Configuration #
[PDF]
wavelength = 0.1432
dataformat = twotheta
inputfile = 1_1Pd_CeO2_cycle-00316.chi
backgroundfile = background-00000.chi
mode = xray
bgscale = 1.007
composition = CeO2
outputtype = gr
qmaxinst = 28.8974762299
qmin = 0.5
qmax = 27.9
rmax = 50.0
rmin = 0.0
rstep = 0.01
rpoly = 1.8657

[Misc]
inputdir = G:/SankarDec16/1Pd/Chi
savedir = D:/DATA/APS_CeO2/1Pd
backgroundfilefull = G:/SankarDec16/Background/background-00000.chi

#### start data
#S 1
#L r($\AA$)  G($\AA^{-2}$)
0 0
0.01 -0.00760908
0.02 -0.0146464
0.03 -0.0205231
0.04 -0.0247953
0.05 -0.0272159
0.06 -0.0273869
0.07 -0.0255717
0.08 -0.021641
0.09 -0.016098
0.1 -0.00929022
0.11 -0.00175036
0.12 0.00593868
0.13 0.0131247
0.14 0.0193423
0.15 0.0240238
0.16 0.0268343
0.17 0.0276383
0.18 0.0261615
0.19 0.0227894
0.2 0.0175325
0.21 0.0109767
0.22 0.00355389
0.23 -0.00413821
0.24 -0.0115494
0.25 -0.0179769
0.26 -0.0230829
0.27 -0.0263469
0.28 -0.0275582
0.29 -0.0266998
0.3 -0.0236334
0.31 -0.0188495
0.32 -0.0124981
0.33 -0.00522157
0.34 0.00248385
0.35 0.00998207
0.36 0.0167811
0.37 0.0221595
0.38 0.0259226
0.39 0.0276213
0.4 0.0271792
0.41 0.0246985
0.42 0.0201842
0.43 0.0142095
0.44 0.00705743
0.45 -0.000602115
0.46 -0.00823121
0.47 -0.0151841
0.48 -0.0210498
0.49 -0.0251217
0.5 -0.0273571
0.51 -0.0273996
0.52 -0.0253109
0.53 -0.0213087
0.54 -0.0155414
0.55 -0.00863921
0.56 -0.00100585
0.57 0.00669169
0.58 0.0138985
0.59 0.0199884
0.6 0.0246509
0.61 0.0272265
0.62 0.0278276
0.63 0.026207
0.64 0.0225627
0.65 0.0172183
0.66 0.0104601
0.67 0.00294639
0.68 -0.00481626
0.69 -0.0121939
0.7 -0.0186403
0.71 -0.023577
0.72 -0.0268092
0.73 -0.0277544
0.74 -0.0266753
0.75 -0.0234456
0.76 -0.0183904
0.77 -0.0119242
0.78 -0.00445758
0.79 0.00335335
0.8 0.0109244
0.81 0.0176839
0.82 0.023121
0.83 0.0267331
0.84 0.02845
0.85 0.0277951
0.86 0.0251681
0.87 0.0205691
0.88 0.0144334
0.89 0.00724385
0.9 -0.000488228
0.91 -0.00814512
0.92 -0.0151014
0.93 -0.0208825
0.94 -0.0250479
0.95 -0.0272088
0.96 -0.0274297
0.97 -0.0253885
0.98 -0.0216034
0.99 -0.0162223
1 -0.00977877
1.01 -0.00280472
1.02 0.00409399
1.03 0.0103841
1.04 0.0154182
1.05 0.0188645
1.06 0.0203892
1.07 0.0197617
1.08 0.0172158
1.09 0.0126432
1.1 0.00670399
1.11 -0.000250655
1.12 -0.00754967
1.13 -0.0145835
1.14 -0.0205743
1.15 -0.0250787
1.16 -0.0273343
1.17 -0.02715
1.18 -0.0242496
1.19 -0.0185058
1.2 -0.0103508
1.21 0.000219883
1.22 0.0123157
1.23 0.0254253
1.24 0.0386892
1.25 0.0513521
1.26 0.0624241
1.27 0.0714006
1.28 0.0773033
1.29 0.0799042
1.3 0.0788152
1.31 0.0737841
1.32 0.0652927
1.33 0.053088
1.34 0.0382088
1.35 0.021019
1.36 0.00239703
1.37 -0.0168515
1.38 -0.0358389
1.39 -0.0538391
1.4 -0.069933
1.41 -0.0836499
1.42 -0.0944634
1.43 -0.101902
1.44 -0.10615
1.45 -0.106643
1.46 -0.104078
1.47 -0.0984071
1.48 -0.0901102
1.49 -0.0796805
1.5 -0.0674191
1.51 -0.0540044
1.52 -0.0397612
1.53 -0.0251984
1.54 -0.0106583
1.55 0.00350501
1.56 0.0170913
1.57 0.0297467
1.58 0.0414289
1.59 0.0518837
1.6 0.0609863
1.61 0.0686548
1.62 0.074559
1.63 0.0787722
1.64 0.0808821
1.65 0.0809107
1.66 0.0786645
1.67 0.0739405
1.68 0.0669409
1.69 0.0572996
1.7 0.0455279
1.71 0.0316374
1.72 0.0160519
1.73 -0.000754282
1.74 -0.0182954
1.75 -0.0358969
1.76 -0.0528629
1.77 -0.0685576
1.78 -0.0823441
1.79 -0.0935283
1.8 -0.101973
1.81 -0.10687
1.82 -0.108642
1.83 -0.107077
1.84 -0.102597
1.85 -0.0957699
1.86 -0.0871034
1.87 -0.0775868
1.88 -0.0680419
1.89 -0.0594111
1.9 -0.0525418
1.91 -0.0483546
1.92 -0.0471274
1.93 -0.0498328
1.94 -0.0560324
1.95 -0.0659431
1.96 -0.0790275
1.97 -0.0945506
1.98 -0.111759
1.99 -0.129423
2 -0.146338
2.01 -0.161289
2.02 -0.173083
2.03 -0.180376
2.04 -0.18279
2.05 -0.178681
2.06 -0.168605
2.07 -0.151869
2.08 -0.128862
2.09 -0.100276
2.1 -0.0663279
2.11 -0.0285752
2.12 0.0123941
2.13 0.0551551
2.14 0.0987385
2.15 0.142088
2.16 0.184491
2.17 0.225076
2.18 0.26374
2.19 0.300171
2.2 0.334533
2.21 0.367179
2.22 0.398412
2.23 0.428888
2.24 0.459033
2.25 0.489304
2.26 0.519945
2.27 0.551007
2.28 0.582239
2.29 0.61306
2.3 0.64271
2.31 0.669995
2.32 0.693565
2.33 0.712251
2.34 0.723808
2.35 0.7278
2.36 0.721845
2.37 0.705796
2.38 0.678814
2.39 0.640276
2.4 0.591637
2.41 0.532117
2.42 0.464646
2.43 0.390231
2.44 0.311396
2.45 0.230554
2.46 0.150419
2.47 0.0733148
2.48 0.00220749
2.49 -0.0612485
2.5 -0.115272
2.51 -0.158195
2.52 -0.190621
2.53 -0.210794
2.54 -0.221171
2.55 -0.222026
2.56 -0.215454
2.57 -0.203665
2.58 -0.188704
2.59 -0.173211
2.6 -0.159522
2.61 -0.149579
2.62 -0.145032
2.63 -0.147397
2.64 -0.156533
2.65 -0.173644
2.66 -0.197019
2.67 -0.226203
2.68 -0.259426
2.69 -0.294859
2.7 -0.330483
2.71 -0.364391
2.72 -0.394376
2.73 -0.419151
2.74 -0.437488
2.75 -0.448372
2.76 -0.45244
2.77 -0.44901
2.78 -0.440127
2.79 -0.426663
2.8 -0.410627
2.81 -0.393927
2.82 -0.378796
2.83 -0.366842
2.84 -0.360261
2.85 -0.359906
2.86 -0.36666
2.87 -0.381058
2.88 -0.401995
2.89 -0.42952
2.9 -0.461234
2.91 -0.495712
2.92 -0.530598
2.93 -0.563836
2.94 -0.592764
2.95 -0.616111
2.96 -0.631467
2.97 -0.638439
2.98 -0.63641
2.99 -0.62522
3 -0.606547
3.01 -0.58074
3.02 -0.550744
3.03 -0.518407
3.04 -0.486457
3.05 -0.457151
3.06 -0.433429
3.07 -0.416416
3.08 -0.408569
3.09 -0.409964
3.1 -0.420956
3.11 -0.441332
3.12 -0.469042
3.13 -0.503278
3.14 -0.540857
3.15 -0.579606
3.16 -0.616681
3.17 -0.649884
3.18 -0.676311
3.19 -0.695284
3.2 -0.70473
3.21 -0.705207
3.22 -0.697011
3.23 -0.681211
3.24 -0.660345
3.25 -0.636424
3.26 -0.612737
3.27 -0.592257
3.28 -0.578038
3.29 -0.572149
3.3 -0.577825
3.31 -0.594748
3.32 -0.624843
3.33 -0.666384
3.34 -0.718188
3.35 -0.778024
3.36 -0.842268
3.37 -0.90749
3.38 -0.969653
3.39 -1.02464
3.4 -1.06875
3.41 -1.09974
3.42 -1.11368
3.43 -1.1118
3.44 -1.09205
3.45 -1.05738
3.46 -1.00985
3.47 -0.952838
3.48 -0.891237
3.49 -0.829801
3.5 -0.773435
3.51 -0.727197
3.52 -0.695156
3.53 -0.679334
3.54 -0.683281
3.55 -0.704212
3.56 -0.742232
3.57 -0.791733
3.58 -0.847467
3.59 -0.901398
3.6 -0.945846
3.61 -0.968155
3.62 -0.961576
3.63 -0.913866
3.64 -0.816347
3.65 -0.664465
3.66 -0.445743
3.67 -0.166094
3.68 0.182874
3.69 0.592253
3.7 1.05763
3.71 1.57139
3.72 2.11795
3.73 2.68676
3.74 3.25879
3.75 3.81765
3.76 4.34483
3.77 4.8263
3.78 5.23874
3.79 5.57806
3.8 5.82246
3.81 5.97142
3.82 6.01847
3.83 5.95789
3.84 5.80304
3.85 5.54485
3.86 5.20738
3.87 4.79524
3.88 4.32551
3.89 3.81521
3.9 3.27854
3.91 2.73454
3.92 2.19887
3.93 1.68576
3.94 1.20737
3.95 0.776468
3.96 0.39482
3.97 0.0760399
3.98 -0.187116
3.99 -0.390499
4 -0.538988
4.01 -0.639984
4.02 -0.695811
4.03 -0.719841
4.04 -0.716617
4.05 -0.697093
4.06 -0.668342
4.07 -0.637725
4.08 -0.61065
4.09 -0.592715
4.1 -0.585435
4.11 -0.591049
4.12 -0.609162
4.13 -0.637949
4.14 -0.675931
4.15 -0.718955
4.16 -0.763962
4.17 -0.806978
4.18 -0.844666
4.19 -0.873331
4.2 -0.891654
4.21 -0.89586
4.22 -0.886998
4.23 -0.863739
4.24 -0.827021
4.25 -0.778599
4.26 -0.719073
4.27 -0.651846
4.28 -0.578203
4.29 -0.500944
4.3 -0.421893
4.31 -0.342888
4.32 -0.265141
4.33 -0.18993
4.34 -0.117404
4.35 -0.0479351
4.36 0.0187161
4.37 0.0830196
4.38 0.145225
4.39 0.206017
4.4 0.265522
4.41 0.323918
4.42 0.380974
4.43 0.436014
4.44 0.488456
4.45 0.536515
4.46 0.579399
4.47 0.615115
4.48 0.642087
4.49 0.659359
4.5 0.664301
4.51 0.657603
4.52 0.637093
4.53 0.603796
4.54 0.557848
4.55 0.499671
4.56 0.431777
4.57 0.354564
4.58 0.271452
4.59 0.184188
4.6 0.0954569
4.61 0.00748626
4.62 -0.077123
4.63 -0.157
4.64 -0.229887
4.65 -0.295198
4.66 -0.352185
4.67 -0.400252
4.68 -0.440554
4.69 -0.472504
4.7 -0.498218
4.71 -0.518277
4.72 -0.534171
4.73 -0.54728
4.74 -0.558659
4.75 -0.569532
4.76 -0.580703
4.77 -0.592742
4.78 -0.605941
4.79 -0.620394
4.8 -0.63579
4.81 -0.651847
4.82 -0.667961
4.83 -0.683577
4.84 -0.698098
4.85 -0.711132
4.86 -0.722082
4.87 -0.731033
4.88 -0.737693
4.89 -0.742416
4.9 -0.745471
4.91 -0.747288
4.92 -0.748485
4.93 -0.749615
4.94 -0.751245
4.95 -0.753895
4.96 -0.757946
4.97 -0.763537
4.98 -0.770921
4.99 -0.779758
5 -0.78997
5.01 -0.801052
5.02 -0.812583
5.03 -0.824035
5.04 -0.834989
5.05 -0.844894
5.06 -0.853596
5.07 -0.860823
5.08 -0.866572
5.09 -0.87101
5.1 -0.874224
5.11 -0.876636
5.12 -0.878434
5.13 -0.879891
5.14 -0.881077
5.15 -0.881843
5.16 -0.881892
5.17 -0.880323
5.18 -0.876355
5.19 -0.868486
5.2 -0.85506
5.21 -0.834722
5.22 -0.804458
5.23 -0.763783
5.24 -0.709471
5.25 -0.641089
5.26 -0.557431
5.27 -0.457222
5.28 -0.342366
5.29 -0.211476
5.3 -0.0685221
5.31 0.0850571
5.32 0.245521
5.33 0.408953
5.34 0.570635
5.35 0.726282
5.36 0.869967
5.37 0.997667
5.38 1.10495
5.39 1.18647
5.4 1.24212
5.41 1.26503
5.42 1.25862
5.43 1.22035
5.44 1.15202
5.45 1.05718
5.46 0.936362
5.47 0.796902
5.48 0.641322
5.49 0.476301
5.5 0.306722
5.51 0.13825
5.52 -0.0247556
5.53 -0.176357
5.54 -0.31446
5.55 -0.435156
5.56 -0.536712
5.57 -0.619289
5.58 -0.680642
5.59 -0.724472
5.6 -0.750208
5.61 -0.761616
5.62 -0.760943
5.63 -0.750711
5.64 -0.734444
5.65 -0.714062
5.66 -0.692338
5.67 -0.670835
5.68 -0.650807
5.69 -0.632695
5.7 -0.616711
5.71 -0.602053
5.72 -0.587873
5.73 -0.572808
5.74 -0.555512
5.75 -0.534299
5.76 -0.508454
5.77 -0.476127
5.78 -0.437686
5.79 -0.392587
5.8 -0.341486
5.81 -0.28564
5.82 -0.226224
5.83 -0.165567
5.84 -0.10586
5.85 -0.0495425
5.86 0.00106428
5.87 0.0431275
5.88 0.0757507
5.89 0.0955715
5.9 0.103301
5.91 0.0974621
5.92 0.0784277
5.93 0.0475597
5.94 0.00488145
5.95 -0.0463697
5.96 -0.105133
5.97 -0.168428
5.98 -0.234108
5.99 -0.299761
6 -0.363538
6.01 -0.423188
6.02 -0.478002
6.03 -0.526797
6.04 -0.569341
6.05 -0.606121
6.06 -0.63712
6.07 -0.66401
6.08 -0.687488
6.09 -0.709172
6.1 -0.730246
6.11 -0.751972
6.12 -0.77512
6.13 -0.80062
6.14 -0.828391
6.15 -0.85848
6.16 -0.890297
6.17 -0.922999
6.18 -0.955469
6.19 -0.986586
6.2 -1.01487
6.21 -1.03936
6.22 -1.0591
6.23 -1.07313
6.24 -1.08179
6.25 -1.08433
6.26 -1.0821
6.27 -1.07558
6.28 -1.06607
6.29 -1.05493
6.3 -1.04349
6.31 -1.03292
6.32 -1.02424
6.33 -1.0177
6.34 -1.01312
6.35 -1.00954
6.36 -1.00525
6.37 -0.997248
6.38 -0.98268
6.39 -0.957086
6.4 -0.915733
6.41 -0.85511
6.42 -0.767294
6.43 -0.651584
6.44 -0.500146
6.45 -0.312437
6.46 -0.0861187
6.47 0.181554
6.48 0.485355
6.49 0.828338
6.5 1.20085
6.51 1.59945
6.52 2.01559
6.53 2.44026
6.54 2.86316
6.55 3.27447
6.56 3.66133
6.57 4.01443
6.58 4.32392
6.59 4.57732
6.6 4.77367
6.61 4.89682
6.62 4.95276
6.63 4.93429
6.64 4.84301
6.65 4.68539
6.66 4.45872
6.67 4.17875
6.68 3.8473
6.69 3.47836
6.7 3.08135
6.71 2.66695
6.72 2.24689
6.73 1.83203
6.74 1.43128
6.75 1.05403
6.76 0.707606
6.77 0.395267
6.78 0.12559
6.79 -0.105242
6.8 -0.291793
6.81 -0.438611
6.82 -0.547546
6.83 -0.620478
6.84 -0.665142
6.85 -0.682268
6.86 -0.680552
6.87 -0.663243
6.88 -0.63556
6.89 -0.601831
6.9 -0.565305
6.91 -0.528996
6.92 -0.495028
6.93 -0.46457
6.94 -0.438242
6.95 -0.416355
6.96 -0.398116
6.97 -0.383426
6.98 -0.371058
6.99 -0.360489
7 -0.351051
7.01 -0.342346
7.02 -0.334383
7.03 -0.327295
7.04 -0.321773
7.05 -0.318548
7.06 -0.318578
7.07 -0.323261
7.08 -0.333072
7.09 -0.349932
7.1 -0.373616
7.11 -0.405065
7.12 -0.444201
7.13 -0.490229
7.14 -0.543069
7.15 -0.600621
7.16 -0.661844
7.17 -0.724538
7.18 -0.786848
7.19 -0.846487
7.2 -0.90199
7.21 -0.950737
7.22 -0.992247
7.23 -1.025
7.24 -1.04855
7.25 -1.06344
7.26 -1.06915
7.27 -1.06784
7.28 -1.06003
7.29 -1.0479
7.3 -1.0331
7.31 -1.01751
7.32 -1.00275
7.33 -0.990576
7.34 -0.981682
7.35 -0.976876
7.36 -0.976129
7.37 -0.978699
7.38 -0.983702
7.39 -0.989204
7.4 -0.993048
7.41 -0.992772
7.42 -0.985839
7.43 -0.968847
7.44 -0.940539
7.45 -0.896471
7.46 -0.8369
7.47 -0.759375
7.48 -0.66348
7.49 -0.55043
7.5 -0.419154
7.51 -0.273806
7.52 -0.115176
7.53 0.0524644
7.54 0.22576
7.55 0.400498
7.56 0.572659
7.57 0.736969
7.58 0.890296
7.59 1.02802
7.6 1.14658
7.61 1.24452
7.62 1.3167
7.63 1.36525
7.64 1.38645
7.65 1.38244
7.66 1.35379
7.67 1.30079
7.68 1.228
7.69 1.13507
7.7 1.02763
7.71 0.907686
7.72 0.77901
7.73 0.645184
7.74 0.509355
7.75 0.374807
7.76 0.244746
7.77 0.121603
7.78 0.00758652
7.79 -0.0946082
7.8 -0.184842
7.81 -0.25983
7.82 -0.320797
7.83 -0.366254
7.84 -0.396319
7.85 -0.412178
7.86 -0.412764
7.87 -0.401105
7.88 -0.376984
7.89 -0.342966
7.9 -0.300692
7.91 -0.251982
7.92 -0.199545
7.93 -0.145393
7.94 -0.0921412
7.95 -0.0421548
7.96 0.00213322
7.97 0.0391573
7.98 0.0658665
7.99 0.0822274
8 0.0857641
8.01 0.0767164
8.02 0.0548315
8.03 0.0197371
8.04 -0.0263858
8.05 -0.0838907
8.06 -0.149577
8.07 -0.222107
8.08 -0.298965
8.09 -0.377746
8.1 -0.455981
8.11 -0.53161
8.12 -0.602237
8.13 -0.66651
8.14 -0.723261
8.15 -0.771264
8.16 -0.811299
8.17 -0.842434
8.18 -0.866647
8.19 -0.884572
8.2 -0.897886
8.21 -0.908355
8.22 -0.917516
8.23 -0.926994
8.24 -0.938091
8.25 -0.951504
8.26 -0.967455
8.27 -0.985621
8.28 -1.00475
8.29 -1.02296
8.3 -1.03789
8.31 -1.04631
8.32 -1.04449
8.33 -1.02964
8.34 -0.995687
8.35 -0.941739
8.36 -0.861849
8.37 -0.755073
8.38 -0.619504
8.39 -0.452472
8.4 -0.257627
8.41 -0.0320801
8.42 0.217441
8.43 0.488953
8.44 0.776802
8.45 1.07458
8.46 1.37582
8.47 1.67307
8.48 1.95801
8.49 2.22364
8.5 2.46314
8.51 2.66763
8.52 2.83577
8.53 2.95653
8.54 3.03281
8.55 3.05944
8.56 3.03641
8.57 2.96769
8.58 2.85015
8.59 2.69412
8.6 2.49979
8.61 2.27599
8.62 2.02861
8.63 1.76394
8.64 1.49025
8.65 1.21378
8.66 0.94137
8.67 0.679032
8.68 0.432232
8.69 0.20382
8.7 -0.000124058
8.71 -0.180925
8.72 -0.334528
8.73 -0.462749
8.74 -0.566213
8.75 -0.645206
8.76 -0.704429
8.77 -0.743702
8.78 -0.768636
8.79 -0.781222
8.8 -0.78499
8.81 -0.783214
8.82 -0.778332
8.83 -0.773073
8.84 -0.769442
8.85 -0.768931
8.86 -0.772547
8.87 -0.781218
8.88 -0.794558
8.89 -0.813107
8.9 -0.835683
8.91 -0.861859
8.92 -0.890624
8.93 -0.920912
8.94 -0.951759
8.95 -0.982158
8.96 -1.01115
8.97 -1.03805
8.98 -1.06233
8.99 -1.0834
9 -1.1014
9.01 -1.11583
9.02 -1.12724
9.03 -1.13567
9.04 -1.14148
9.05 -1.14518
9.06 -1.14692
9.07 -1.14728
9.08 -1.14638
9.09 -1.14446
9.1 -1.14156
9.11 -1.13746
9.12 -1.13206
9.13 -1.12467
9.14 -1.11499
9.15 -1.10222
9.16 -1.08558
9.17 -1.06466
9.18 -1.03805
9.19 -1.00593
9.2 -0.967102
9.21 -0.921708
9.22 -0.869658
9.23 -0.810769
9.24 -0.746243
9.25 -0.676066
9.26 -0.602074
9.27 -0.525324
9.28 -0.447592
9.29 -0.370569
9.3 -0.296543
9.31 -0.226966
9.32 -0.164353
9.33 -0.110062
9.34 -0.0655393
9.35 -0.0327504
9.36 -0.0111627
9.37 -0.0030388
9.38 -0.00659767
9.39 -0.02218
9.4 -0.0486551
9.41 -0.0840808
9.42 -0.127656
9.43 -0.176325
9.44 -0.228462
9.45 -0.281463
9.46 -0.333268
9.47 -0.381499
9.48 -0.424916
9.49 -0.461124
9.5 -0.490013
9.51 -0.510506
9.52 -0.522547
9.53 -0.527012
9.54 -0.523808
9.55 -0.515131
9.56 -0.501818
9.57 -0.485935
9.58 -0.469111
9.59 -0.453229
9.6 -0.439649
9.61 -0.430295
9.62 -0.425727
9.63 -0.427013
9.64 -0.434538
9.65 -0.447912
9.66 -0.467535
9.67 -0.491925
9.68 -0.520772
9.69 -0.552693
9.7 -0.586672
9.71 -0.62163
9.72 -0.656562
9.73 -0.690545
9.74 -0.723075
9.75 -0.753659
9.76 -0.782087
9.77 -0.808467
9.78 -0.832604
9.79 -0.8549
9.8 -0.87514
9.81 -0.893285
9.82 -0.908911
9.83 -0.920928
9.84 -0.928577
9.85 -0.929182
9.86 -0.921348
9.87 -0.901825
9.88 -0.867257
9.89 -0.815549
9.9 -0.740338
9.91 -0.641581
9.92 -0.513075
9.93 -0.354001
9.94 -0.162485
9.95 0.0647426
9.96 0.323702
9.97 0.618107
9.98 0.940922
9.99 1.29043
10 1.66092
10.01 2.04536
10.02 2.43724
10.03 2.82776
10.04 3.20785
10.05 3.56897
10.06 3.90298
10.07 4.19892
10.08 4.45426
10.09 4.65541
10.1 4.8042
10.11 4.8936
10.12 4.92192
10.13 4.8931
10.14 4.80132
10.15 4.65857
10.16 4.46357
10.17 4.22628
10.18 3.95336
10.19 3.65137
10.2 3.3311
10.21 2.99894
10.22 2.66451
10.23 2.33491
10.24 2.01748
10.25 1.71658
10.26 1.43974
10.27 1.18681
10.28 0.962864
10.29 0.766854
10.3 0.598492
10.31 0.458097
10.32 0.340574
10.33 0.246433
10.34 0.169454
10.35 0.107438
10.36 0.0564708
10.37 0.0127202
10.38 -0.0264511
10.39 -0.0643295
10.4 -0.1031
10.41 -0.144553
10.42 -0.189822
10.43 -0.23994
10.44 -0.294559
10.45 -0.35416
10.46 -0.417549
10.47 -0.484178
10.48 -0.552925
10.49 -0.622623
10.5 -0.69205
10.51 -0.760127
10.52 -0.82555
10.53 -0.887429
10.54 -0.944927
10.55 -0.996876
10.56 -1.04329
10.57 -1.0827
10.58 -1.11553
10.59 -1.14101
10.6 -1.15891
10.61 -1.1696
10.62 -1.17206
10.63 -1.16749
10.64 -1.15522
10.65 -1.13607
10.66 -1.11044
10.67 -1.07856
10.68 -1.04177
10.69 -1.00023
10.7 -0.955531
10.71 -0.90849
10.72 -0.860383
10.73 -0.812375
10.74 -0.76588
10.75 -0.721826
10.76 -0.681653
10.77 -0.646152
10.78 -0.616095
10.79 -0.592577
10.8 -0.575275
10.81 -0.565432
10.82 -0.562135
10.83 -0.565645
10.84 -0.575544
10.85 -0.590922
10.86 -0.611794
10.87 -0.636681
10.88 -0.665277
10.89 -0.696511
10.9 -0.729667
10.91 -0.764072
10.92 -0.798994
10.93 -0.833888
10.94 -0.868271
10.95 -0.901718
10.96 -0.933865
10.97 -0.964545
10.98 -0.993279
10.99 -1.02014
11 -1.04469
11.01 -1.0669
11.02 -1.08663
11.03 -1.10353
11.04 -1.11783
11.05 -1.12905
11.06 -1.13758
11.07 -1.14331
11.08 -1.14645
11.09 -1.14745
11.1 -1.14644
11.11 -1.14417
11.12 -1.14103
11.13 -1.13768
11.14 -1.13462
11.15 -1.13238
11.16 -1.13113
11.17 -1.13115
11.18 -1.13206
11.19 -1.13342
11.2 -1.13425
11.21 -1.1334
11.22 -1.12873
11.23 -1.11879
11.24 -1.10056
11.25 -1.07186
11.26 -1.03028
11.27 -0.972008
11.28 -0.89672
11.29 -0.799424
11.3 -0.681241
11.31 -0.539896
11.32 -0.375214
11.33 -0.18943
11.34 0.0185493
11.35 0.243117
11.36 0.482706
11.37 0.731798
11.38 0.985663
11.39 1.23833
11.4 1.4845
11.41 1.71639
11.42 1.92973
11.43 2.11792
11.44 2.27548
11.45 2.40073
11.46 2.48544
11.47 2.53333
11.48 2.53907
11.49 2.50572
11.5 2.43498
11.51 2.32739
11.52 2.19059
11.53 2.02514
11.54 1.83985
11.55 1.63887
11.56 1.42851
11.57 1.21456
11.58 1.00268
11.59 0.797218
11.6 0.60315
11.61 0.423217
11.62 0.259555
11.63 0.114889
11.64 -0.0124814
11.65 -0.120237
11.66 -0.211901
11.67 -0.288101
11.68 -0.351205
11.69 -0.404352
11.7 -0.449093
11.71 -0.489035
11.72 -0.525954
11.73 -0.562114
11.74 -0.598947
11.75 -0.637669
11.76 -0.678537
11.77 -0.721866
11.78 -0.766833
11.79 -0.812618
11.8 -0.857787
11.81 -0.900957
11.82 -0.939829
11.83 -0.973256
11.84 -0.998743
11.85 -1.01501
11.86 -1.02072
11.87 -1.01373
11.88 -0.994629
11.89 -0.960806
11.9 -0.913756
11.91 -0.852668
11.92 -0.777916
11.93 -0.69107
11.94 -0.591514
11.95 -0.482231
11.96 -0.363549
11.97 -0.237824
11.98 -0.106835
11.99 0.0275012
12 0.162819
12.01 0.296759
12.02 0.427131
12.03 0.551438
12.04 0.667116
12.05 0.772751
12.06 0.864475
12.07 0.942424
12.08 1.00327
12.09 1.0467
12.1 1.07199
12.11 1.07736
12.12 1.06513
12.13 1.03318
12.14 0.984984
12.15 0.92102
12.16 0.843453
12.17 0.755408
12.18 0.658465
12.19 0.556644
12.2 0.452341
12.21 0.348715
12.22 0.248233
12.23 0.153756
12.24 0.0663605
12.25 -0.011276
12.26 -0.0794685
12.27 -0.137372
12.28 -0.185297
12.29 -0.224725
12.3 -0.25595
12.31 -0.281763
12.32 -0.303483
12.33 -0.323502
12.34 -0.343675
12.35 -0.366042
12.36 -0.391708
12.37 -0.422346
12.38 -0.457885
12.39 -0.498577
12.4 -0.543736
