# xPDFsuite Configuration #
[PDF]
wavelength = 0.1432
dataformat = twotheta
inputfile = 1_1Pd_CeO2_cycle-00359.chi
backgroundfile = background-00000.chi
mode = xray
bgscale = 1.007
composition = CeO2
outputtype = gr
qmaxinst = 28.8974762299
qmin = 0.5
qmax = 27.9
rmax = 50.0
rmin = 0.0
rstep = 0.01
rpoly = 1.8657

[Misc]
inputdir = G:/SankarDec16/1Pd/Chi
savedir = D:/DATA/APS_CeO2/1Pd
backgroundfilefull = G:/SankarDec16/Background/background-00000.chi

#### start data
#S 1
#L r($\AA$)  G($\AA^{-2}$)
0 0
0.01 -0.00567255
0.02 -0.0109155
0.03 -0.0152866
0.04 -0.0184532
0.05 -0.0202307
0.06 -0.020323
0.07 -0.0189297
0.08 -0.0159579
0.09 -0.0117881
0.1 -0.00668454
0.11 -0.00105052
0.12 0.00467693
0.13 0.0100049
0.14 0.0145892
0.15 0.0180053
0.16 0.0200084
0.17 0.0205033
0.18 0.0192931
0.19 0.0166743
0.2 0.0126657
0.21 0.00771252
0.22 0.00214498
0.23 -0.00358338
0.24 -0.00906341
0.25 -0.0137644
0.26 -0.0174451
0.27 -0.0197212
0.28 -0.0204479
0.29 -0.0196248
0.3 -0.0171649
0.31 -0.0134462
0.32 -0.00859872
0.33 -0.00310942
0.34 0.00264225
0.35 0.00817564
0.36 0.0131308
0.37 0.0169665
0.38 0.0195572
0.39 0.0205785
0.4 0.0199939
0.41 0.017898
0.42 0.0143182
0.43 0.00969543
0.44 0.00426389
0.45 -0.001472
0.46 -0.00710354
0.47 -0.0121473
0.48 -0.0163116
0.49 -0.0190727
0.5 -0.0204276
0.51 -0.0201293
0.52 -0.0182514
0.53 -0.0149794
0.54 -0.0104546
0.55 -0.00515769
0.56 0.00058417
0.57 0.00627511
0.58 0.0114984
0.59 0.0157927
0.6 0.01895
0.61 0.0204917
0.62 0.0205378
0.63 0.0189321
0.64 0.0158552
0.65 0.0115743
0.66 0.00633787
0.67 0.000641929
0.68 -0.00511016
0.69 -0.0104565
0.7 -0.0149941
0.71 -0.0183073
0.72 -0.0202832
0.73 -0.0205129
0.74 -0.0192336
0.75 -0.0163875
0.76 -0.0122533
0.77 -0.00716487
0.78 -0.0014647
0.79 0.00436256
0.8 0.00986032
0.81 0.0146254
0.82 0.0182914
0.83 0.020512
0.84 0.0212757
0.85 0.0202673
0.86 0.0178274
0.87 0.0140005
0.88 0.00914635
0.89 0.00364542
0.9 -0.00208829
0.91 -0.00761302
0.92 -0.0124521
0.93 -0.016291
0.94 -0.0188312
0.95 -0.0198294
0.96 -0.0193842
0.97 -0.0173186
0.98 -0.0140609
0.99 -0.00977901
1 -0.00490619
1.01 0.000145245
1.02 0.00488895
1.03 0.00896526
1.04 0.0118861
1.05 0.0134643
1.06 0.0134961
1.07 0.0118755
1.08 0.0088435
1.09 0.00440622
1.1 -0.000891433
1.11 -0.00670958
1.12 -0.0124992
1.13 -0.017782
1.14 -0.0219209
1.15 -0.0246288
1.16 -0.0253079
1.17 -0.0238807
1.18 -0.0201764
1.19 -0.0141556
1.2 -0.00621916
1.21 0.00357563
1.22 0.0144865
1.23 0.0260639
1.24 0.0376045
1.25 0.0485041
1.26 0.0579575
1.27 0.0655939
1.28 0.0706295
1.29 0.0729144
1.3 0.0721514
1.31 0.0681501
1.32 0.0613102
1.33 0.0514148
1.34 0.0392966
1.35 0.0252192
1.36 0.00986122
1.37 -0.00615458
1.38 -0.0221678
1.39 -0.0375948
1.4 -0.0517459
1.41 -0.0642256
1.42 -0.0746079
1.43 -0.0824899
1.44 -0.0879566
1.45 -0.0905011
1.46 -0.0905865
1.47 -0.0880804
1.48 -0.0832594
1.49 -0.0764337
1.5 -0.0677041
1.51 -0.0575942
1.52 -0.0462375
1.53 -0.0340616
1.54 -0.0213237
1.55 -0.00832301
1.56 0.0046645
1.57 0.0173202
1.58 0.0294243
1.59 0.0406521
1.6 0.0507312
1.61 0.0594524
1.62 0.0663564
1.63 0.0714285
1.64 0.0741607
1.65 0.0745578
1.66 0.0724185
1.67 0.0675688
1.68 0.0602933
1.69 0.0503037
1.7 0.0382258
1.71 0.0241813
1.72 0.00869621
1.73 -0.00769306
1.74 -0.0244107
1.75 -0.0408236
1.76 -0.0562172
1.77 -0.0700648
1.78 -0.0818265
1.79 -0.0909584
1.8 -0.0974711
1.81 -0.100772
1.82 -0.101396
1.83 -0.0993124
1.84 -0.0950363
1.85 -0.0891603
1.86 -0.082271
1.87 -0.0751928
1.88 -0.0687071
1.89 -0.0635135
1.9 -0.0602544
1.91 -0.0595693
1.92 -0.0615018
1.93 -0.0666557
1.94 -0.0744587
1.95 -0.0848524
1.96 -0.0971889
1.97 -0.110733
1.98 -0.124633
1.99 -0.137946
2 -0.149545
2.01 -0.158593
2.02 -0.164208
2.03 -0.165458
2.04 -0.162305
2.05 -0.153625
2.06 -0.140164
2.07 -0.121609
2.08 -0.0985036
2.09 -0.0715391
2.1 -0.0410767
2.11 -0.00828504
2.12 0.02633
2.13 0.0618469
2.14 0.097691
2.15 0.133331
2.16 0.168502
2.17 0.202978
2.18 0.23692
2.19 0.270493
2.2 0.304068
2.21 0.33801
2.22 0.372814
2.23 0.408675
2.24 0.445932
2.25 0.48444
2.26 0.523975
2.27 0.563963
2.28 0.603609
2.29 0.641569
2.3 0.676751
2.31 0.707386
2.32 0.731864
2.33 0.74898
2.34 0.75624
2.35 0.753741
2.36 0.739164
2.37 0.713061
2.38 0.675119
2.39 0.625427
2.4 0.566085
2.41 0.497177
2.42 0.422055
2.43 0.342396
2.44 0.261064
2.45 0.180548
2.46 0.103901
2.47 0.0328839
2.48 -0.0295438
2.49 -0.0824753
2.5 -0.124676
2.51 -0.155217
2.52 -0.175435
2.53 -0.184459
2.54 -0.185268
2.55 -0.178859
2.56 -0.167741
2.57 -0.154253
2.58 -0.140848
2.59 -0.129634
2.6 -0.122999
2.61 -0.122156
2.62 -0.128235
2.63 -0.14204
2.64 -0.162679
2.65 -0.190518
2.66 -0.22328
2.67 -0.259806
2.68 -0.297895
2.69 -0.335566
2.7 -0.370396
2.71 -0.400957
2.72 -0.42499
2.73 -0.441889
2.74 -0.450914
2.75 -0.451724
2.76 -0.44566
2.77 -0.432825
2.78 -0.415792
2.79 -0.39608
2.8 -0.376086
2.81 -0.357838
2.82 -0.343912
2.83 -0.335446
2.84 -0.334638
2.85 -0.341684
2.86 -0.356979
2.87 -0.380397
2.88 -0.41019
2.89 -0.44563
2.9 -0.483878
2.91 -0.522904
2.92 -0.560035
2.93 -0.593148
2.94 -0.619311
2.95 -0.637754
2.96 -0.646128
2.97 -0.644708
2.98 -0.633386
2.99 -0.612675
3 -0.584866
3.01 -0.551098
3.02 -0.514698
3.03 -0.478103
3.04 -0.444322
3.05 -0.415642
3.06 -0.39526
3.07 -0.383774
3.08 -0.383582
3.09 -0.394095
3.1 -0.415179
3.11 -0.445981
3.12 -0.483862
3.13 -0.527292
3.14 -0.572714
3.15 -0.617423
3.16 -0.658314
3.17 -0.693152
3.18 -0.718794
3.19 -0.735021
3.2 -0.739787
3.21 -0.73421
3.22 -0.71898
3.23 -0.695662
3.24 -0.667278
3.25 -0.636343
3.26 -0.606445
3.27 -0.580902
3.28 -0.562924
3.29 -0.554566
3.3 -0.559141
3.31 -0.575994
3.32 -0.606929
3.33 -0.649828
3.34 -0.703213
3.35 -0.764511
3.36 -0.829856
3.37 -0.895515
3.38 -0.957423
3.39 -1.01138
3.4 -1.05377
3.41 -1.08256
3.42 -1.09404
3.43 -1.08975
3.44 -1.06806
3.45 -1.0322
3.46 -0.984529
3.47 -0.928743
3.48 -0.869705
3.49 -0.812428
3.5 -0.761477
3.51 -0.721799
3.52 -0.697056
3.53 -0.688833
3.54 -0.700132
3.55 -0.727695
3.56 -0.770978
3.57 -0.82401
3.58 -0.881161
3.59 -0.93405
3.6 -0.975184
3.61 -0.991645
3.62 -0.977335
3.63 -0.920294
3.64 -0.812539
3.65 -0.650214
3.66 -0.421718
3.67 -0.133634
3.68 0.221452
3.69 0.634152
3.7 1.09952
3.71 1.60945
3.72 2.1487
3.73 2.7063
3.74 3.26422
3.75 3.80642
3.76 4.3154
3.77 4.77809
3.78 5.17238
3.79 5.49517
3.8 5.72602
3.81 5.86515
3.82 5.90691
3.83 5.84636
3.84 5.69657
3.85 5.44926
3.86 5.12729
3.87 4.73503
3.88 4.28846
3.89 3.80341
3.9 3.29283
3.91 2.77437
3.92 2.26217
3.93 1.76934
3.94 1.30697
3.95 0.886685
3.96 0.510322
3.97 0.190345
3.98 -0.0794256
3.99 -0.294865
4 -0.459881
4.01 -0.580708
4.02 -0.658626
4.03 -0.705418
4.04 -0.724241
4.05 -0.724711
4.06 -0.712728
4.07 -0.694406
4.08 -0.674969
4.09 -0.658773
4.1 -0.648129
4.11 -0.645103
4.12 -0.650086
4.13 -0.662281
4.14 -0.681094
4.15 -0.703911
4.16 -0.728943
4.17 -0.753565
4.18 -0.775608
4.19 -0.792652
4.2 -0.803666
4.21 -0.806167
4.22 -0.800573
4.23 -0.785839
4.24 -0.762271
4.25 -0.730709
4.26 -0.691051
4.27 -0.645206
4.28 -0.593348
4.29 -0.536935
4.3 -0.476658
4.31 -0.413097
4.32 -0.347056
4.33 -0.278519
4.34 -0.208059
4.35 -0.135646
4.36 -0.0614742
4.37 0.0141906
4.38 0.0911386
4.39 0.168699
4.4 0.246142
4.41 0.322408
4.42 0.396265
4.43 0.46592
4.44 0.530301
4.45 0.586496
4.46 0.633905
4.47 0.670122
4.48 0.693819
4.49 0.704575
4.5 0.700047
4.51 0.682014
4.52 0.648937
4.53 0.602855
4.54 0.544714
4.55 0.475839
4.56 0.399188
4.57 0.316062
4.58 0.22979
4.59 0.142474
4.6 0.0566413
4.61 -0.0258768
4.62 -0.102678
4.63 -0.173237
4.64 -0.235777
4.65 -0.29051
4.66 -0.33732
4.67 -0.376325
4.68 -0.409044
4.69 -0.435604
4.7 -0.458076
4.71 -0.477338
4.72 -0.494784
4.73 -0.511507
4.74 -0.528451
4.75 -0.546194
4.76 -0.565215
4.77 -0.585477
4.78 -0.606807
4.79 -0.628776
4.8 -0.650772
4.81 -0.672
4.82 -0.691841
4.83 -0.709508
4.84 -0.724436
4.85 -0.736401
4.86 -0.744841
4.87 -0.750265
4.88 -0.752558
4.89 -0.752467
4.9 -0.750553
4.91 -0.747563
4.92 -0.744331
4.93 -0.741708
4.94 -0.740311
4.95 -0.740806
4.96 -0.743587
4.97 -0.748723
4.98 -0.75648
4.99 -0.766308
5 -0.778076
5.01 -0.791088
5.02 -0.804801
5.03 -0.818556
5.04 -0.831818
5.05 -0.843932
5.06 -0.854684
5.07 -0.863736
5.08 -0.871046
5.09 -0.87677
5.1 -0.88094
5.11 -0.884006
5.12 -0.886098
5.13 -0.887499
5.14 -0.888259
5.15 -0.888193
5.16 -0.887037
5.17 -0.883831
5.18 -0.877875
5.19 -0.867675
5.2 -0.851659
5.21 -0.828574
5.22 -0.795536
5.23 -0.75221
5.24 -0.695573
5.25 -0.625362
5.26 -0.540557
5.27 -0.440112
5.28 -0.325968
5.29 -0.197017
5.3 -0.0571074
5.31 0.0922441
5.32 0.247416
5.33 0.404692
5.34 0.559526
5.35 0.708006
5.36 0.844534
5.37 0.965482
5.38 1.0668
5.39 1.14359
5.4 1.19592
5.41 1.2175
5.42 1.21163
5.43 1.17605
5.44 1.11248
5.45 1.02427
5.46 0.91185
5.47 0.782011
5.48 0.636971
5.49 0.482819
5.5 0.323944
5.51 0.16541
5.52 0.0112062
5.53 -0.133419
5.54 -0.266465
5.55 -0.38442
5.56 -0.485631
5.57 -0.570113
5.58 -0.635716
5.59 -0.685562
5.6 -0.718909
5.61 -0.738912
5.62 -0.747346
5.63 -0.746166
5.64 -0.738436
5.65 -0.725461
5.66 -0.709785
5.67 -0.692581
5.68 -0.674957
5.69 -0.657419
5.7 -0.640062
5.71 -0.622541
5.72 -0.604139
5.73 -0.584001
5.74 -0.561174
5.75 -0.534448
5.76 -0.503494
5.77 -0.466961
5.78 -0.425398
5.79 -0.378554
5.8 -0.327172
5.81 -0.272421
5.82 -0.215502
5.83 -0.158343
5.84 -0.102948
5.85 -0.0513177
5.86 -0.00541454
5.87 0.0323562
5.88 0.0613723
5.89 0.0787167
5.9 0.0851534
5.91 0.0794137
5.92 0.061854
5.93 0.0336742
5.94 -0.00517977
5.95 -0.0518886
5.96 -0.105654
5.97 -0.163923
5.98 -0.224906
5.99 -0.286607
6 -0.347378
6.01 -0.405391
6.02 -0.459891
6.03 -0.509846
6.04 -0.554932
6.05 -0.595417
6.06 -0.631139
6.07 -0.663333
6.08 -0.692394
6.09 -0.719523
6.1 -0.745557
6.11 -0.771366
6.12 -0.79757
6.13 -0.824715
6.14 -0.852817
6.15 -0.881818
6.16 -0.911256
6.17 -0.940518
6.18 -0.968642
6.19 -0.994909
6.2 -1.01811
6.21 -1.03761
6.22 -1.05274
6.23 -1.06279
6.24 -1.0682
6.25 -1.0684
6.26 -1.06462
6.27 -1.05729
6.28 -1.04755
6.29 -1.03653
6.3 -1.0253
6.31 -1.01477
6.32 -1.00572
6.33 -0.998237
6.34 -0.992026
6.35 -0.986055
6.36 -0.978785
6.37 -0.967291
6.38 -0.949075
6.39 -0.920002
6.4 -0.87578
6.41 -0.813259
6.42 -0.725128
6.43 -0.610845
6.44 -0.463126
6.45 -0.281468
6.46 -0.0636317
6.47 0.193083
6.48 0.483918
6.49 0.812026
6.5 1.16853
6.51 1.55053
6.52 1.95025
6.53 2.35937
6.54 2.76856
6.55 3.16842
6.56 3.54705
6.57 3.89539
6.58 4.20392
6.59 4.46054
6.6 4.66378
6.61 4.7978
6.62 4.86761
6.63 4.86566
6.64 4.79273
6.65 4.65443
6.66 4.44722
6.67 4.18601
6.68 3.87173
6.69 3.5178
6.7 3.1331
6.71 2.72778
6.72 2.31374
6.73 1.90136
6.74 1.50021
6.75 1.11981
6.76 0.768039
6.77 0.448813
6.78 0.171242
6.79 -0.067745
6.8 -0.262113
6.81 -0.415879
6.82 -0.530488
6.83 -0.607424
6.84 -0.654468
6.85 -0.672081
6.86 -0.66936
6.87 -0.649694
6.88 -0.618711
6.89 -0.581182
6.9 -0.540814
6.91 -0.501052
6.92 -0.464493
6.93 -0.43258
6.94 -0.406163
6.95 -0.385751
6.96 -0.370382
6.97 -0.360044
6.98 -0.353079
6.99 -0.348738
7 -0.345934
7.01 -0.343879
7.02 -0.342123
7.03 -0.34051
7.04 -0.339319
7.05 -0.33914
7.06 -0.340812
7.07 -0.345646
7.08 -0.354367
7.09 -0.368915
7.1 -0.389504
7.11 -0.417335
7.12 -0.452727
7.13 -0.495218
7.14 -0.545122
7.15 -0.600511
7.16 -0.660635
7.17 -0.723304
7.18 -0.786658
7.19 -0.848337
7.2 -0.906577
7.21 -0.958551
7.22 -1.00337
7.23 -1.03917
7.24 -1.06513
7.25 -1.08153
7.26 -1.08744
7.27 -1.08504
7.28 -1.07461
7.29 -1.0585
7.3 -1.0385
7.31 -1.0167
7.32 -0.995152
7.33 -0.975962
7.34 -0.960304
7.35 -0.949432
7.36 -0.94375
7.37 -0.942771
7.38 -0.946082
7.39 -0.951644
7.4 -0.957559
7.41 -0.961121
7.42 -0.959617
7.43 -0.949391
7.44 -0.928692
7.45 -0.89272
7.46 -0.841214
7.47 -0.771289
7.48 -0.682105
7.49 -0.574634
7.5 -0.447403
7.51 -0.304665
7.52 -0.147032
7.53 0.0209815
7.54 0.195826
7.55 0.37302
7.56 0.548122
7.57 0.715512
7.58 0.871672
7.59 1.01164
7.6 1.13162
7.61 1.23002
7.62 1.30155
7.63 1.34856
7.64 1.36743
7.65 1.36064
7.66 1.32913
7.67 1.27366
7.68 1.19913
7.69 1.10579
7.7 0.999461
7.71 0.882507
7.72 0.758835
7.73 0.631904
7.74 0.504919
7.75 0.380597
7.76 0.261845
7.77 0.15041
7.78 0.0478895
7.79 -0.0438182
7.8 -0.125096
7.81 -0.193634
7.82 -0.25087
7.83 -0.295913
7.84 -0.329092
7.85 -0.351411
7.86 -0.362024
7.87 -0.363098
7.88 -0.354156
7.89 -0.336808
7.9 -0.311897
7.91 -0.280243
7.92 -0.24373
7.93 -0.203175
7.94 -0.160704
7.95 -0.117838
7.96 -0.0765609
7.97 -0.0384756
7.98 -0.00612785
7.99 0.0195723
8 0.0361077
8.01 0.0427236
8.02 0.0383851
8.03 0.0217483
8.04 -0.00602686
8.05 -0.0464425
8.06 -0.0970661
8.07 -0.157497
8.08 -0.225874
8.09 -0.299955
8.1 -0.377971
8.11 -0.457186
8.12 -0.535375
8.13 -0.610356
8.14 -0.680331
8.15 -0.743288
8.16 -0.798992
8.17 -0.845578
8.18 -0.884152
8.19 -0.914484
8.2 -0.937543
8.21 -0.954809
8.22 -0.967103
8.23 -0.976487
8.24 -0.984002
8.25 -0.990961
8.26 -0.998051
8.27 -1.00554
8.28 -1.01305
8.29 -1.01943
8.3 -1.02312
8.31 -1.02163
8.32 -1.0119
8.33 -0.991443
8.34 -0.954858
8.35 -0.900983
8.36 -0.82418
8.37 -0.723075
8.38 -0.595451
8.39 -0.438243
8.4 -0.254393
8.41 -0.0405215
8.42 0.197344
8.43 0.457789
8.44 0.735716
8.45 1.02504
8.46 1.31985
8.47 1.6126
8.48 1.8953
8.49 2.16074
8.5 2.40197
8.51 2.60996
8.52 2.78291
8.53 2.90962
8.54 2.99252
8.55 3.02617
8.56 3.01023
8.57 2.94846
8.58 2.83749
8.59 2.68759
8.6 2.49885
8.61 2.28012
8.62 2.03733
8.63 1.77682
8.64 1.50695
8.65 1.23399
8.66 0.964894
8.67 0.705657
8.68 0.461738
8.69 0.235957
8.7 0.0342622
8.71 -0.14472
8.72 -0.297119
8.73 -0.424834
8.74 -0.528596
8.75 -0.608827
8.76 -0.670153
8.77 -0.712515
8.78 -0.741315
8.79 -0.758466
8.8 -0.767275
8.81 -0.770766
8.82 -0.771088
8.83 -0.770694
8.84 -0.771251
8.85 -0.774019
8.86 -0.7798
8.87 -0.789286
8.88 -0.802171
8.89 -0.818807
8.9 -0.838307
8.91 -0.860351
8.92 -0.884225
8.93 -0.909214
8.94 -0.934724
8.95 -0.960124
8.96 -0.984884
8.97 -1.00863
8.98 -1.03108
8.99 -1.05193
9 -1.07126
9.01 -1.08876
9.02 -1.10466
9.03 -1.11886
9.04 -1.13138
9.05 -1.14231
9.06 -1.15138
9.07 -1.15875
9.08 -1.16402
9.09 -1.16712
9.1 -1.16777
9.11 -1.16544
9.12 -1.16011
9.13 -1.15084
9.14 -1.13772
9.15 -1.12008
9.16 -1.09752
9.17 -1.07005
9.18 -1.03674
9.19 -0.99823
9.2 -0.953843
9.21 -0.904096
9.22 -0.849217
9.23 -0.789376
9.24 -0.725679
9.25 -0.658393
9.26 -0.588952
9.27 -0.518295
9.28 -0.447807
9.29 -0.378716
9.3 -0.312857
9.31 -0.251171
9.32 -0.195637
9.33 -0.147211
9.34 -0.106991
9.35 -0.0765427
9.36 -0.0554063
9.37 -0.0454986
9.38 -0.0454124
9.39 -0.0555492
9.4 -0.0751169
9.41 -0.10261
9.42 -0.13759
9.43 -0.177531
9.44 -0.221263
9.45 -0.266602
9.46 -0.311828
9.47 -0.354949
9.48 -0.394737
9.49 -0.429132
9.5 -0.457772
9.51 -0.479586
9.52 -0.494293
9.53 -0.502443
9.54 -0.503729
9.55 -0.499918
9.56 -0.491556
9.57 -0.480387
9.58 -0.467802
9.59 -0.455434
9.6 -0.44461
9.61 -0.437074
9.62 -0.433529
9.63 -0.43507
9.64 -0.442235
9.65 -0.454834
9.66 -0.473427
9.67 -0.496751
9.68 -0.524666
9.69 -0.555919
9.7 -0.589574
9.71 -0.624608
9.72 -0.659945
9.73 -0.69462
9.74 -0.72796
9.75 -0.759318
9.76 -0.788282
9.77 -0.814807
9.78 -0.83845
9.79 -0.859573
9.8 -0.877794
9.81 -0.89311
9.82 -0.905143
9.83 -0.912893
9.84 -0.915849
9.85 -0.911547
9.86 -0.898918
9.87 -0.87503
9.88 -0.836886
9.89 -0.782625
9.9 -0.706341
9.91 -0.607997
9.92 -0.481726
9.93 -0.326653
9.94 -0.140876
9.95 0.0788983
9.96 0.329074
9.97 0.613472
9.98 0.925564
9.99 1.26396
10 1.62341
10.01 1.99724
10.02 2.37946
10.03 2.76145
10.04 3.1346
10.05 3.49045
10.06 3.82103
10.07 4.11553
10.08 4.37117
10.09 4.57452
10.1 4.727
10.11 4.82152
10.12 4.85608
10.13 4.83436
10.14 4.75036
10.15 4.61577
10.16 4.42915
10.17 4.20027
10.18 3.93571
10.19 3.64192
10.2 3.32967
10.21 3.00531
10.22 2.67846
10.23 2.35624
10.24 2.04594
10.25 1.75195
10.26 1.48168
10.27 1.23495
10.28 1.01666
10.29 0.825648
10.3 0.661474
10.31 0.524198
10.32 0.408685
10.33 0.315091
10.34 0.237255
10.35 0.172811
10.36 0.117836
10.37 0.0686543
10.38 0.0225901
10.39 -0.023235
10.4 -0.0708451
10.41 -0.121612
10.42 -0.176309
10.43 -0.235521
10.44 -0.298564
10.45 -0.365386
10.46 -0.434607
10.47 -0.505327
10.48 -0.576237
10.49 -0.64623
10.5 -0.713866
10.51 -0.778493
10.52 -0.838859
10.53 -0.894531
10.54 -0.945048
10.55 -0.989697
10.56 -1.02896
10.57 -1.06187
10.58 -1.08921
10.59 -1.11061
10.6 -1.12611
10.61 -1.13611
10.62 -1.13985
10.63 -1.1382
10.64 -1.13048
10.65 -1.11709
10.66 -1.0981
10.67 -1.07331
10.68 -1.04363
10.69 -1.00872
10.7 -0.969832
10.71 -0.927408
10.72 -0.882456
10.73 -0.836108
10.74 -0.789534
10.75 -0.743985
10.76 -0.700918
10.77 -0.66151
10.78 -0.626858
10.79 -0.598452
10.8 -0.576368
10.81 -0.562299
10.82 -0.555606
10.83 -0.556861
10.84 -0.565833
10.85 -0.581585
10.86 -0.604255
10.87 -0.632012
10.88 -0.664412
10.89 -0.699968
10.9 -0.737592
10.91 -0.776147
10.92 -0.814558
10.93 -0.851757
10.94 -0.887102
10.95 -0.91988
10.96 -0.949626
10.97 -0.976323
10.98 -0.999462
10.99 -1.01962
11 -1.03663
11.01 -1.05102
11.02 -1.06312
11.03 -1.07323
11.04 -1.08194
11.05 -1.08947
11.06 -1.0963
11.07 -1.10271
11.08 -1.10898
11.09 -1.1153
11.1 -1.12185
11.11 -1.12867
11.12 -1.13584
11.13 -1.14326
11.14 -1.15081
11.15 -1.15823
11.16 -1.16521
11.17 -1.17113
11.18 -1.17546
11.19 -1.17727
11.2 -1.17545
11.21 -1.16913
11.22 -1.15605
11.23 -1.13564
11.24 -1.10522
11.25 -1.06354
11.26 -1.00893
11.27 -0.938572
11.28 -0.852804
11.29 -0.747751
11.3 -0.624855
11.31 -0.482508
11.32 -0.320843
11.33 -0.141873
11.34 0.0551645
11.35 0.265635
11.36 0.488223
11.37 0.71843
11.38 0.952396
11.39 1.18522
11.4 1.41253
11.41 1.62783
11.42 1.82747
11.43 2.00577
11.44 2.15786
11.45 2.28208
11.46 2.37092
11.47 2.42723
11.48 2.44578
11.49 2.42874
11.5 2.37703
11.51 2.29035
11.52 2.17522
11.53 2.03116
11.54 1.86602
11.55 1.68301
11.56 1.48763
11.57 1.28534
11.58 1.08093
11.59 0.879191
11.6 0.684744
11.61 0.500898
11.62 0.33025
11.63 0.176024
11.64 0.0374891
11.65 -0.082407
11.66 -0.186259
11.67 -0.273968
11.68 -0.347168
11.69 -0.408607
11.7 -0.459131
11.71 -0.502494
11.72 -0.540148
11.73 -0.574664
11.74 -0.607754
11.75 -0.640957
11.76 -0.675198
11.77 -0.711248
11.78 -0.748952
11.79 -0.788027
11.8 -0.827583
11.81 -0.866524
11.82 -0.90308
11.83 -0.935984
11.84 -0.96298
11.85 -0.982548
11.86 -0.993131
11.87 -0.992341
11.88 -0.980247
11.89 -0.9539
11.9 -0.914294
11.91 -0.860222
11.92 -0.791661
11.93 -0.709985
11.94 -0.614205
11.95 -0.507414
11.96 -0.389792
11.97 -0.263892
11.98 -0.131669
11.99 0.00475539
12 0.142655
12.01 0.279412
12.02 0.412511
12.03 0.539197
12.04 0.65668
12.05 0.763456
12.06 0.855484
12.07 0.933032
12.08 0.992777
12.09 1.03461
12.1 1.05798
12.11 1.06138
12.12 1.04734
12.13 1.01402
12.14 0.965061
12.15 0.901131
12.16 0.824503
12.17 0.738267
12.18 0.644085
12.19 0.545742
12.2 0.445553
12.21 0.346422
12.22 0.250593
12.23 0.160663
12.24 0.0775048
12.25 0.00351622
12.26 -0.0617134
12.27 -0.117488
12.28 -0.164173
12.29 -0.203173
12.3 -0.234809
12.31 -0.261626
12.32 -0.284839
12.33 -0.306601
12.34 -0.328577
12.35 -0.352588
12.36 -0.379604
12.37 -0.411112
12.38 -0.447022
