# xPDFsuite Configuration #
[PDF]
wavelength = 0.1432
dataformat = twotheta
inputfile = 1_1Pd_CeO2_cycle-00500.chi
backgroundfile = background-00000.chi
mode = xray
bgscale = 1.007
composition = CeO2
outputtype = gr
qmaxinst = 28.8974762299
qmin = 0.5
qmax = 27.9
rmax = 50.0
rmin = 0.0
rstep = 0.01
rpoly = 1.8657

[Misc]
inputdir = G:/SankarDec16/1Pd/Chi
savedir = D:/DATA/APS_CeO2/1Pd
backgroundfilefull = G:/SankarDec16/Background/background-00000.chi

#### start data
#S 1
#L r($\AA$)  G($\AA^{-2}$)
0 0
0.01 -0.00437743
0.02 -0.0084245
0.03 -0.0118011
0.04 -0.0142512
0.05 -0.0156324
0.06 -0.0157159
0.07 -0.0146548
0.08 -0.012376
0.09 -0.00917118
0.1 -0.00524253
0.11 -0.000899031
0.12 0.00352295
0.13 0.00764545
0.14 0.0112019
0.15 0.0138651
0.16 0.0154446
0.17 0.0158647
0.18 0.0149708
0.19 0.0129886
0.2 0.00992857
0.21 0.00613124
0.22 0.00184852
0.23 -0.00257249
0.24 -0.00681575
0.25 -0.0104742
0.26 -0.013358
0.27 -0.0151693
0.28 -0.0157921
0.29 -0.0152217
0.3 -0.0133853
0.31 -0.0105702
0.32 -0.00687031
0.33 -0.00265836
0.34 0.00177628
0.35 0.0060651
0.36 0.00992802
0.37 0.0129488
0.38 0.0150236
0.39 0.0158987
0.4 0.0155386
0.41 0.0140099
0.42 0.0113253
0.43 0.00782013
0.44 0.00366685
0.45 -0.000747273
0.46 -0.00510973
0.47 -0.00904842
0.48 -0.0123332
0.49 -0.0145591
0.5 -0.0157137
0.51 -0.0155999
0.52 -0.0142648
0.53 -0.0118432
0.54 -0.00843336
0.55 -0.00440206
0.56 7.61619e-06
0.57 0.00441285
0.58 0.00849341
0.59 0.0118916
0.6 0.014439
0.61 0.0157618
0.62 0.0159398
0.63 0.0148427
0.64 0.0125982
0.65 0.00940303
0.66 0.00543649
0.67 0.00107904
0.68 -0.00336747
0.69 -0.00754318
0.7 -0.011136
0.71 -0.0138199
0.72 -0.0154966
0.73 -0.0158416
0.74 -0.0150233
0.75 -0.0129839
0.76 -0.00992524
0.77 -0.00609559
0.78 -0.00174553
0.79 0.00275005
0.8 0.00704739
0.81 0.0108279
0.82 0.0138046
0.83 0.015701
0.84 0.0164936
0.85 0.0159261
0.86 0.0142448
0.87 0.0114683
0.88 0.00786014
0.89 0.00370508
0.9 -0.000691427
0.91 -0.00498423
0.92 -0.00881296
0.93 -0.0119239
0.94 -0.0140799
0.95 -0.0150815
0.96 -0.0149883
0.97 -0.0136491
0.98 -0.0113785
0.99 -0.00829089
1 -0.00470887
1.01 -0.000944451
1.02 0.0026366
1.03 0.00574974
1.04 0.00802018
1.05 0.00929066
1.06 0.00939438
1.07 0.00823629
1.08 0.00598931
1.09 0.00264403
1.1 -0.00138646
1.11 -0.00584777
1.12 -0.0103165
1.13 -0.0144184
1.14 -0.0176533
1.15 -0.0197832
1.16 -0.0203256
1.17 -0.0191992
1.18 -0.0162478
1.19 -0.0114123
1.2 -0.00499294
1.21 0.00300308
1.22 0.0119903
1.23 0.021635
1.24 0.0313796
1.25 0.0407338
1.26 0.049052
1.27 0.0559993
1.28 0.0609217
1.29 0.0636474
1.3 0.0638881
1.31 0.0614254
1.32 0.0565364
1.33 0.0489537
1.34 0.0393293
1.35 0.0278058
1.36 0.0149043
1.37 0.0011241
1.38 -0.0130397
1.39 -0.0270493
1.4 -0.0403521
1.41 -0.0525412
1.42 -0.0632102
1.43 -0.0719441
1.44 -0.0787169
1.45 -0.0829991
1.46 -0.0850824
1.47 -0.0847407
1.48 -0.0821104
1.49 -0.0773883
1.5 -0.0705379
1.51 -0.0620222
1.52 -0.0518569
1.53 -0.0404564
1.54 -0.0280456
1.55 -0.0149111
1.56 -0.00139967
1.57 0.0121825
1.58 0.0254914
1.59 0.0381552
1.6 0.0498055
1.61 0.0601504
1.62 0.0686426
1.63 0.0752006
1.64 0.0792305
1.65 0.0806956
1.66 0.0793452
1.67 0.0749576
1.68 0.0678297
1.69 0.0576047
1.7 0.0449635
1.71 0.0300033
1.72 0.0132782
1.73 -0.00463808
1.74 -0.0231596
1.75 -0.041574
1.76 -0.0591333
1.77 -0.0752253
1.78 -0.0892378
1.79 -0.100529
1.8 -0.109033
1.81 -0.114012
1.82 -0.115949
1.83 -0.114685
1.84 -0.110657
1.85 -0.104424
1.86 -0.0964592
1.87 -0.0876715
1.88 -0.0787819
1.89 -0.0706191
1.9 -0.0639077
1.91 -0.0594237
1.92 -0.0573983
1.93 -0.0586323
1.94 -0.0627535
1.95 -0.0699329
1.96 -0.0797201
1.97 -0.0915074
1.98 -0.104675
1.99 -0.118216
2 -0.131148
2.01 -0.142477
2.02 -0.151222
2.03 -0.15627
2.04 -0.157291
2.05 -0.15289
2.06 -0.143478
2.07 -0.128405
2.08 -0.107903
2.09 -0.0824599
2.1 -0.0520968
2.11 -0.0180629
2.12 0.0193301
2.13 0.0589199
2.14 0.0999667
2.15 0.141634
2.16 0.183215
2.17 0.224006
2.18 0.263677
2.19 0.301828
2.2 0.338336
2.21 0.37325
2.22 0.40648
2.23 0.43837
2.24 0.468891
2.25 0.498277
2.26 0.526526
2.27 0.553494
2.28 0.579098
2.29 0.602645
2.3 0.62388
2.31 0.641885
2.32 0.655869
2.33 0.665199
2.34 0.668356
2.35 0.665359
2.36 0.654622
2.37 0.636302
2.38 0.609956
2.39 0.575294
2.4 0.533454
2.41 0.483955
2.42 0.428884
2.43 0.368931
2.44 0.305816
2.45 0.241158
2.46 0.176731
2.47 0.114095
2.48 0.0551741
2.49 0.00108191
2.5 -0.0469987
2.51 -0.0879373
2.52 -0.122061
2.53 -0.148128
2.54 -0.167635
2.55 -0.180609
2.56 -0.188252
2.57 -0.191864
2.58 -0.192504
2.59 -0.191843
2.6 -0.1911
2.61 -0.191514
2.62 -0.194037
2.63 -0.199549
2.64 -0.20812
2.65 -0.220383
2.66 -0.235578
2.67 -0.253491
2.68 -0.273269
2.69 -0.294022
2.7 -0.314758
2.71 -0.334571
2.72 -0.352407
2.73 -0.367699
2.74 -0.379918
2.75 -0.388677
2.76 -0.394364
2.77 -0.39682
2.78 -0.397084
2.79 -0.39571
2.8 -0.393722
2.81 -0.392034
2.82 -0.391764
2.83 -0.393522
2.84 -0.398287
2.85 -0.406229
2.86 -0.417552
2.87 -0.432206
2.88 -0.449434
2.89 -0.468831
2.9 -0.489129
2.91 -0.509326
2.92 -0.528166
2.93 -0.54467
2.94 -0.557421
2.95 -0.566152
2.96 -0.569771
2.97 -0.568536
2.98 -0.562508
2.99 -0.552093
3 -0.538523
3.01 -0.522577
3.02 -0.505941
3.03 -0.489977
3.04 -0.476224
3.05 -0.4658
3.06 -0.460339
3.07 -0.459943
3.08 -0.465731
3.09 -0.47715
3.1 -0.493905
3.11 -0.515265
3.12 -0.539677
3.13 -0.565968
3.14 -0.592242
3.15 -0.616858
3.16 -0.638161
3.17 -0.655065
3.18 -0.665927
3.19 -0.670999
3.2 -0.66942
3.21 -0.662239
3.22 -0.650243
3.23 -0.634812
3.24 -0.617902
3.25 -0.601587
3.26 -0.587892
3.27 -0.579087
3.28 -0.577029
3.29 -0.582747
3.3 -0.598195
3.31 -0.622413
3.32 -0.656229
3.33 -0.697759
3.34 -0.74561
3.35 -0.797605
3.36 -0.850977
3.37 -0.902701
3.38 -0.950144
3.39 -0.990241
3.4 -1.02063
3.41 -1.04011
3.42 -1.04622
3.43 -1.04045
3.44 -1.02187
3.45 -0.993113
3.46 -0.956086
3.47 -0.91366
3.48 -0.869378
3.49 -0.826947
3.5 -0.789491
3.51 -0.760433
3.52 -0.742103
3.53 -0.7353
3.54 -0.741611
3.55 -0.758292
3.56 -0.784111
3.57 -0.814252
3.58 -0.843929
3.59 -0.866147
3.6 -0.875317
3.61 -0.86057
3.62 -0.817785
3.63 -0.737287
3.64 -0.613058
3.65 -0.442424
3.66 -0.216144
3.67 0.0598614
3.68 0.391461
3.69 0.770634
3.7 1.19314
3.71 1.65214
3.72 2.135
3.73 2.63249
3.74 3.1297
3.75 3.61317
3.76 4.06821
3.77 4.48377
3.78 4.84095
3.79 5.13694
3.8 5.35388
3.81 5.49148
3.82 5.54431
3.83 5.50724
3.84 5.39098
3.85 5.18704
3.86 4.91484
3.87 4.57708
3.88 4.18701
3.89 3.7582
3.9 3.30099
3.91 2.83154
3.92 2.3617
3.93 1.90392
3.94 1.46845
3.95 1.0663
3.96 0.700399
3.97 0.382621
3.98 0.108918
3.99 -0.115959
4 -0.294335
4.01 -0.430982
4.02 -0.525924
4.03 -0.589643
4.04 -0.624229
4.05 -0.638633
4.06 -0.638296
4.07 -0.629049
4.08 -0.61648
4.09 -0.60496
4.1 -0.597623
4.11 -0.597025
4.12 -0.60428
4.13 -0.619167
4.14 -0.641728
4.15 -0.66955
4.16 -0.701189
4.17 -0.733834
4.18 -0.765106
4.19 -0.792141
4.2 -0.813296
4.21 -0.825322
4.22 -0.828002
4.23 -0.819497
4.24 -0.799514
4.25 -0.768618
4.26 -0.726103
4.27 -0.67435
4.28 -0.613403
4.29 -0.545518
4.3 -0.472031
4.31 -0.394457
4.32 -0.314607
4.33 -0.233723
4.34 -0.15321
4.35 -0.0741585
4.36 0.00249683
4.37 0.0762178
4.38 0.146018
4.39 0.211997
4.4 0.273261
4.41 0.329868
4.42 0.381438
4.43 0.427367
4.44 0.467911
4.45 0.501689
4.46 0.529214
4.47 0.549472
4.48 0.562127
4.49 0.567178
4.5 0.563368
4.51 0.551677
4.52 0.531001
4.53 0.502219
4.54 0.465489
4.55 0.421029
4.56 0.370292
4.57 0.313236
4.58 0.25179
4.59 0.186689
4.6 0.119321
4.61 0.0509211
4.62 -0.0172585
4.63 -0.0841812
4.64 -0.14862
4.65 -0.209887
4.66 -0.267282
4.67 -0.320067
4.68 -0.368441
4.69 -0.41151
4.7 -0.450058
4.71 -0.483858
4.72 -0.513325
4.73 -0.539014
4.74 -0.560979
4.75 -0.580147
4.76 -0.596632
4.77 -0.611112
4.78 -0.623931
4.79 -0.635411
4.8 -0.64597
4.81 -0.655744
4.82 -0.665049
4.83 -0.674002
4.84 -0.682746
4.85 -0.691379
4.86 -0.699971
4.87 -0.708572
4.88 -0.717217
4.89 -0.725912
4.9 -0.734651
4.91 -0.743399
4.92 -0.752107
4.93 -0.760679
4.94 -0.769035
4.95 -0.77704
4.96 -0.78456
4.97 -0.791503
4.98 -0.797666
4.99 -0.803064
5 -0.80754
5.01 -0.811168
5.02 -0.813991
5.03 -0.81611
5.04 -0.817771
5.05 -0.819177
5.06 -0.820653
5.07 -0.822501
5.08 -0.82503
5.09 -0.828426
5.1 -0.832966
5.11 -0.838519
5.12 -0.845065
5.13 -0.852162
5.14 -0.859287
5.15 -0.865547
5.16 -0.870108
5.17 -0.871274
5.18 -0.868109
5.19 -0.858738
5.2 -0.841563
5.21 -0.815564
5.22 -0.778047
5.23 -0.729386
5.24 -0.667146
5.25 -0.591873
5.26 -0.503299
5.27 -0.401281
5.28 -0.288126
5.29 -0.163729
5.3 -0.0317384
5.31 0.105983
5.32 0.246098
5.33 0.385485
5.34 0.520066
5.35 0.647116
5.36 0.762008
5.37 0.862353
5.38 0.945233
5.39 1.00714
5.4 1.04867
5.41 1.06513
5.42 1.05962
5.43 1.03056
5.44 0.979514
5.45 0.909151
5.46 0.819766
5.47 0.71652
5.48 0.600851
5.49 0.477223
5.5 0.34871
5.51 0.218794
5.52 0.0904604
5.53 -0.0328097
5.54 -0.149297
5.55 -0.256509
5.56 -0.353019
5.57 -0.438511
5.58 -0.51112
5.59 -0.572551
5.6 -0.621723
5.61 -0.660312
5.62 -0.689004
5.63 -0.708442
5.64 -0.72056
5.65 -0.725291
5.66 -0.724563
5.67 -0.71865
5.68 -0.708268
5.69 -0.694009
5.7 -0.675658
5.71 -0.653828
5.72 -0.628029
5.73 -0.598492
5.74 -0.565094
5.75 -0.527637
5.76 -0.486649
5.77 -0.441856
5.78 -0.394252
5.79 -0.344262
5.8 -0.292886
5.81 -0.241167
5.82 -0.19046
5.83 -0.141885
5.84 -0.0971449
5.85 -0.0573302
5.86 -0.0236731
5.87 0.0023091
5.88 0.0206471
5.89 0.029383
5.9 0.0295341
5.91 0.0203805
5.92 0.00241045
5.93 -0.02337
5.94 -0.0569439
5.95 -0.0962714
5.96 -0.14086
5.97 -0.188978
5.98 -0.239474
5.99 -0.291108
6 -0.342757
6.01 -0.393349
6.02 -0.442275
6.03 -0.488868
6.04 -0.532806
6.05 -0.574111
6.06 -0.612511
6.07 -0.648571
6.08 -0.682278
6.09 -0.714155
6.1 -0.744485
6.11 -0.773508
6.12 -0.801548
6.13 -0.828563
6.14 -0.854682
6.15 -0.879709
6.16 -0.903421
6.17 -0.925625
6.18 -0.945756
6.19 -0.963782
6.2 -0.979132
6.21 -0.991809
6.22 -1.0017
6.23 -1.00873
6.24 -1.01338
6.25 -1.01562
6.26 -1.01625
6.27 -1.0156
6.28 -1.01427
6.29 -1.01268
6.3 -1.01117
6.31 -1.00977
6.32 -1.00826
6.33 -1.006
6.34 -1.002
6.35 -0.994493
6.36 -0.982069
6.37 -0.961197
6.38 -0.930245
6.39 -0.88538
6.4 -0.823306
6.41 -0.742006
6.42 -0.635556
6.43 -0.504716
6.44 -0.343963
6.45 -0.153994
6.46 0.0661921
6.47 0.317843
6.48 0.596351
6.49 0.903296
6.5 1.2311
6.51 1.57677
6.52 1.93371
6.53 2.2952
6.54 2.6533
6.55 3.00098
6.56 3.32849
6.57 3.62905
6.58 3.89526
6.59 4.11759
6.6 4.29532
6.61 4.41566
6.62 4.48299
6.63 4.49109
6.64 4.44047
6.65 4.33552
6.66 4.17274
6.67 3.96405
6.68 3.70934
6.69 3.41913
6.7 3.10004
6.71 2.75954
6.72 2.40742
6.73 2.05104
6.74 1.69884
6.75 1.35822
6.76 1.03598
6.77 0.736035
6.78 0.466052
6.79 0.224883
6.8 0.0181488
6.81 -0.156136
6.82 -0.298084
6.83 -0.407611
6.84 -0.490263
6.85 -0.5449
6.86 -0.57866
6.87 -0.59334
6.88 -0.593143
6.89 -0.582095
6.9 -0.562572
6.91 -0.53846
6.92 -0.5117
6.93 -0.484525
6.94 -0.458293
6.95 -0.434175
6.96 -0.412481
6.97 -0.393914
6.98 -0.378075
6.99 -0.365062
7 -0.354638
7.01 -0.346509
7.02 -0.340871
7.03 -0.337434
7.04 -0.336683
7.05 -0.338774
7.06 -0.344168
7.07 -0.353647
7.08 -0.367284
7.09 -0.386352
7.1 -0.41053
7.11 -0.44046
7.12 -0.476077
7.13 -0.51683
7.14 -0.562742
7.15 -0.612325
7.16 -0.664914
7.17 -0.718918
7.18 -0.772986
7.19 -0.82541
7.2 -0.874994
7.21 -0.919681
7.22 -0.958911
7.23 -0.99133
7.24 -1.01635
7.25 -1.03417
7.26 -1.04403
7.27 -1.04749
7.28 -1.0446
7.29 -1.03701
7.3 -1.02588
7.31 -1.01257
7.32 -0.998542
7.33 -0.985072
7.34 -0.973068
7.35 -0.963281
7.36 -0.955957
7.37 -0.95078
7.38 -0.947266
7.39 -0.944122
7.4 -0.939806
7.41 -0.932465
7.42 -0.92012
7.43 -0.900045
7.44 -0.871119
7.45 -0.829644
7.46 -0.775613
7.47 -0.706822
7.48 -0.622675
7.49 -0.523967
7.5 -0.409501
7.51 -0.282619
7.52 -0.143721
7.53 0.00367437
7.54 0.156812
7.55 0.312202
7.56 0.466288
7.57 0.614624
7.58 0.75428
7.59 0.881195
7.6 0.992124
7.61 1.0856
7.62 1.15702
7.63 1.20805
7.64 1.23534
7.65 1.24061
7.66 1.22429
7.67 1.18658
7.68 1.13142
7.69 1.05846
7.7 0.972635
7.71 0.875626
7.72 0.77068
7.73 0.66086
7.74 0.548716
7.75 0.437026
7.76 0.328272
7.77 0.224376
7.78 0.126991
7.79 0.0380549
7.8 -0.0423661
7.81 -0.112001
7.82 -0.171779
7.83 -0.220691
7.84 -0.258819
7.85 -0.286946
7.86 -0.304176
7.87 -0.312468
7.88 -0.311349
7.89 -0.302327
7.9 -0.286203
7.91 -0.263756
7.92 -0.236749
7.93 -0.205916
7.94 -0.173193
7.95 -0.139908
7.96 -0.107779
7.97 -0.0781847
7.98 -0.0532482
7.99 -0.0337444
8 -0.0217482
8.01 -0.0178883
8.02 -0.0230237
8.03 -0.0382792
8.04 -0.062729
8.05 -0.0976687
8.06 -0.141151
8.07 -0.192936
8.08 -0.251589
8.09 -0.315331
8.1 -0.382861
8.11 -0.451925
8.12 -0.520816
8.13 -0.587711
8.14 -0.651119
8.15 -0.709346
8.16 -0.762036
8.17 -0.807544
8.18 -0.846538
8.19 -0.878601
8.2 -0.904244
8.21 -0.924458
8.22 -0.939508
8.23 -0.950979
8.24 -0.959326
8.25 -0.965528
8.26 -0.969994
8.27 -0.972726
8.28 -0.973606
8.29 -0.971405
8.3 -0.965202
8.31 -0.952955
8.32 -0.932347
8.33 -0.901635
8.34 -0.856461
8.35 -0.796263
8.36 -0.716536
8.37 -0.616416
8.38 -0.494243
8.39 -0.347636
8.4 -0.179114
8.41 0.0140391
8.42 0.22686
8.43 0.458197
8.44 0.703901
8.45 0.959013
8.46 1.21874
8.47 1.4769
8.48 1.72694
8.49 1.96288
8.5 2.17896
8.51 2.3676
8.52 2.52718
8.53 2.64819
8.54 2.73241
8.55 2.77499
8.56 2.77532
8.57 2.73624
8.58 2.65434
8.59 2.53808
8.6 2.38691
8.61 2.20805
8.62 2.00616
8.63 1.78614
8.64 1.55519
8.65 1.31797
8.66 1.08079
8.67 0.848509
8.68 0.625921
8.69 0.415802
8.7 0.223145
8.71 0.0475313
8.72 -0.107606
8.73 -0.243252
8.74 -0.359575
8.75 -0.456427
8.76 -0.537221
8.77 -0.601345
8.78 -0.652989
8.79 -0.693279
8.8 -0.72461
8.81 -0.749358
8.82 -0.768752
8.83 -0.785041
8.84 -0.799174
8.85 -0.81236
8.86 -0.825265
8.87 -0.838393
8.88 -0.851936
8.89 -0.866031
8.9 -0.880543
8.91 -0.895363
8.92 -0.910303
8.93 -0.925206
8.94 -0.939921
8.95 -0.954403
8.96 -0.968608
8.97 -0.982602
8.98 -0.996464
8.99 -1.01031
9 -1.02425
9.01 -1.03839
9.02 -1.05273
9.03 -1.06725
9.04 -1.08181
9.05 -1.09618
9.06 -1.10997
9.07 -1.12282
9.08 -1.13407
9.09 -1.14321
9.1 -1.14962
9.11 -1.15241
9.12 -1.15137
9.13 -1.14523
9.14 -1.13411
9.15 -1.11723
9.16 -1.0943
9.17 -1.06556
9.18 -1.03024
9.19 -0.989388
9.2 -0.942657
9.21 -0.890962
9.22 -0.834877
9.23 -0.774997
9.24 -0.712545
9.25 -0.648204
9.26 -0.583273
9.27 -0.518772
9.28 -0.455907
9.29 -0.395569
9.3 -0.339313
9.31 -0.287516
9.32 -0.241654
9.33 -0.202116
9.34 -0.169489
9.35 -0.144693
9.36 -0.127093
9.37 -0.117907
9.38 -0.115904
9.39 -0.121261
9.4 -0.133339
9.41 -0.151059
9.42 -0.174168
9.43 -0.200962
9.44 -0.230781
9.45 -0.262232
9.46 -0.294268
9.47 -0.325716
9.48 -0.355743
9.49 -0.383167
9.5 -0.407636
9.51 -0.428468
9.52 -0.445385
9.53 -0.458584
9.54 -0.467748
9.55 -0.47378
9.56 -0.476837
9.57 -0.477823
9.58 -0.477443
9.59 -0.476517
9.6 -0.475843
9.61 -0.476312
9.62 -0.478457
9.63 -0.48293
9.64 -0.490165
9.65 -0.500208
9.66 -0.513535
9.67 -0.529622
9.68 -0.548593
9.69 -0.569914
9.7 -0.593207
9.71 -0.618083
9.72 -0.64393
9.73 -0.670373
9.74 -0.696882
9.75 -0.723056
9.76 -0.748466
9.77 -0.772817
9.78 -0.795507
9.79 -0.816333
9.8 -0.834495
9.81 -0.849443
9.82 -0.86035
9.83 -0.86571
9.84 -0.864893
9.85 -0.855074
9.86 -0.835474
9.87 -0.80332
9.88 -0.756138
9.89 -0.692712
9.9 -0.608055
9.91 -0.502911
9.92 -0.372622
9.93 -0.217142
9.94 -0.0354039
9.95 0.174773
9.96 0.409926
9.97 0.672718
9.98 0.9575
9.99 1.26284
10 1.5843
10.01 1.91644
10.02 2.25428
10.03 2.59105
10.04 2.91981
10.05 3.23392
10.06 3.52706
10.07 3.79058
10.08 4.02233
10.09 4.21139
10.1 4.35884
10.11 4.45869
10.12 4.509
10.13 4.51242
10.14 4.46333
10.15 4.37095
10.16 4.23319
10.17 4.05752
10.18 3.84873
10.19 3.61118
10.2 3.35378
10.21 3.08053
10.22 2.79988
10.23 2.51719
10.24 2.23863
10.25 1.96844
10.26 1.71258
10.27 1.47224
10.28 1.25177
10.29 1.0514
10.3 0.871616
10.31 0.713486
10.32 0.573706
10.33 0.453481
10.34 0.348365
10.35 0.257224
10.36 0.177409
10.37 0.106011
10.38 0.0415751
10.39 -0.0188355
10.4 -0.0765256
10.41 -0.133161
10.42 -0.189721
10.43 -0.246981
10.44 -0.305186
10.45 -0.364552
10.46 -0.424739
10.47 -0.485433
10.48 -0.546076
10.49 -0.606142
10.5 -0.664846
10.51 -0.721805
10.52 -0.776231
10.53 -0.827769
10.54 -0.876022
10.55 -0.920364
10.56 -0.96095
10.57 -0.996886
10.58 -1.02851
10.59 -1.0553
10.6 -1.07703
10.61 -1.09383
10.62 -1.10477
10.63 -1.11048
10.64 -1.11013
10.65 -1.104
10.66 -1.09205
10.67 -1.07399
10.68 -1.05067
10.69 -1.02167
10.7 -0.988216
10.71 -0.950665
10.72 -0.909959
10.73 -0.867213
10.74 -0.823434
10.75 -0.779926
10.76 -0.738003
10.77 -0.698862
10.78 -0.663591
10.79 -0.633637
10.8 -0.609223
10.81 -0.592001
10.82 -0.581544
10.83 -0.578512
10.84 -0.582845
10.85 -0.593779
10.86 -0.611628
10.87 -0.634721
10.88 -0.662791
10.89 -0.694463
10.9 -0.728742
10.91 -0.764599
10.92 -0.800916
10.93 -0.836711
10.94 -0.87122
10.95 -0.903707
10.96 -0.93362
10.97 -0.960829
10.98 -0.984767
10.99 -1.00589
11 -1.02398
11.01 -1.03948
11.02 -1.05272
11.03 -1.06395
11.04 -1.07377
11.05 -1.08238
11.06 -1.09029
11.07 -1.09775
11.08 -1.10503
11.09 -1.11228
11.1 -1.11959
11.11 -1.12693
11.12 -1.13421
11.13 -1.14122
11.14 -1.1477
11.15 -1.15316
11.16 -1.15728
11.17 -1.1592
11.18 -1.15848
11.19 -1.15415
11.2 -1.14523
11.21 -1.13111
11.22 -1.10975
11.23 -1.08103
11.24 -1.04276
11.25 -0.994208
11.26 -0.934241
11.27 -0.86078
11.28 -0.774417
11.29 -0.672214
11.3 -0.555582
11.31 -0.423388
11.32 -0.275872
11.33 -0.1147
11.34 0.0606947
11.35 0.246673
11.36 0.442249
11.37 0.643956
11.38 0.848833
11.39 1.05313
11.4 1.25342
11.41 1.44466
11.42 1.62391
11.43 1.7866
11.44 1.92872
11.45 2.04872
11.46 2.14027
11.47 2.20531
11.48 2.23913
11.49 2.243
11.5 2.21716
11.51 2.16061
11.52 2.0784
11.53 1.96916
11.54 1.83924
11.55 1.69068
11.56 1.52766
11.57 1.35485
11.58 1.17555
11.59 0.994529
11.6 0.815387
11.61 0.641544
11.62 0.475654
11.63 0.320879
11.64 0.17753
11.65 0.0486183
11.66 -0.0671348
11.67 -0.168964
11.68 -0.257498
11.69 -0.334576
11.7 -0.400104
11.71 -0.457197
11.72 -0.506513
11.73 -0.550256
11.74 -0.589869
11.75 -0.626558
11.76 -0.66163
11.77 -0.695655
11.78 -0.729158
11.79 -0.762136
11.8 -0.794256
11.81 -0.825022
11.82 -0.853217
11.83 -0.87814
11.84 -0.898113
11.85 -0.912041
11.86 -0.918719
11.87 -0.916214
11.88 -0.904534
11.89 -0.881189
11.9 -0.846879
11.91 -0.800482
11.92 -0.741831
11.93 -0.671954
11.94 -0.589829
11.95 -0.497984
11.96 -0.396398
11.97 -0.287151
11.98 -0.17182
11.99 -0.0520681
12 0.0697467
12.01 0.191575
12.02 0.311187
12.03 0.426307
12.04 0.534555
12.05 0.634559
12.06 0.722944
12.07 0.79973
12.08 0.86206
12.09 0.909641
12.1 0.941842
12.11 0.957127
12.12 0.95742
12.13 0.9408
12.14 0.910093
12.15 0.865497
12.16 0.808572
12.17 0.741758
12.18 0.665877
12.19 0.584233
12.2 0.498333
12.21 0.410692
12.22 0.323218
12.23 0.238019
12.24 0.156318
12.25 0.0801154
12.26 0.00971929
12.27 -0.0539401
12.28 -0.110612
12.29 -0.160933
12.3 -0.20455
12.31 -0.243156
12.32 -0.277155
12.33 -0.308009
12.34 -0.336828
12.35 -0.364744
12.36 -0.392787
12.37 -0.421874
12.38 -0.452424
