# xPDFsuite Configuration #
[PDF]
wavelength = 0.1432
dataformat = twotheta
inputfile = 1_1Pd_CeO2_cycle-00116.chi
backgroundfile = background-00000.chi
mode = xray
bgscale = 1.007
composition = CeO2
outputtype = gr
qmaxinst = 28.8974762299
qmin = 0.5
qmax = 27.9
rmax = 50.0
rmin = 0.0
rstep = 0.01
rpoly = 1.8657

[Misc]
inputdir = G:/SankarDec16/1Pd/Chi
savedir = D:/DATA/APS_CeO2/1Pd
backgroundfilefull = G:/SankarDec16/Background/background-00000.chi

#### start data
#S 1
#L r($\AA$)  G($\AA^{-2}$)
0 0
0.01 -0.00713295
0.02 -0.0137282
0.03 -0.0192319
0.04 -0.0232274
0.05 -0.0254825
0.06 -0.0256245
0.07 -0.023902
0.08 -0.0201956
0.09 -0.0149797
0.1 -0.00858283
0.11 -0.00150749
0.12 0.00569854
0.13 0.0124204
0.14 0.0182231
0.15 0.0225737
0.16 0.0251608
0.17 0.0258602
0.18 0.0244186
0.19 0.0212021
0.2 0.0162261
0.21 0.0100443
0.22 0.00306594
0.23 -0.00414449
0.24 -0.0110715
0.25 -0.0170526
0.26 -0.0217764
0.27 -0.0247564
0.28 -0.0258015
0.29 -0.0249019
0.3 -0.021936
0.31 -0.0173702
0.32 -0.0113543
0.33 -0.00449519
0.34 0.00273694
0.35 0.00974202
0.36 0.016062
0.37 0.0210182
0.38 0.024438
0.39 0.0259053
0.4 0.0253586
0.41 0.0229033
0.42 0.0185561
0.43 0.0128617
0.44 0.00609765
0.45 -0.00110491
0.46 -0.00823715
0.47 -0.0146919
0.48 -0.0200908
0.49 -0.0237721
0.5 -0.0257103
0.51 -0.0255803
0.52 -0.0234539
0.53 -0.0195472
0.54 -0.0140153
0.55 -0.0074554
0.56 -0.000259934
0.57 0.00694537
0.58 0.0136378
0.59 0.0192318
0.6 0.0234478
0.61 0.0256726
0.62 0.0260303
0.63 0.0243028
0.64 0.0206929
0.65 0.0155176
0.66 0.00906399
0.67 0.0019533
0.68 -0.0053253
0.69 -0.0121814
0.7 -0.0181035
0.71 -0.022556
0.72 -0.0253719
0.73 -0.0260164
0.74 -0.0247577
0.75 -0.0214956
0.76 -0.0165543
0.77 -0.0103366
0.78 -0.0032474
0.79 0.00409829
0.8 0.0111396
0.81 0.0173504
0.82 0.0222571
0.83 0.0254009
0.84 0.0267366
0.85 0.025836
0.86 0.0230976
0.87 0.0185447
0.88 0.012606
0.89 0.00574783
0.9 -0.00152971
0.91 -0.00865313
0.92 -0.015025
0.93 -0.0202164
0.94 -0.0238252
0.95 -0.0255052
0.96 -0.0253426
0.97 -0.0230606
0.98 -0.0191711
0.99 -0.0138398
1 -0.0075891
1.01 -0.000930511
1.02 0.00554553
1.03 0.0113491
1.04 0.0158616
1.05 0.018792
1.06 0.0198391
1.07 0.0188062
1.08 0.0159389
1.09 0.0111581
1.1 0.00510793
1.11 -0.00185986
1.12 -0.00909845
1.13 -0.0160269
1.14 -0.0219021
1.15 -0.0263171
1.16 -0.0285531
1.17 -0.0284469
1.18 -0.0257494
1.19 -0.0203541
1.2 -0.0126806
1.21 -0.00273195
1.22 0.00865102
1.23 0.0209912
1.24 0.0334925
1.25 0.0454611
1.26 0.0559987
1.27 0.0646513
1.28 0.0705472
1.29 0.0734953
1.3 0.0731648
1.31 0.0693536
1.32 0.062506
1.33 0.0524254
1.34 0.0400372
1.35 0.0256749
1.36 0.0101078
1.37 -0.00597129
1.38 -0.0218105
1.39 -0.0368137
1.4 -0.0502377
1.41 -0.0617291
1.42 -0.0708993
1.43 -0.0774258
1.44 -0.0815036
1.45 -0.0827682
1.46 -0.0818055
1.47 -0.0786455
1.48 -0.0736935
1.49 -0.067338
1.5 -0.0598292
1.51 -0.0516241
1.52 -0.0429323
1.53 -0.0340398
1.54 -0.0251062
1.55 -0.0162621
1.56 -0.00756271
1.57 0.000922911
1.58 0.00920455
1.59 0.0172368
1.6 0.0249765
1.61 0.0323604
1.62 0.039205
1.63 0.0454136
1.64 0.0506627
1.65 0.0547747
1.66 0.0574607
1.67 0.0583716
1.68 0.0574732
1.69 0.0542435
1.7 0.0489319
1.71 0.041335
1.72 0.0316443
1.73 0.0201581
1.74 0.0070826
1.75 -0.00695306
1.76 -0.0215179
1.77 -0.0359676
1.78 -0.0497446
1.79 -0.0622059
1.8 -0.0730477
1.81 -0.0815513
1.82 -0.087827
1.83 -0.0915775
1.84 -0.0929707
1.85 -0.0923354
1.86 -0.0899183
1.87 -0.0864513
1.88 -0.0824502
1.89 -0.0786476
1.9 -0.0756643
1.91 -0.0741841
1.92 -0.0744835
1.93 -0.077241
1.94 -0.0822217
1.95 -0.0895666
1.96 -0.0988985
1.97 -0.10969
1.98 -0.121341
1.99 -0.132986
2 -0.143681
2.01 -0.152561
2.02 -0.158741
2.03 -0.161235
2.04 -0.159827
2.05 -0.153302
2.06 -0.142165
2.07 -0.125943
2.08 -0.10499
2.09 -0.0798649
2.1 -0.0507607
2.11 -0.0188375
2.12 0.0154956
2.13 0.051244
2.14 0.0877855
2.15 0.124495
2.16 0.160958
2.17 0.196825
2.18 0.232103
2.19 0.26683
2.2 0.301275
2.21 0.335758
2.22 0.370714
2.23 0.406412
2.24 0.443226
2.25 0.48115
2.26 0.520089
2.27 0.559644
2.28 0.599146
2.29 0.637473
2.3 0.673572
2.31 0.705803
2.32 0.73256
2.33 0.752577
2.34 0.763312
2.35 0.764633
2.36 0.754042
2.37 0.73181
2.38 0.697357
2.39 0.650439
2.4 0.592988
2.41 0.524668
2.42 0.44885
2.43 0.366988
2.44 0.28197
2.45 0.196417
2.46 0.113427
2.47 0.0351713
2.48 -0.0351581
2.49 -0.0961918
2.5 -0.146298
2.51 -0.184056
2.52 -0.210499
2.53 -0.224155
2.54 -0.227937
2.55 -0.222477
2.56 -0.21022
2.57 -0.193606
2.58 -0.175009
2.59 -0.157033
2.6 -0.142207
2.61 -0.132301
2.62 -0.128869
2.63 -0.133249
2.64 -0.144982
2.65 -0.165046
2.66 -0.191389
2.67 -0.22328
2.68 -0.25869
2.69 -0.295631
2.7 -0.331856
2.71 -0.365521
2.72 -0.394327
2.73 -0.417169
2.74 -0.432955
2.75 -0.440895
2.76 -0.441897
2.77 -0.435579
2.78 -0.424235
2.79 -0.409028
2.8 -0.392175
2.81 -0.375682
2.82 -0.361986
2.83 -0.352531
2.84 -0.349567
2.85 -0.353676
2.86 -0.365538
2.87 -0.38539
2.88 -0.411798
2.89 -0.444419
2.9 -0.480574
2.91 -0.518477
2.92 -0.555522
2.93 -0.589538
2.94 -0.617592
2.95 -0.638618
2.96 -0.650098
2.97 -0.651955
2.98 -0.643784
2.99 -0.625743
3 -0.599912
3.01 -0.567042
3.02 -0.530457
3.03 -0.492415
3.04 -0.455977
3.05 -0.423586
3.06 -0.398547
3.07 -0.381839
3.08 -0.376131
3.09 -0.381232
3.1 -0.397351
3.11 -0.42403
3.12 -0.458802
3.13 -0.500561
3.14 -0.545667
3.15 -0.591568
3.16 -0.635039
3.17 -0.673623
3.18 -0.704013
3.19 -0.725545
3.2 -0.735854
3.21 -0.735631
3.22 -0.725204
3.23 -0.705739
3.24 -0.680108
3.25 -0.650427
3.26 -0.620416
3.27 -0.593292
3.28 -0.572442
3.29 -0.560187
3.3 -0.560077
3.31 -0.571906
3.32 -0.597853
3.33 -0.636206
3.34 -0.685837
3.35 -0.744546
3.36 -0.808546
3.37 -0.874446
3.38 -0.937955
3.39 -0.994881
3.4 -1.04135
3.41 -1.07498
3.42 -1.09172
3.43 -1.09267
3.44 -1.07571
3.45 -1.04371
3.46 -0.9987
3.47 -0.944037
3.48 -0.884617
3.49 -0.825181
3.5 -0.770674
3.51 -0.726158
3.52 -0.695719
3.53 -0.681393
3.54 -0.686721
3.55 -0.708928
3.56 -0.748093
3.57 -0.798609
3.58 -0.855211
3.59 -0.909851
3.6 -0.954865
3.61 -0.977587
3.62 -0.971313
3.63 -0.923828
3.64 -0.826511
3.65 -0.674861
3.66 -0.456479
3.67 -0.177325
3.68 0.170914
3.69 0.579307
3.7 1.04342
3.71 1.5556
3.72 2.10037
3.73 2.66716
3.74 3.23709
3.75 3.79386
3.76 4.31911
3.77 4.79892
3.78 5.21018
3.79 5.54886
3.8 5.79336
3.81 5.94315
3.82 5.99183
3.83 5.93368
3.84 5.78194
3.85 5.52749
3.86 5.19416
3.87 4.78636
3.88 4.32091
3.89 3.81461
3.9 3.28133
3.91 2.73997
3.92 2.20587
3.93 1.69322
3.94 1.21408
3.95 0.781163
3.96 0.396435
3.97 0.0735224
3.98 -0.194427
3.99 -0.403024
4 -0.556754
4.01 -0.662665
4.02 -0.722602
4.03 -0.749696
4.04 -0.748009
4.05 -0.728366
4.06 -0.697658
4.07 -0.663104
4.08 -0.63037
4.09 -0.604969
4.1 -0.588967
4.11 -0.584874
4.12 -0.592832
4.13 -0.611519
4.14 -0.640104
4.15 -0.67486
4.16 -0.713421
4.17 -0.752117
4.18 -0.787967
4.19 -0.81763
4.2 -0.839556
4.21 -0.85032
4.22 -0.850324
4.23 -0.838078
4.24 -0.813939
4.25 -0.779041
4.26 -0.733339
4.27 -0.67954
4.28 -0.618154
4.29 -0.551417
4.3 -0.480603
4.31 -0.406961
4.32 -0.331739
4.33 -0.255585
4.34 -0.17918
4.35 -0.10284
4.36 -0.0267831
4.37 0.0488824
4.38 0.123936
4.39 0.198222
4.4 0.271196
4.41 0.342301
4.42 0.410672
4.43 0.474928
4.44 0.534295
4.45 0.586244
4.46 0.630265
4.47 0.664136
4.48 0.686543
4.49 0.696966
4.5 0.693042
4.51 0.676264
4.52 0.644966
4.53 0.60092
4.54 0.544877
4.55 0.477957
4.56 0.402993
4.57 0.321124
4.58 0.235686
4.59 0.148738
4.6 0.0628616
4.61 -0.0200206
4.62 -0.0974277
4.63 -0.168696
4.64 -0.231945
4.65 -0.287288
4.66 -0.334545
4.67 -0.373786
4.68 -0.406554
4.69 -0.432992
4.7 -0.455267
4.71 -0.47435
4.72 -0.491753
4.73 -0.508671
4.74 -0.526191
4.75 -0.544917
4.76 -0.565429
4.77 -0.587649
4.78 -0.611371
4.79 -0.636079
4.8 -0.661007
4.81 -0.685193
4.82 -0.707823
4.83 -0.727896
4.84 -0.74464
4.85 -0.757703
4.86 -0.76628
4.87 -0.770926
4.88 -0.771373
4.89 -0.768494
4.9 -0.762924
4.91 -0.755546
4.92 -0.747452
4.93 -0.73969
4.94 -0.733171
4.95 -0.728819
4.96 -0.727284
4.97 -0.728796
4.98 -0.733886
4.99 -0.741969
5 -0.753069
5.01 -0.766359
5.02 -0.78122
5.03 -0.796857
5.04 -0.81248
5.05 -0.827259
5.06 -0.840708
5.07 -0.852282
5.08 -0.861739
5.09 -0.869129
5.1 -0.874328
5.11 -0.877858
5.12 -0.879825
5.13 -0.880676
5.14 -0.880607
5.15 -0.879641
5.16 -0.877721
5.17 -0.874157
5.18 -0.868383
5.19 -0.859102
5.2 -0.844827
5.21 -0.824282
5.22 -0.79461
5.23 -0.755236
5.24 -0.702988
5.25 -0.63728
5.26 -0.556795
5.27 -0.460097
5.28 -0.348887
5.29 -0.221573
5.3 -0.0819378
5.31 0.0687818
5.32 0.227009
5.33 0.388907
5.34 0.549941
5.35 0.705741
5.36 0.850477
5.37 0.979994
5.38 1.08978
5.39 1.17438
5.4 1.23347
5.41 1.26006
5.42 1.25735
5.43 1.22262
5.44 1.15751
5.45 1.06546
5.46 0.946812
5.47 0.808931
5.48 0.654221
5.49 0.489423
5.5 0.319449
5.51 0.150014
5.52 -0.0143719
5.53 -0.167711
5.54 -0.307734
5.55 -0.430425
5.56 -0.533924
5.57 -0.618299
5.58 -0.681195
5.59 -0.726293
5.6 -0.752958
5.61 -0.764982
5.62 -0.764629
5.63 -0.754462
5.64 -0.738086
5.65 -0.717477
5.66 -0.695496
5.67 -0.673775
5.68 -0.653628
5.69 -0.635529
5.7 -0.619728
5.71 -0.605393
5.72 -0.591665
5.73 -0.577115
5.74 -0.560329
5.75 -0.539526
5.76 -0.513916
5.77 -0.481519
5.78 -0.442663
5.79 -0.396711
5.8 -0.344282
5.81 -0.286649
5.82 -0.224957
5.83 -0.161656
5.84 -0.098984
5.85 -0.0395319
5.86 0.0142449
5.87 0.0593361
5.88 0.0947097
5.89 0.116773
5.9 0.126161
5.91 0.121229
5.92 0.102269
5.93 0.0706452
5.94 0.0262825
5.95 -0.0274099
5.96 -0.0893691
5.97 -0.156409
5.98 -0.226226
5.99 -0.296206
6 -0.364287
6.01 -0.427972
6.02 -0.486386
6.03 -0.538141
6.04 -0.582863
6.05 -0.620996
6.06 -0.652372
6.07 -0.678806
6.08 -0.700957
6.09 -0.72063
6.1 -0.739149
6.11 -0.757954
6.12 -0.778041
6.13 -0.800551
6.14 -0.825589
6.15 -0.853388
6.16 -0.883498
6.17 -0.915119
6.18 -0.947249
6.19 -0.978642
6.2 -1.00782
6.21 -1.03362
6.22 -1.05496
6.23 -1.07065
6.24 -1.08084
6.25 -1.08453
6.26 -1.08294
6.27 -1.07635
6.28 -1.06598
6.29 -1.05321
6.3 -1.03928
6.31 -1.02559
6.32 -1.01324
6.33 -1.00276
6.34 -0.99423
6.35 -0.986994
6.36 -0.979616
6.37 -0.969496
6.38 -0.953923
6.39 -0.928727
6.4 -0.889309
6.41 -0.832127
6.42 -0.749405
6.43 -0.6401
6.44 -0.496317
6.45 -0.317101
6.46 -0.0997802
6.47 0.158831
6.48 0.45391
6.49 0.789067
6.5 1.15493
6.51 1.54852
6.52 1.96157
6.53 2.38511
6.54 2.80922
6.55 3.22369
6.56 3.61578
6.57 3.97576
6.58 4.29342
6.59 4.55591
6.6 4.76172
6.61 4.89418
6.62 4.95879
6.63 4.94786
6.64 4.86256
6.65 4.70914
6.66 4.48445
6.67 4.20444
6.68 3.87069
6.69 3.49756
6.7 3.09466
6.71 2.67302
6.72 2.2449
6.73 1.82159
6.74 1.41257
6.75 1.02772
6.76 0.674867
6.77 0.357567
6.78 0.08493
6.79 -0.146944
6.8 -0.332287
6.81 -0.475863
6.82 -0.579653
6.83 -0.645737
6.84 -0.682358
6.85 -0.690536
6.86 -0.679564
6.87 -0.653141
6.88 -0.617001
6.89 -0.575831
6.9 -0.533433
6.91 -0.492879
6.92 -0.4567
6.93 -0.425987
6.94 -0.401353
6.95 -0.383055
6.96 -0.36989
6.97 -0.361649
6.98 -0.356547
6.99 -0.35373
7 -0.352067
7.01 -0.350792
7.02 -0.349439
7.03 -0.347951
7.04 -0.346629
7.05 -0.346136
7.06 -0.347343
7.07 -0.351572
7.08 -0.359558
7.09 -0.373182
7.1 -0.392638
7.11 -0.41905
7.12 -0.452676
7.13 -0.493029
7.14 -0.540349
7.15 -0.592773
7.16 -0.649556
7.17 -0.708633
7.18 -0.768273
7.19 -0.82631
7.2 -0.881165
7.21 -0.93031
7.22 -0.973016
7.23 -1.00768
7.24 -1.03367
7.25 -1.0513
7.26 -1.05987
7.27 -1.06134
7.28 -1.05604
7.29 -1.04603
7.3 -1.03284
7.31 -1.01824
7.32 -1.00387
7.33 -0.991414
7.34 -0.981695
7.35 -0.975551
7.36 -0.97307
7.37 -0.973643
7.38 -0.976507
7.39 -0.979883
7.4 -0.981758
7.41 -0.979792
7.42 -0.971558
7.43 -0.953781
7.44 -0.92521
7.45 -0.881536
7.46 -0.822945
7.47 -0.747019
7.48 -0.653289
7.49 -0.542879
7.5 -0.414674
7.51 -0.272668
7.52 -0.117555
7.53 0.0465472
7.54 0.216414
7.55 0.387995
7.56 0.557364
7.57 0.719442
7.58 0.87113
7.59 1.00793
7.6 1.12634
7.61 1.22488
7.62 1.29849
7.63 1.34916
7.64 1.37317
7.65 1.3725
7.66 1.34759
7.67 1.29859
7.68 1.22986
7.69 1.14086
7.7 1.03708
7.71 0.920292
7.72 0.794136
7.73 0.662111
7.74 0.527169
7.75 0.392675
7.76 0.261725
7.77 0.136865
7.78 0.0203833
7.79 -0.0849193
7.8 -0.178682
7.81 -0.257469
7.82 -0.322259
7.83 -0.371354
7.84 -0.40465
7.85 -0.423189
7.86 -0.425655
7.87 -0.41508
7.88 -0.391082
7.89 -0.356287
7.9 -0.312377
7.91 -0.261234
7.92 -0.205789
7.93 -0.148174
7.94 -0.0912805
7.95 -0.037683
7.96 0.00993578
7.97 0.0498316
7.98 0.0786811
7.99 0.0964133
8 0.100358
8.01 0.0907905
8.02 0.0674753
8.03 0.0300855
8.04 -0.0189751
8.05 -0.0799527
8.06 -0.149352
8.07 -0.225617
8.08 -0.305962
8.09 -0.387781
8.1 -0.468308
8.11 -0.545425
8.12 -0.616516
8.13 -0.680246
8.14 -0.735455
8.15 -0.780946
8.16 -0.817731
8.17 -0.844974
8.18 -0.864971
8.19 -0.878582
8.2 -0.887777
8.21 -0.894548
8.22 -0.900754
8.23 -0.908106
8.24 -0.918157
8.25 -0.931611
8.26 -0.948707
8.27 -0.969123
8.28 -0.991378
8.29 -1.01353
8.3 -1.03288
8.31 -1.04598
8.32 -1.04882
8.33 -1.03836
8.34 -1.0082
8.35 -0.957324
8.36 -0.879518
8.37 -0.773793
8.38 -0.638198
8.39 -0.47002
8.4 -0.273112
8.41 -0.0445937
8.42 0.208493
8.43 0.483992
8.44 0.775974
8.45 1.07779
8.46 1.3827
8.47 1.68309
8.48 1.97039
8.49 2.23753
8.5 2.47761
8.51 2.68168
8.52 2.84855
8.53 2.96716
8.54 3.04066
8.55 3.06399
8.56 3.03736
8.57 2.96494
8.58 2.8438
8.59 2.68441
8.6 2.48716
8.61 2.26096
8.62 2.01175
8.63 1.74591
8.64 1.47161
8.65 1.1951
8.66 0.923087
8.67 0.661503
8.68 0.415685
8.69 0.188361
8.7 -0.0145002
8.71 -0.194309
8.72 -0.347093
8.73 -0.474692
8.74 -0.577738
8.75 -0.656501
8.76 -0.715608
8.77 -0.754813
8.78 -0.779625
8.79 -0.791935
8.8 -0.795161
8.81 -0.792515
8.82 -0.786309
8.83 -0.77929
8.84 -0.773395
8.85 -0.77017
8.86 -0.770668
8.87 -0.77589
8.88 -0.785586
8.89 -0.800413
8.9 -0.819347
8.91 -0.842116
8.92 -0.867866
8.93 -0.895634
8.94 -0.924651
8.95 -0.953901
8.96 -0.982568
8.97 -1.00994
8.98 -1.03548
8.99 -1.05857
9 -1.07923
9.01 -1.0969
9.02 -1.11197
9.03 -1.12434
9.04 -1.13422
9.05 -1.14196
9.06 -1.14755
9.07 -1.15148
9.08 -1.1537
9.09 -1.15438
9.1 -1.15346
9.11 -1.15067
9.12 -1.14592
9.13 -1.13841
9.14 -1.12796
9.15 -1.11374
9.16 -1.09504
9.17 -1.07152
9.18 -1.04182
9.19 -1.00626
9.2 -0.963699
9.21 -0.914427
9.22 -0.858463
9.23 -0.795759
9.24 -0.727625
9.25 -0.654224
9.26 -0.577469
9.27 -0.498568
9.28 -0.41941
9.29 -0.34172
9.3 -0.267969
9.31 -0.199518
9.32 -0.138996
9.33 -0.0876685
9.34 -0.0469239
9.35 -0.0186633
9.36 -0.00214459
9.37 0.000475795
9.38 -0.0087635
9.39 -0.0300018
9.4 -0.0618563
9.41 -0.102193
9.42 -0.149895
9.43 -0.201826
9.44 -0.256088
9.45 -0.310032
9.46 -0.361537
9.47 -0.408144
9.48 -0.448811
9.49 -0.481095
9.5 -0.505211
9.51 -0.520236
9.52 -0.526405
9.53 -0.524873
9.54 -0.515868
9.55 -0.501834
9.56 -0.48393
9.57 -0.464405
9.58 -0.445048
9.59 -0.42793
9.6 -0.414301
9.61 -0.406237
9.62 -0.404019
9.63 -0.408624
9.64 -0.420185
9.65 -0.438025
9.66 -0.462267
9.67 -0.49112
9.68 -0.523962
9.69 -0.559172
9.7 -0.595538
9.71 -0.631758
9.72 -0.666885
9.73 -0.699822
9.74 -0.730302
9.75 -0.757907
9.76 -0.782665
9.77 -0.80497
9.78 -0.824915
9.79 -0.84322
9.8 -0.860014
9.81 -0.875519
9.82 -0.889534
9.83 -0.901231
9.84 -0.909803
9.85 -0.912794
9.86 -0.908559
9.87 -0.893785
9.88 -0.864869
9.89 -0.819397
9.9 -0.750701
9.91 -0.658356
9.92 -0.535769
9.93 -0.381793
9.94 -0.194267
9.95 0.0304219
9.96 0.288286
9.97 0.583357
9.98 0.908361
9.99 1.26157
10 1.63707
10.01 2.02745
10.02 2.42595
10.03 2.82329
10.04 3.21
10.05 3.57711
10.06 3.91612
10.07 4.21563
10.08 4.47303
10.09 4.67428
10.1 4.82138
10.11 4.90723
10.12 4.93028
10.13 4.8948
10.14 4.79517
10.15 4.64393
10.16 4.44018
10.17 4.19441
10.18 3.91373
10.19 3.60524
10.2 3.27995
10.21 2.94485
10.22 2.60952
10.23 2.28132
10.24 1.96754
10.25 1.67232
10.26 1.40319
10.27 1.15937
10.28 0.945677
10.29 0.760489
10.3 0.603023
10.31 0.473005
10.32 0.364931
10.33 0.278643
10.34 0.207728
10.35 0.149577
10.36 0.100077
10.37 0.0554936
10.38 0.0129415
10.39 -0.0303354
10.4 -0.0764682
10.41 -0.126706
10.42 -0.181745
10.43 -0.242101
10.44 -0.306881
10.45 -0.375955
10.46 -0.447713
10.47 -0.521109
10.48 -0.594638
10.49 -0.667041
10.5 -0.736656
10.51 -0.802749
10.52 -0.863868
10.53 -0.919517
10.54 -0.96917
10.55 -1.01202
10.56 -1.04866
10.57 -1.07806
10.58 -1.10119
10.59 -1.11779
10.6 -1.12807
10.61 -1.13266
10.62 -1.13103
10.63 -1.12426
10.64 -1.11193
10.65 -1.09464
10.66 -1.07263
10.67 -1.0459
10.68 -1.01532
10.69 -0.980744
10.7 -0.943215
10.71 -0.903151
10.72 -0.861375
10.73 -0.818769
10.74 -0.77629
10.75 -0.734873
10.76 -0.695692
10.77 -0.659659
10.78 -0.627656
10.79 -0.60092
10.8 -0.579532
10.81 -0.564982
10.82 -0.556818
10.83 -0.555663
10.84 -0.5615
10.85 -0.573672
10.86 -0.592607
10.87 -0.616814
10.88 -0.646216
10.89 -0.679621
10.9 -0.716189
10.91 -0.755084
10.92 -0.795182
10.93 -0.835653
10.94 -0.875574
10.95 -0.914137
10.96 -0.950572
10.97 -0.984474
10.98 -1.01492
10.99 -1.04204
11 -1.06516
11.01 -1.08439
11.02 -1.09973
11.03 -1.11103
11.04 -1.11896
11.05 -1.12332
11.06 -1.12501
11.07 -1.12433
11.08 -1.12193
11.09 -1.1185
11.1 -1.11468
11.11 -1.11115
11.12 -1.10857
11.13 -1.10743
11.14 -1.10809
11.15 -1.11088
11.16 -1.11552
11.17 -1.12195
11.18 -1.12929
11.19 -1.13667
11.2 -1.14262
11.21 -1.14575
11.22 -1.1434
11.23 -1.1342
11.24 -1.11485
11.25 -1.08338
11.26 -1.03753
11.27 -0.973728
11.28 -0.892141
11.29 -0.788159
11.3 -0.663447
11.31 -0.516217
11.32 -0.3468
11.33 -0.157718
11.34 0.0515628
11.35 0.275524
11.36 0.512296
11.37 0.756569
11.38 1.0038
11.39 1.24827
11.4 1.48522
11.41 1.70727
11.42 1.91079
11.43 2.08968
11.44 2.23906
11.45 2.35758
11.46 2.43765
11.47 2.48295
11.48 2.4885
11.49 2.45723
11.5 2.39067
11.51 2.28919
11.52 2.15986
11.53 2.00293
11.54 1.82656
11.55 1.63441
11.56 1.43221
11.57 1.22538
11.58 1.019
11.59 0.817376
11.6 0.625128
11.61 0.445102
11.62 0.279541
11.63 0.131303
11.64 -0.000821289
11.65 -0.114248
11.66 -0.211931
11.67 -0.294071
11.68 -0.362544
11.69 -0.420172
11.7 -0.468009
11.71 -0.509646
11.72 -0.546578
11.73 -0.581184
11.74 -0.615019
11.75 -0.649457
11.76 -0.685187
11.77 -0.722808
11.78 -0.761977
11.79 -0.802265
11.8 -0.842654
11.81 -0.882007
11.82 -0.918445
11.83 -0.950772
11.84 -0.976697
11.85 -0.994781
11.86 -1.00352
11.87 -1.00059
11.88 -0.98615
11.89 -0.957294
11.9 -0.915092
11.91 -0.858376
11.92 -0.787161
11.93 -0.702843
11.94 -0.604455
11.95 -0.495096
11.96 -0.374967
11.97 -0.246633
11.98 -0.112075
11.99 0.0265391
12 0.166458
12.01 0.304974
12.02 0.439535
12.03 0.567302
12.04 0.685405
12.05 0.792316
12.06 0.883865
12.07 0.960372
12.08 1.01843
12.09 1.05799
12.1 1.07855
12.11 1.07861
12.12 1.06087
12.13 1.02357
12.14 0.970478
12.15 0.902413
12.16 0.821793
12.17 0.731815
12.18 0.634306
12.19 0.53308
12.2 0.430571
12.21 0.329681
12.22 0.232651
12.23 0.142083
12.24 0.0587329
12.25 -0.015021
12.26 -0.0797365
12.27 -0.134797
12.28 -0.180679
12.29 -0.218871
12.3 -0.249781
12.31 -0.275991
12.32 -0.298756
12.33 -0.320216
12.34 -0.342008
12.35 -0.365904
12.36 -0.392803
12.37 -0.424101
12.38 -0.459638
12.39 -0.499535
