# xPDFsuite Configuration #
[PDF]
wavelength = 0.1432
dataformat = twotheta
inputfile = 1_1Pd_CeO2_cycle-00393.chi
backgroundfile = background-00000.chi
mode = xray
bgscale = 1.007
composition = CeO2
outputtype = gr
qmaxinst = 28.8974762299
qmin = 0.5
qmax = 27.9
rmax = 50.0
rmin = 0.0
rstep = 0.01
rpoly = 1.8657

[Misc]
inputdir = G:/SankarDec16/1Pd/Chi
savedir = D:/DATA/APS_CeO2/1Pd
backgroundfilefull = G:/SankarDec16/Background/background-00000.chi

#### start data
#S 1
#L r($\AA$)  G($\AA^{-2}$)
0 0
0.01 -0.00497487
0.02 -0.00957375
0.03 -0.0134096
0.04 -0.0161911
0.05 -0.0177565
0.06 -0.0178457
0.07 -0.0166333
0.08 -0.0140368
0.09 -0.0103886
0.1 -0.00591929
0.11 -0.000981051
0.12 0.00404342
0.13 0.00872342
0.14 0.0127564
0.15 0.0157704
0.16 0.0175494
0.17 0.0180086
0.18 0.0169736
0.19 0.014702
0.2 0.0112079
0.21 0.00687961
0.22 0.0020049
0.23 -0.00302033
0.24 -0.00783695
0.25 -0.011981
0.26 -0.0152385
0.27 -0.0172712
0.28 -0.0179493
0.29 -0.0172696
0.3 -0.0151518
0.31 -0.0119246
0.32 -0.00769784
0.33 -0.00289676
0.34 0.00214795
0.35 0.00701608
0.36 0.0113902
0.37 0.0147962
0.38 0.0171192
0.39 0.0180723
0.4 0.0176183
0.41 0.0158361
0.42 0.0127441
0.43 0.00872606
0.44 0.0039821
0.45 -0.00104623
0.46 -0.00600198
0.47 -0.0104612
0.48 -0.0141645
0.49 -0.0166511
0.5 -0.0179118
0.51 -0.0177253
0.52 -0.0161496
0.53 -0.0133422
0.54 -0.00941995
0.55 -0.00480248
0.56 0.000229008
0.57 0.00523867
0.58 0.00986115
0.59 0.0136899
0.6 0.0165367
0.61 0.0179779
0.62 0.0181104
0.63 0.0167905
0.64 0.0141691
0.65 0.0104747
0.66 0.00591783
0.67 0.000932993
0.68 -0.00413121
0.69 -0.00886621
0.7 -0.0129167
0.71 -0.0159135
0.72 -0.0177499
0.73 -0.0180601
0.74 -0.0170431
0.75 -0.0146393
0.76 -0.0110854
0.77 -0.00666906
0.78 -0.00168301
0.79 0.00344546
0.8 0.00831966
0.81 0.0125795
0.82 0.0158993
0.83 0.0179677
0.84 0.018765
0.85 0.0180045
0.86 0.0159757
0.87 0.0127075
0.88 0.00850794
0.89 0.003707
0.9 -0.00133894
0.91 -0.00623708
0.92 -0.0105709
0.93 -0.0140551
0.94 -0.0164209
0.95 -0.0174445
0.96 -0.0172017
0.97 -0.0155245
0.98 -0.0127807
0.99 -0.00910719
1 -0.00487845
1.01 -0.000454691
1.02 0.00374139
1.03 0.00738574
1.04 0.0100481
1.05 0.0115521
1.06 0.0117093
1.07 0.0104143
1.08 0.0078685
1.09 0.00406296
1.1 -0.000528262
1.11 -0.00561518
1.12 -0.0107166
1.13 -0.0154091
1.14 -0.0191301
1.15 -0.0216139
1.16 -0.0223242
1.17 -0.0211758
1.18 -0.0180025
1.19 -0.0127499
1.2 -0.00576047
1.21 0.00294003
1.22 0.0126968
1.23 0.0231268
1.24 0.033608
1.25 0.0435994
1.26 0.0523862
1.27 0.059616
1.28 0.0645796
1.29 0.0671144
1.3 0.0669298
1.31 0.0638217
1.32 0.058121
1.33 0.0495868
1.34 0.0389486
1.35 0.0264037
1.36 0.01254
1.37 -0.00209286
1.38 -0.0169321
1.39 -0.0314283
1.4 -0.0449796
1.41 -0.0571958
1.42 -0.0676757
1.43 -0.0760274
1.44 -0.0822812
1.45 -0.0859442
1.46 -0.0873813
1.47 -0.0864241
1.48 -0.0832707
1.49 -0.0781613
1.5 -0.0711203
1.51 -0.0626093
1.52 -0.0526811
1.53 -0.0417196
1.54 -0.0299304
1.55 -0.0175596
1.56 -0.00488944
1.57 0.00783723
1.58 0.0203507
1.59 0.0323582
1.6 0.0435643
1.61 0.0537272
1.62 0.0623875
1.63 0.0694541
1.64 0.0744015
1.65 0.077157
1.66 0.0774635
1.67 0.0750718
1.68 0.070197
1.69 0.0624477
1.7 0.0523918
1.71 0.040049
1.72 0.0258706
1.73 0.0103451
1.74 -0.00606607
1.75 -0.022698
1.76 -0.0389339
1.77 -0.054192
1.78 -0.0679261
1.79 -0.0795602
1.8 -0.0889871
1.81 -0.0955754
1.82 -0.0996905
1.83 -0.101195
1.84 -0.10045
1.85 -0.0979205
1.86 -0.0940181
1.87 -0.0894963
1.88 -0.0849648
1.89 -0.0810947
1.9 -0.0784646
1.91 -0.0776688
1.92 -0.0788405
1.93 -0.0825292
1.94 -0.0883471
1.95 -0.09629
1.96 -0.105859
1.97 -0.116456
1.98 -0.127371
1.99 -0.137792
2 -0.146734
2.01 -0.153445
2.02 -0.15712
2.03 -0.156896
2.04 -0.152705
2.05 -0.143485
2.06 -0.129871
2.07 -0.111535
2.08 -0.0889341
2.09 -0.0626798
2.1 -0.0330726
2.11 -0.00120303
2.12 0.0324642
2.13 0.0670378
2.14 0.101947
2.15 0.136642
2.16 0.170824
2.17 0.204199
2.18 0.236882
2.19 0.268965
2.2 0.300768
2.21 0.332638
2.22 0.365027
2.23 0.3982
2.24 0.432525
2.25 0.467983
2.26 0.504476
2.27 0.541616
2.28 0.578752
2.29 0.614826
2.3 0.648843
2.31 0.679269
2.32 0.704613
2.33 0.723706
2.34 0.734204
2.35 0.736
2.36 0.726801
2.37 0.706867
2.38 0.67567
2.39 0.632982
2.4 0.580571
2.41 0.518094
2.42 0.448624
2.43 0.373441
2.44 0.295141
2.45 0.216082
2.46 0.139008
2.47 0.065905
2.48 -0.000401371
2.49 -0.0586468
2.5 -0.107358
2.51 -0.145242
2.52 -0.173163
2.53 -0.189772
2.54 -0.197599
2.55 -0.197144
2.56 -0.190518
2.57 -0.179841
2.58 -0.167144
2.59 -0.154733
2.6 -0.144788
2.61 -0.138897
2.62 -0.138439
2.63 -0.144616
2.64 -0.157089
2.65 -0.176757
2.66 -0.201899
2.67 -0.231932
2.68 -0.265143
2.69 -0.299831
2.7 -0.334086
2.71 -0.366281
2.72 -0.394423
2.73 -0.417494
2.74 -0.434485
2.75 -0.444617
2.76 -0.448589
2.77 -0.445915
2.78 -0.438506
2.79 -0.427219
2.8 -0.413872
2.81 -0.400152
2.82 -0.388023
2.83 -0.378819
2.84 -0.374402
2.85 -0.375406
2.86 -0.382498
2.87 -0.396013
2.88 -0.414919
2.89 -0.439106
2.9 -0.466494
2.91 -0.495775
2.92 -0.524929
2.93 -0.552238
2.94 -0.575448
2.95 -0.593618
2.96 -0.604787
2.97 -0.608791
2.98 -0.605249
2.99 -0.594211
3 -0.577205
3.01 -0.554741
3.02 -0.529327
3.03 -0.502642
3.04 -0.476995
3.05 -0.454235
3.06 -0.436837
3.07 -0.42556
3.08 -0.422384
3.09 -0.427166
3.1 -0.440041
3.11 -0.460633
3.12 -0.487089
3.13 -0.518522
3.14 -0.552233
3.15 -0.586298
3.16 -0.61834
3.17 -0.646585
3.18 -0.668644
3.19 -0.684143
3.2 -0.691482
3.21 -0.691335
3.22 -0.684135
3.23 -0.670984
3.24 -0.654109
3.25 -0.635413
3.26 -0.61761
3.27 -0.603264
3.28 -0.594861
3.29 -0.594001
3.3 -0.603275
3.31 -0.622163
3.32 -0.652062
3.33 -0.691272
3.34 -0.738576
3.35 -0.791848
3.36 -0.847976
3.37 -0.903818
3.38 -0.956108
3.39 -1.00134
3.4 -1.03655
3.41 -1.06006
3.42 -1.06877
3.43 -1.06404
3.44 -1.04449
3.45 -1.01286
3.46 -0.971176
3.47 -0.922583
3.48 -0.871219
3.49 -0.821349
3.5 -0.776861
3.51 -0.741956
3.52 -0.71973
3.53 -0.71149
3.54 -0.71969
3.55 -0.741456
3.56 -0.776088
3.57 -0.818282
3.58 -0.862924
3.59 -0.902391
3.6 -0.930052
3.61 -0.934017
3.62 -0.908944
3.63 -0.843847
3.64 -0.73145
3.65 -0.568235
3.66 -0.343408
3.67 -0.0630452
3.68 0.279882
3.69 0.67677
3.7 1.12318
3.71 1.61177
3.72 2.12837
3.73 2.663
3.74 3.1987
3.75 3.72054
3.76 4.21197
3.77 4.66053
3.78 5.04518
3.79 5.36261
3.8 5.59311
3.81 5.7364
3.82 5.78662
3.83 5.73846
3.84 5.60398
3.85 5.37448
3.86 5.07162
3.87 4.69903
3.88 4.27176
3.89 3.80495
3.9 3.31071
3.91 2.80647
3.92 2.30573
3.93 1.82167
3.94 1.36533
3.95 0.948395
3.96 0.573227
3.97 0.252349
3.98 -0.0196998
3.99 -0.238484
4 -0.407431
4.01 -0.532403
4.02 -0.614361
4.03 -0.664903
4.04 -0.687026
4.05 -0.690371
4.06 -0.680896
4.07 -0.664851
4.08 -0.647652
4.09 -0.633882
4.1 -0.626017
4.11 -0.626313
4.12 -0.635257
4.13 -0.65205
4.14 -0.676105
4.15 -0.704588
4.16 -0.735533
4.17 -0.765991
4.18 -0.79348
4.19 -0.815167
4.2 -0.829799
4.21 -0.834372
4.22 -0.82929
4.23 -0.813229
4.24 -0.786496
4.25 -0.750096
4.26 -0.703965
4.27 -0.65053
4.28 -0.59025
4.29 -0.525164
4.3 -0.456456
4.31 -0.385321
4.32 -0.312934
4.33 -0.240002
4.34 -0.167178
4.35 -0.0948452
4.36 -0.0232493
4.37 0.0475064
4.38 0.117167
4.39 0.185693
4.4 0.252606
4.41 0.317538
4.42 0.379815
4.43 0.438335
4.44 0.492528
4.45 0.540277
4.46 0.581197
4.47 0.613393
4.48 0.63571
4.49 0.647649
4.5 0.647057
4.51 0.635118
4.52 0.610192
4.53 0.573655
4.54 0.525963
4.55 0.467839
4.56 0.401683
4.57 0.328137
4.58 0.250189
4.59 0.169461
4.6 0.0882377
4.61 0.0083297
4.62 -0.0680918
4.63 -0.140082
4.64 -0.205848
4.65 -0.265102
4.66 -0.317374
4.67 -0.362337
4.68 -0.40106
4.69 -0.433203
4.7 -0.460538
4.71 -0.483599
4.72 -0.503593
4.73 -0.52159
4.74 -0.538399
4.75 -0.554889
4.76 -0.571596
4.77 -0.588845
4.78 -0.606743
4.79 -0.625202
4.8 -0.643912
4.81 -0.662447
4.82 -0.680345
4.83 -0.697053
4.84 -0.712084
4.85 -0.725172
4.86 -0.735787
4.87 -0.744156
4.88 -0.750037
4.89 -0.753853
4.9 -0.755898
4.91 -0.756594
4.92 -0.756555
4.93 -0.756274
4.94 -0.756302
4.95 -0.757109
4.96 -0.759058
4.97 -0.762301
4.98 -0.767093
4.99 -0.773184
5 -0.780568
5.01 -0.788864
5.02 -0.797779
5.03 -0.806951
5.04 -0.816048
5.05 -0.824733
5.06 -0.832853
5.07 -0.840247
5.08 -0.846904
5.09 -0.852916
5.1 -0.858335
5.11 -0.863363
5.12 -0.868045
5.13 -0.872409
5.14 -0.876314
5.15 -0.879354
5.16 -0.881101
5.17 -0.880381
5.18 -0.876437
5.19 -0.867666
5.2 -0.852488
5.21 -0.829706
5.22 -0.79646
5.23 -0.752592
5.24 -0.695185
5.25 -0.62416
5.26 -0.538654
5.27 -0.437798
5.28 -0.323629
5.29 -0.195225
5.3 -0.056426
5.31 0.0911762
5.32 0.243989
5.33 0.398383
5.34 0.549861
5.35 0.694705
5.36 0.827448
5.37 0.944662
5.38 1.04247
5.39 1.1162
5.4 1.16601
5.41 1.18587
5.42 1.1791
5.43 1.14359
5.44 1.08108
5.45 0.994876
5.46 0.885493
5.47 0.7595
5.48 0.619112
5.49 0.470206
5.5 0.317028
5.51 0.164462
5.52 0.0162958
5.53 -0.12243
5.54 -0.249885
5.55 -0.362758
5.56 -0.459562
5.57 -0.540405
5.58 -0.603356
5.59 -0.651484
5.6 -0.684221
5.61 -0.704644
5.62 -0.714523
5.63 -0.715798
5.64 -0.711341
5.65 -0.702456
5.66 -0.691424
5.67 -0.679296
5.68 -0.66697
5.69 -0.65476
5.7 -0.642542
5.71 -0.629814
5.72 -0.615629
5.73 -0.599021
5.74 -0.578911
5.75 -0.553953
5.76 -0.523873
5.77 -0.487169
5.78 -0.444574
5.79 -0.395843
5.8 -0.341866
5.81 -0.283985
5.82 -0.223542
5.83 -0.162703
5.84 -0.103662
5.85 -0.0486221
5.86 0.000279705
5.87 0.0404406
5.88 0.0711891
5.89 0.0894004
5.9 0.0959153
5.91 0.0894025
5.92 0.0702853
5.93 0.0398875
5.94 -0.00177909
5.95 -0.0516655
5.96 -0.108835
5.97 -0.170519
5.98 -0.23475
5.99 -0.299325
6 -0.362489
6.01 -0.422184
6.02 -0.477651
6.03 -0.52774
6.04 -0.572114
6.05 -0.6111
6.06 -0.644503
6.07 -0.673748
6.08 -0.699267
6.09 -0.722449
6.1 -0.744265
6.11 -0.765745
6.12 -0.787662
6.13 -0.81074
6.14 -0.835105
6.15 -0.860846
6.16 -0.887609
6.17 -0.914831
6.18 -0.941701
6.19 -0.967435
6.2 -0.990941
6.21 -1.01152
6.22 -1.02848
6.23 -1.04111
6.24 -1.0497
6.25 -1.05369
6.26 -1.0541
6.27 -1.05127
6.28 -1.04616
6.29 -1.03973
6.3 -1.03284
6.31 -1.02625
6.32 -1.02047
6.33 -1.01544
6.34 -1.01068
6.35 -1.00497
6.36 -0.996777
6.37 -0.982938
6.38 -0.961151
6.39 -0.927259
6.4 -0.877154
6.41 -0.807951
6.42 -0.712587
6.43 -0.590941
6.44 -0.436151
6.45 -0.248163
6.46 -0.025181
6.47 0.23493
6.48 0.52723
6.49 0.854164
6.5 1.20697
6.51 1.58242
6.52 1.97278
6.53 2.37003
6.54 2.76489
6.55 3.14871
6.56 3.50999
6.57 3.84052
6.58 4.13149
6.59 4.37174
6.6 4.56044
6.61 4.68291
6.62 4.74448
6.63 4.73841
6.64 4.66585
6.65 4.53237
6.66 4.33494
6.67 4.08759
6.68 3.79132
6.69 3.45852
6.7 3.09733
6.71 2.71696
6.72 2.32819
6.73 1.94025
6.74 1.56178
6.75 1.20119
6.76 0.865498
6.77 0.558246
6.78 0.287528
6.79 0.0507821
6.8 -0.14649
6.81 -0.307597
6.82 -0.433536
6.83 -0.525197
6.84 -0.589211
6.85 -0.625322
6.86 -0.641417
6.87 -0.639958
6.88 -0.625605
6.89 -0.602513
6.9 -0.573431
6.91 -0.541852
6.92 -0.509792
6.93 -0.479027
6.94 -0.450615
6.95 -0.425394
6.96 -0.403239
6.97 -0.384597
6.98 -0.368758
6.99 -0.355645
7 -0.344909
7.01 -0.33624
7.02 -0.329848
7.03 -0.325561
7.04 -0.323989
7.05 -0.325434
7.06 -0.330491
7.07 -0.340089
7.08 -0.354319
7.09 -0.374564
7.1 -0.400399
7.11 -0.432423
7.12 -0.47043
7.13 -0.513704
7.14 -0.562083
7.15 -0.613911
7.16 -0.668323
7.17 -0.723624
7.18 -0.778377
7.19 -0.830815
7.2 -0.879846
7.21 -0.923432
7.22 -0.961244
7.23 -0.992099
7.24 -1.01566
7.25 -1.03234
7.26 -1.04169
7.27 -1.04536
7.28 -1.04367
7.29 -1.03826
7.3 -1.03034
7.31 -1.02123
7.32 -1.01214
7.33 -1.00424
7.34 -0.998043
7.35 -0.994014
7.36 -0.992017
7.37 -0.991442
7.38 -0.991338
7.39 -0.99031
7.4 -0.986427
7.41 -0.977821
7.42 -0.96246
7.43 -0.937573
7.44 -0.902356
7.45 -0.853114
7.46 -0.790319
7.47 -0.712009
7.48 -0.617979
7.49 -0.509369
7.5 -0.385368
7.51 -0.249552
7.52 -0.102653
7.53 0.0516881
7.54 0.210606
7.55 0.370498
7.56 0.527964
7.57 0.678461
7.58 0.819332
7.59 0.94657
7.6 1.05709
7.61 1.14957
7.62 1.21946
7.63 1.26855
7.64 1.29342
7.65 1.29582
7.66 1.27609
7.67 1.23428
7.68 1.17428
7.69 1.0955
7.7 1.00291
7.71 0.898052
7.72 0.784192
7.73 0.664526
7.74 0.541665
7.75 0.418744
7.76 0.29852
7.77 0.183356
7.78 0.0753281
7.79 -0.0230471
7.8 -0.111396
7.81 -0.18669
7.82 -0.249767
7.83 -0.299145
7.84 -0.334741
7.85 -0.357475
7.86 -0.366206
7.87 -0.363568
7.88 -0.349204
7.89 -0.325355
7.9 -0.293416
7.91 -0.254911
7.92 -0.212312
7.93 -0.167264
7.94 -0.122212
7.95 -0.0792062
7.96 -0.0404476
7.97 -0.00741308
7.98 0.0172142
7.99 0.0332288
8 0.0384069
8.01 0.0328018
8.02 0.0160673
8.03 -0.01228
8.04 -0.0504666
8.05 -0.0990124
8.06 -0.155225
8.07 -0.218123
8.08 -0.285655
8.09 -0.355777
8.1 -0.426564
8.11 -0.496117
8.12 -0.562504
8.13 -0.624436
8.14 -0.680845
8.15 -0.730594
8.16 -0.774118
8.17 -0.8105
8.18 -0.841148
8.19 -0.866383
8.2 -0.887356
8.21 -0.905358
8.22 -0.921327
8.23 -0.936532
8.24 -0.951709
8.25 -0.96733
8.26 -0.983405
8.27 -0.999392
8.28 -1.01434
8.29 -1.02626
8.3 -1.03339
8.31 -1.03285
8.32 -1.02151
8.33 -0.997191
8.34 -0.954579
8.35 -0.893309
8.36 -0.808256
8.37 -0.698897
8.38 -0.563756
8.39 -0.40068
8.4 -0.213064
8.41 0.00148332
8.42 0.236942
8.43 0.491478
8.44 0.760057
8.45 1.03703
8.46 1.31665
8.47 1.59241
8.48 1.85693
8.49 2.10406
8.5 2.32778
8.51 2.52019
8.52 2.6801
8.53 2.7976
8.54 2.87521
8.55 2.90816
8.56 2.89627
8.57 2.84293
8.58 2.74498
8.59 2.61153
8.6 2.44235
8.61 2.24517
8.62 2.02502
8.63 1.78717
8.64 1.53909
8.65 1.28588
8.66 1.03394
8.67 0.788463
8.68 0.554431
8.69 0.334665
8.7 0.134547
8.71 -0.0465436
8.72 -0.204858
8.73 -0.341521
8.74 -0.456713
8.75 -0.550244
8.76 -0.625884
8.77 -0.682938
8.78 -0.726087
8.79 -0.75664
8.8 -0.777371
8.81 -0.79105
8.82 -0.799302
8.83 -0.804771
8.84 -0.808853
8.85 -0.813079
8.86 -0.818415
8.87 -0.825724
8.88 -0.835162
8.89 -0.847235
8.9 -0.861525
8.91 -0.877954
8.92 -0.896113
8.93 -0.915502
8.94 -0.935757
8.95 -0.956332
8.96 -0.976848
8.97 -0.996946
8.98 -1.01637
8.99 -1.03485
9 -1.05237
9.01 -1.06868
9.02 -1.0839
9.03 -1.09792
9.04 -1.11072
9.05 -1.12233
9.06 -1.1325
9.07 -1.14129
9.08 -1.14831
9.09 -1.15339
9.1 -1.1562
9.11 -1.15614
9.12 -1.15312
9.13 -1.14611
9.14 -1.13511
9.15 -1.11936
9.16 -1.0984
9.17 -1.0722
9.18 -1.03974
9.19 -1.00173
9.2 -0.957464
9.21 -0.907537
9.22 -0.852248
9.23 -0.791861
9.24 -0.727592
9.25 -0.659829
9.26 -0.590097
9.27 -0.519431
9.28 -0.449279
9.29 -0.380869
9.3 -0.316064
9.31 -0.255699
9.32 -0.201687
9.33 -0.154832
9.34 -0.116089
9.35 -0.0868299
9.36 -0.0664764
9.37 -0.0567142
9.38 -0.0561021
9.39 -0.0649263
9.4 -0.0823859
9.41 -0.107072
9.42 -0.138585
9.43 -0.174664
9.44 -0.214333
9.45 -0.255707
9.46 -0.297346
9.47 -0.337614
9.48 -0.375454
9.49 -0.409211
9.5 -0.438525
9.51 -0.462494
9.52 -0.480821
9.53 -0.49386
9.54 -0.501229
9.55 -0.504238
9.56 -0.503131
9.57 -0.499166
9.58 -0.493304
9.59 -0.486639
9.6 -0.480226
9.61 -0.47521
9.62 -0.472279
9.63 -0.472256
9.64 -0.475682
9.65 -0.48262
9.66 -0.493674
9.67 -0.508207
9.68 -0.526419
9.69 -0.547697
9.7 -0.571643
9.71 -0.597895
9.72 -0.625756
9.73 -0.654962
9.74 -0.684909
9.75 -0.715274
9.76 -0.745659
9.77 -0.775738
9.78 -0.805021
9.79 -0.833163
9.8 -0.859396
9.81 -0.883007
9.82 -0.903023
9.83 -0.917727
9.84 -0.92622
9.85 -0.925315
9.86 -0.913919
9.87 -0.888832
9.88 -0.847142
9.89 -0.78737
9.9 -0.703846
9.91 -0.597344
9.92 -0.462614
9.93 -0.299618
9.94 -0.107198
9.95 0.117015
9.96 0.369069
9.97 0.651808
9.98 0.958835
9.99 1.28843
10 1.63552
10.01 1.994
10.02 2.35818
10.03 2.72059
10.04 3.07344
10.05 3.40941
10.06 3.72155
10.07 4.00032
10.08 4.24351
10.09 4.43911
10.1 4.58852
10.11 4.68527
10.12 4.72741
10.13 4.71804
10.14 4.6512
10.15 4.53721
10.16 4.37403
10.17 4.17008
10.18 3.93083
10.19 3.66141
10.2 3.37167
10.21 3.06652
10.22 2.75521
10.23 2.44402
10.24 2.13993
10.25 1.84759
10.26 1.57411
10.27 1.32042
10.28 1.09171
10.29 0.887968
10.3 0.709641
10.31 0.557834
10.32 0.428342
10.33 0.322391
10.34 0.234345
10.35 0.162505
10.36 0.103274
10.37 0.0528411
10.38 0.00876267
10.39 -0.0326482
10.4 -0.0736814
10.41 -0.116567
10.42 -0.162786
10.43 -0.213754
10.44 -0.269433
10.45 -0.330623
10.46 -0.396226
10.47 -0.465787
10.48 -0.538121
10.49 -0.611874
10.5 -0.685605
10.51 -0.7579
10.52 -0.827094
10.53 -0.891963
10.54 -0.951379
10.55 -1.00383
10.56 -1.04935
10.57 -1.08618
10.58 -1.11504
10.59 -1.13526
10.6 -1.14693
10.61 -1.15088
10.62 -1.14651
10.63 -1.13554
10.64 -1.11786
10.65 -1.09472
10.66 -1.06688
10.67 -1.03502
10.68 -1.00038
10.69 -0.963501
10.7 -0.925511
10.71 -0.887127
10.72 -0.849187
10.73 -0.812305
10.74 -0.777374
10.75 -0.744673
10.76 -0.714992
10.77 -0.68858
10.78 -0.665754
10.79 -0.64705
10.8 -0.632182
10.81 -0.621893
10.82 -0.615669
10.83 -0.613781
10.84 -0.61616
10.85 -0.622423
10.86 -0.63294
10.87 -0.646939
10.88 -0.664622
10.89 -0.685488
10.9 -0.709268
10.91 -0.735804
10.92 -0.764467
10.93 -0.795166
10.94 -0.827221
10.95 -0.860282
10.96 -0.893806
10.97 -0.927287
10.98 -0.960092
10.99 -0.991782
11 -1.02166
11.01 -1.04929
11.02 -1.07426
11.03 -1.09593
11.04 -1.11441
11.05 -1.12899
11.06 -1.14013
11.07 -1.14769
11.08 -1.15194
11.09 -1.15346
11.1 -1.15245
11.11 -1.14984
11.12 -1.14608
11.13 -1.14191
11.14 -1.13788
11.15 -1.1345
11.16 -1.13194
11.17 -1.13036
11.18 -1.12935
11.19 -1.12836
11.2 -1.12635
11.21 -1.12221
11.22 -1.11374
11.23 -1.09969
11.24 -1.07712
11.25 -1.04417
11.26 -0.998683
11.27 -0.937277
11.28 -0.859895
11.29 -0.762146
11.3 -0.645323
11.31 -0.507575
11.32 -0.348981
11.33 -0.171717
11.34 0.0249794
11.35 0.23604
11.36 0.459944
11.37 0.691794
11.38 0.927412
11.39 1.16155
11.4 1.38964
11.41 1.60488
11.42 1.80366
11.43 1.98021
11.44 2.12979
11.45 2.25095
11.46 2.3364
11.47 2.38933
11.48 2.40487
11.49 2.38552
11.5 2.3325
11.51 2.24589
11.52 2.13224
11.53 1.99143
11.54 1.83112
11.55 1.65456
11.56 1.46705
11.57 1.27372
11.58 1.07913
11.59 0.887571
11.6 0.703265
11.61 0.529063
11.62 0.367171
11.63 0.220318
11.64 0.087634
11.65 -0.0284464
11.66 -0.130427
11.67 -0.218388
11.68 -0.29392
11.69 -0.359501
11.7 -0.415969
11.71 -0.466531
11.72 -0.512418
11.73 -0.55571
11.74 -0.597723
11.75 -0.639529
11.76 -0.681723
11.77 -0.724574
11.78 -0.767757
11.79 -0.810682
11.8 -0.852283
11.81 -0.891528
11.82 -0.926415
11.83 -0.956055
11.84 -0.978182
11.85 -0.991641
11.86 -0.995171
11.87 -0.98672
11.88 -0.966781
11.89 -0.932823
11.9 -0.886215
11.91 -0.826156
11.92 -0.752999
11.93 -0.668285
11.94 -0.57151
11.95 -0.46562
11.96 -0.351092
11.97 -0.230315
11.98 -0.105122
11.99 0.0224676
12 0.150205
12.01 0.275678
12.02 0.396946
12.03 0.511683
12.04 0.617651
12.05 0.713773
12.06 0.796694
12.07 0.86689
12.08 0.921634
12.09 0.960973
12.1 0.984526
12.11 0.991019
12.12 0.982614
12.13 0.957656
12.14 0.919126
12.15 0.867421
12.16 0.804254
12.17 0.732098
12.18 0.65198
12.19 0.567073
12.2 0.478989
12.21 0.390126
12.22 0.302302
12.23 0.217551
12.24 0.136867
12.25 0.0621451
12.26 -0.00655373
12.27 -0.068476
12.28 -0.123584
12.29 -0.17267
12.3 -0.215613
12.31 -0.254154
12.32 -0.288869
12.33 -0.321222
12.34 -0.352322
12.35 -0.3833
12.36 -0.415009
12.37 -0.448298
12.38 -0.483335
