# xPDFsuite Configuration #
[PDF]
wavelength = 0.1432
dataformat = twotheta
inputfile = 1_1Pd_CeO2_cycle-00483.chi
backgroundfile = background-00000.chi
mode = xray
bgscale = 1.007
composition = CeO2
outputtype = gr
qmaxinst = 28.8974762299
qmin = 0.5
qmax = 27.9
rmax = 50.0
rmin = 0.0
rstep = 0.01
rpoly = 1.8657

[Misc]
inputdir = G:/SankarDec16/1Pd/Chi
savedir = D:/DATA/APS_CeO2/1Pd
backgroundfilefull = G:/SankarDec16/Background/background-00000.chi

#### start data
#S 1
#L r($\AA$)  G($\AA^{-2}$)
0 0
0.01 -0.00278974
0.02 -0.00536859
0.03 -0.00751945
0.04 -0.00907896
0.05 -0.00995637
0.06 -0.0100059
0.07 -0.00932542
0.08 -0.00786876
0.09 -0.00582234
0.1 -0.00331552
0.11 -0.000545849
0.12 0.00227205
0.13 0.00489665
0.14 0.00715832
0.15 0.00884853
0.16 0.00984623
0.17 0.010104
0.18 0.00952398
0.19 0.00825093
0.2 0.00629274
0.21 0.0038672
0.22 0.0011357
0.23 -0.00167981
0.24 -0.00437807
0.25 -0.00669906
0.26 -0.0085229
0.27 -0.00966026
0.28 -0.0100385
0.29 -0.00965606
0.3 -0.00846809
0.31 -0.00665897
0.32 -0.00429037
0.33 -0.00160062
0.34 0.00122497
0.35 0.00395103
0.36 0.00639988
0.37 0.0083061
0.38 0.00960564
0.39 0.010138
0.4 0.00988272
0.41 0.00888419
0.42 0.00715308
0.43 0.00490425
0.44 0.00225007
0.45 -0.000562395
0.46 -0.00333334
0.47 -0.00582567
0.48 -0.0078944
0.49 -0.00928213
0.5 -0.00998397
0.51 -0.00987649
0.52 -0.00899265
0.53 -0.00742075
0.54 -0.00522661
0.55 -0.00264487
0.56 0.000166963
0.57 0.00296538
0.58 0.00554626
0.59 0.00768259
0.6 0.00926964
0.61 0.0100711
0.62 0.0101416
0.63 0.00940123
0.64 0.00793494
0.65 0.00587068
0.66 0.00332642
0.67 0.000544827
0.68 -0.00227915
0.69 -0.00491762
0.7 -0.00717232
0.71 -0.00883738
0.72 -0.00985354
0.73 -0.0100168
0.74 -0.0094385
0.75 -0.00808553
0.76 -0.00608984
0.77 -0.00361196
0.78 -0.00081471
0.79 0.00206361
0.8 0.00480234
0.81 0.00720068
0.82 0.00907711
0.83 0.0102578
0.84 0.0107307
0.85 0.0103349
0.86 0.00922982
0.87 0.00742838
0.88 0.0050987
0.89 0.00242097
0.9 -0.000413303
0.91 -0.00318792
0.92 -0.00568024
0.93 -0.00773426
0.94 -0.00920635
0.95 -0.00997818
0.96 -0.01009
0.97 -0.00945735
0.98 -0.00827556
0.99 -0.00662097
1 -0.00469251
1.01 -0.00267902
1.02 -0.000801006
1.03 0.000780112
1.04 0.00185043
1.05 0.00233538
1.06 0.00215886
1.07 0.00129888
1.08 -0.000117123
1.09 -0.00203453
1.1 -0.0041916
1.11 -0.00638278
1.12 -0.0083271
1.13 -0.0097875
1.14 -0.01042
1.15 -0.0101198
1.16 -0.00857357
1.17 -0.00578941
1.18 -0.00170968
1.19 0.00364002
1.2 0.00999737
1.21 0.0172642
1.22 0.0249955
1.23 0.0328721
1.24 0.0404488
1.25 0.0473468
1.26 0.0530166
1.27 0.0572513
1.28 0.0594971
1.29 0.0596698
1.3 0.0575508
1.31 0.0529832
1.32 0.0462443
1.33 0.0371215
1.34 0.0262128
1.35 0.013667
1.36 -3.11876e-05
1.37 -0.0144174
1.38 -0.0290045
1.39 -0.043295
1.4 -0.0567245
1.41 -0.0688966
1.42 -0.0793875
1.43 -0.0877517
1.44 -0.0939581
1.45 -0.0974123
1.46 -0.098424
1.47 -0.0967334
1.48 -0.092491
1.49 -0.085927
1.5 -0.0770333
1.51 -0.0663623
1.52 -0.0540066
1.53 -0.0404876
1.54 -0.0261348
1.55 -0.0113607
1.56 0.0034308
1.57 0.0177804
1.58 0.0313715
1.59 0.0437701
1.6 0.054653
1.61 0.0638118
1.62 0.0707824
1.63 0.0756679
1.64 0.0780457
1.65 0.0780833
1.66 0.07573
1.67 0.0709952
1.68 0.064261
1.69 0.0554452
1.7 0.0451474
1.71 0.0335603
1.72 0.021134
1.73 0.00827362
1.74 -0.00459996
1.75 -0.017114
1.76 -0.0288372
1.77 -0.0395262
1.78 -0.0489323
1.79 -0.0568407
1.8 -0.0633489
1.81 -0.0682564
1.82 -0.07193
1.83 -0.0744589
1.84 -0.0761798
1.85 -0.0774278
1.86 -0.0785575
1.87 -0.0799173
1.88 -0.0818839
1.89 -0.0846807
1.9 -0.0885085
1.91 -0.0935076
1.92 -0.0995438
1.93 -0.10664
1.94 -0.114389
1.95 -0.122505
1.96 -0.1305
1.97 -0.137917
1.98 -0.144083
1.99 -0.148652
2 -0.150866
2.01 -0.15048
2.02 -0.147092
2.03 -0.140321
2.04 -0.130403
2.05 -0.11681
2.06 -0.100222
2.07 -0.0805952
2.08 -0.0583787
2.09 -0.0340455
2.1 -0.00785465
2.11 0.0195562
2.12 0.0479479
2.13 0.0769074
2.14 0.106238
2.15 0.135822
2.16 0.165621
2.17 0.195773
2.18 0.226396
2.19 0.257753
2.2 0.290079
2.21 0.323526
2.22 0.358371
2.23 0.394453
2.24 0.4318
2.25 0.469969
2.26 0.508491
2.27 0.546577
2.28 0.583454
2.29 0.617676
2.3 0.648446
2.31 0.674191
2.32 0.693698
2.33 0.706153
2.34 0.70962
2.35 0.704513
2.36 0.689122
2.37 0.66419
2.38 0.629671
2.39 0.585841
2.4 0.534499
2.41 0.475838
2.42 0.412499
2.43 0.345794
2.44 0.277874
2.45 0.210566
2.46 0.146062
2.47 0.0855923
2.48 0.031219
2.49 -0.0164728
2.5 -0.0566644
2.51 -0.0887578
2.52 -0.11371
2.53 -0.130934
2.54 -0.142476
2.55 -0.14898
2.56 -0.152095
2.57 -0.153344
2.58 -0.154239
2.59 -0.15614
2.6 -0.16045
2.61 -0.167899
2.62 -0.179103
2.63 -0.194437
2.64 -0.213328
2.65 -0.235781
2.66 -0.260443
2.67 -0.286469
2.68 -0.31251
2.69 -0.337408
2.7 -0.359655
2.71 -0.3786
2.72 -0.392933
2.73 -0.402546
2.74 -0.407194
2.75 -0.406943
2.76 -0.402832
2.77 -0.395268
2.78 -0.385944
2.79 -0.376042
2.8 -0.367139
2.81 -0.360478
2.82 -0.357752
2.83 -0.359402
2.84 -0.366738
2.85 -0.379547
2.86 -0.397807
2.87 -0.421083
2.88 -0.447972
2.89 -0.477556
2.9 -0.507859
2.91 -0.537238
2.92 -0.563816
2.93 -0.586205
2.94 -0.602315
2.95 -0.61195
2.96 -0.613553
2.97 -0.607678
2.98 -0.594509
2.99 -0.574731
3 -0.550223
3.01 -0.522152
3.02 -0.493012
3.03 -0.464788
3.04 -0.439736
3.05 -0.419497
3.06 -0.406493
3.07 -0.400936
3.08 -0.404585
3.09 -0.416774
3.1 -0.437261
3.11 -0.465247
3.12 -0.498597
3.13 -0.536022
3.14 -0.57476
3.15 -0.61268
3.16 -0.647391
3.17 -0.677197
3.18 -0.699679
3.19 -0.714727
3.2 -0.720773
3.21 -0.718719
3.22 -0.709108
3.23 -0.693151
3.24 -0.673185
3.25 -0.651122
3.26 -0.629735
3.27 -0.611562
3.28 -0.599078
3.29 -0.593885
3.3 -0.598549
3.31 -0.612621
3.32 -0.637551
3.33 -0.671784
3.34 -0.714268
3.35 -0.763132
3.36 -0.815453
3.37 -0.868506
3.38 -0.919153
3.39 -0.964236
3.4 -1.00097
3.41 -1.02771
3.42 -1.04159
3.43 -1.04362
3.44 -1.03239
3.45 -1.01017
3.46 -0.97858
3.47 -0.940164
3.48 -0.898491
3.49 -0.856986
3.5 -0.819074
3.51 -0.788197
3.52 -0.766957
3.53 -0.756455
3.54 -0.758547
3.55 -0.770864
3.56 -0.792486
3.57 -0.818876
3.58 -0.845476
3.59 -0.865503
3.6 -0.873361
3.61 -0.858346
3.62 -0.816124
3.63 -0.736967
3.64 -0.614633
3.65 -0.44621
3.66 -0.222203
3.67 0.0517218
3.68 0.381714
3.69 0.759932
3.7 1.1823
3.71 1.64212
3.72 2.12669
3.73 2.6269
3.74 3.12759
3.75 3.6152
3.76 4.0748
3.77 4.49512
3.78 4.85698
3.79 5.15734
3.8 5.37807
3.81 5.51873
3.82 5.57373
3.83 5.53782
3.84 5.42179
3.85 5.21702
3.86 4.94318
3.87 4.60303
3.88 4.21003
3.89 3.77793
3.9 3.31727
3.91 2.8444
3.92 2.37132
3.93 1.9106
3.94 1.47255
3.95 1.06824
3.96 0.700513
3.97 0.381234
3.98 0.106207
3.99 -0.119923
4 -0.29962
4.01 -0.437759
4.02 -0.534492
4.03 -0.600313
4.04 -0.637362
4.05 -0.654511
4.06 -0.657108
4.07 -0.650826
4.08 -0.641073
4.09 -0.631941
4.1 -0.626393
4.11 -0.626711
4.12 -0.633818
4.13 -0.647407
4.14 -0.6673
4.15 -0.691265
4.16 -0.717791
4.17 -0.744363
4.18 -0.768831
4.19 -0.788677
4.2 -0.802653
4.21 -0.807998
4.22 -0.804854
4.23 -0.791856
4.24 -0.769061
4.25 -0.737201
4.26 -0.695973
4.27 -0.647499
4.28 -0.59199
4.29 -0.531287
4.3 -0.466424
4.31 -0.398467
4.32 -0.328633
4.33 -0.257548
4.34 -0.186037
4.35 -0.114541
4.36 -0.0434571
4.37 0.0269718
4.38 0.0963644
4.39 0.164572
4.4 0.231027
4.41 0.295333
4.42 0.356813
4.43 0.414401
4.44 0.467609
4.45 0.514427
4.46 0.55458
4.47 0.586306
4.48 0.608573
4.49 0.62095
4.5 0.621425
4.51 0.611133
4.52 0.58851
4.53 0.554838
4.54 0.510511
4.55 0.456153
4.56 0.394007
4.57 0.324585
4.58 0.250709
4.59 0.173856
4.6 0.096172
4.61 0.0193836
4.62 -0.0544794
4.63 -0.124445
4.64 -0.18881
4.65 -0.247224
4.66 -0.29919
4.67 -0.344342
4.68 -0.383632
4.69 -0.416698
4.7 -0.44518
4.71 -0.469566
4.72 -0.490992
4.73 -0.510479
4.74 -0.528801
4.75 -0.546805
4.76 -0.565015
4.77 -0.583748
4.78 -0.603106
4.79 -0.622994
4.8 -0.643091
4.81 -0.662936
4.82 -0.682043
4.83 -0.699805
4.84 -0.715683
4.85 -0.729368
4.86 -0.740242
4.87 -0.748532
4.88 -0.753923
4.89 -0.756865
4.9 -0.757665
4.91 -0.756786
4.92 -0.754948
4.93 -0.752736
4.94 -0.750853
4.95 -0.749917
4.96 -0.750457
4.97 -0.752741
4.98 -0.757224
4.99 -0.763659
5 -0.772178
5.01 -0.782329
5.02 -0.79377
5.03 -0.806029
5.04 -0.818551
5.05 -0.830785
5.06 -0.842291
5.07 -0.852606
5.08 -0.861408
5.09 -0.868578
5.1 -0.873786
5.11 -0.877255
5.12 -0.878762
5.13 -0.878475
5.14 -0.876335
5.15 -0.872109
5.16 -0.86578
5.17 -0.856495
5.18 -0.844029
5.19 -0.827281
5.2 -0.805221
5.21 -0.777051
5.22 -0.740598
5.23 -0.695755
5.24 -0.64016
5.25 -0.573629
5.26 -0.495311
5.27 -0.404265
5.28 -0.301956
5.29 -0.187279
5.3 -0.0632412
5.31 0.0691154
5.32 0.206964
5.33 0.3473
5.34 0.486501
5.35 0.621171
5.36 0.746623
5.37 0.859548
5.38 0.956279
5.39 1.03231
5.4 1.08729
5.41 1.11529
5.42 1.11875
5.43 1.09515
5.44 1.0455
5.45 0.972407
5.46 0.875653
5.47 0.761267
5.48 0.630765
5.49 0.489735
5.5 0.342147
5.51 0.192664
5.52 0.0454034
5.53 -0.0946984
5.54 -0.225123
5.55 -0.342221
5.56 -0.44388
5.57 -0.529634
5.58 -0.596892
5.59 -0.648299
5.6 -0.682694
5.61 -0.702959
5.62 -0.710684
5.63 -0.707713
5.64 -0.697291
5.65 -0.680803
5.66 -0.661222
5.67 -0.640078
5.68 -0.618971
5.69 -0.598812
5.7 -0.580318
5.71 -0.563319
5.72 -0.547631
5.73 -0.532419
5.74 -0.516803
5.75 -0.499576
5.76 -0.479945
5.77 -0.456431
5.78 -0.428853
5.79 -0.39647
5.8 -0.35933
5.81 -0.318025
5.82 -0.272947
5.83 -0.225714
5.84 -0.177601
5.85 -0.130479
5.86 -0.086102
5.87 -0.0467022
5.88 -0.0133578
5.89 0.0111418
5.9 0.0267578
5.91 0.0318883
5.92 0.0262284
5.93 0.010362
5.94 -0.0164148
5.95 -0.0517916
5.96 -0.0955837
5.97 -0.145536
5.98 -0.200131
5.99 -0.257618
6 -0.316114
6.01 -0.373958
6.02 -0.429853
6.03 -0.482562
6.04 -0.531293
6.05 -0.575865
6.06 -0.615662
6.07 -0.651527
6.08 -0.683436
6.09 -0.712378
6.1 -0.739021
6.11 -0.764114
6.12 -0.788471
6.13 -0.81264
6.14 -0.837051
6.15 -0.86191
6.16 -0.887168
6.17 -0.912572
6.18 -0.937632
6.19 -0.961835
6.2 -0.984372
6.21 -1.00467
6.22 -1.02212
6.23 -1.03602
6.24 -1.04647
6.25 -1.05275
6.26 -1.05555
6.27 -1.05486
6.28 -1.05124
6.29 -1.04535
6.3 -1.03755
6.31 -1.02855
6.32 -1.01847
6.33 -1.00736
6.34 -0.99478
6.35 -0.979653
6.36 -0.960958
6.37 -0.935876
6.38 -0.902794
6.39 -0.858194
6.4 -0.79872
6.41 -0.722055
6.42 -0.622134
6.43 -0.499002
6.44 -0.346687
6.45 -0.165164
6.46 0.0471785
6.47 0.292309
6.48 0.565968
6.49 0.870491
6.5 1.19825
6.51 1.54655
6.52 1.90868
6.53 2.27757
6.54 2.6451
6.55 3.00347
6.56 3.34244
6.57 3.65448
6.58 3.93152
6.59 4.16331
6.6 4.34875
6.61 4.47426
6.62 4.54424
6.63 4.55216
6.64 4.49859
6.65 4.38823
6.66 4.21769
6.67 3.99963
6.68 3.73433
6.69 3.43302
6.7 3.10291
6.71 2.75212
6.72 2.39082
6.73 2.02706
6.74 1.66931
6.75 1.32529
6.76 1.00179
6.77 0.702477
6.78 0.435001
6.79 0.197633
6.8 -0.00426733
6.81 -0.173232
6.82 -0.309793
6.83 -0.414335
6.84 -0.492694
6.85 -0.544169
6.86 -0.575929
6.87 -0.589945
6.88 -0.590376
6.89 -0.581062
6.9 -0.564281
6.91 -0.543523
6.92 -0.520481
6.93 -0.497018
6.94 -0.474197
6.95 -0.452856
6.96 -0.433169
6.97 -0.41553
6.98 -0.399604
6.99 -0.385404
7 -0.372785
7.01 -0.361631
7.02 -0.352245
7.03 -0.344638
7.04 -0.339485
7.05 -0.337189
7.06 -0.338403
7.07 -0.344106
7.08 -0.354433
7.09 -0.370817
7.1 -0.392871
7.11 -0.421258
7.12 -0.45584
7.13 -0.49596
7.14 -0.541589
7.15 -0.591105
7.16 -0.643798
7.17 -0.698019
7.18 -0.752408
7.19 -0.805296
7.2 -0.855527
7.21 -0.901176
7.22 -0.941749
7.23 -0.97603
7.24 -1.00354
7.25 -1.02449
7.26 -1.03824
7.27 -1.04623
7.28 -1.04851
7.29 -1.04651
7.3 -1.04121
7.31 -1.03367
7.32 -1.02511
7.33 -1.01638
7.34 -1.00817
7.35 -1.00088
7.36 -0.994512
7.37 -0.988682
7.38 -0.982614
7.39 -0.975296
7.4 -0.965117
7.41 -0.950593
7.42 -0.930043
7.43 -0.901141
7.44 -0.863248
7.45 -0.813194
7.46 -0.751402
7.47 -0.676164
7.48 -0.587275
7.49 -0.48569
7.5 -0.370638
7.51 -0.245183
7.52 -0.10988
7.53 0.0321536
7.54 0.178473
7.55 0.326
7.56 0.471752
7.57 0.611818
7.58 0.743796
7.59 0.864156
7.6 0.970102
7.61 1.06036
7.62 1.1308
7.63 1.18281
7.64 1.21322
7.65 1.22335
7.66 1.21331
7.67 1.18289
7.68 1.13545
7.69 1.07011
7.7 0.991269
7.71 0.900099
7.72 0.799412
7.73 0.692089
7.74 0.580258
7.75 0.466966
7.76 0.354569
7.77 0.245398
7.78 0.141432
7.79 0.0450405
7.8 -0.0431572
7.81 -0.120351
7.82 -0.186991
7.83 -0.241577
7.84 -0.28381
7.85 -0.314334
7.86 -0.331896
7.87 -0.338752
7.88 -0.334359
7.89 -0.320645
7.9 -0.298748
7.91 -0.269879
7.92 -0.236305
7.93 -0.199276
7.94 -0.161121
7.95 -0.123585
7.96 -0.088677
7.97 -0.0578313
7.98 -0.0334038
7.99 -0.0158341
8 -0.00715044
8.01 -0.00754485
8.02 -0.0175119
8.03 -0.0377172
8.04 -0.0668154
8.05 -0.105581
8.06 -0.151818
8.07 -0.204948
8.08 -0.263386
8.09 -0.325424
8.1 -0.389692
8.11 -0.454372
8.12 -0.51797
8.13 -0.579174
8.14 -0.636933
8.15 -0.690108
8.16 -0.7387
8.17 -0.781679
8.18 -0.819817
8.19 -0.853012
8.2 -0.881815
8.21 -0.907013
8.22 -0.92884
8.23 -0.948289
8.24 -0.965478
8.25 -0.980752
8.26 -0.993982
8.27 -1.0045
8.28 -1.01182
8.29 -1.01399
8.3 -1.01002
8.31 -0.997535
8.32 -0.9742
8.33 -0.938534
8.34 -0.886212
8.35 -0.817367
8.36 -0.727844
8.37 -0.61748
8.38 -0.485189
8.39 -0.329277
8.4 -0.152675
8.41 0.0466259
8.42 0.263583
8.43 0.496717
8.44 0.741874
8.45 0.994358
8.46 1.24942
8.47 1.50156
8.48 1.74456
8.49 1.97311
8.5 2.18196
8.51 2.36417
8.52 2.51845
8.53 2.6359
8.54 2.7183
8.55 2.76103
8.56 2.76338
8.57 2.72788
8.58 2.65095
8.59 2.54041
8.6 2.39527
8.61 2.22215
8.62 2.02521
8.63 1.80875
8.64 1.57978
8.65 1.3424
8.66 1.10308
8.67 0.866592
8.68 0.637951
8.69 0.420367
8.7 0.219188
8.71 0.03468
8.72 -0.129134
8.73 -0.272603
8.74 -0.39535
8.75 -0.496584
8.76 -0.579596
8.77 -0.643169
8.78 -0.691792
8.79 -0.726527
8.8 -0.7501
8.81 -0.765424
8.82 -0.774165
8.83 -0.779367
8.84 -0.782656
8.85 -0.785952
8.86 -0.790535
8.87 -0.797618
8.88 -0.807524
8.89 -0.821064
8.9 -0.83777
8.91 -0.857625
8.92 -0.880096
8.93 -0.904458
8.94 -0.930138
8.95 -0.956236
8.96 -0.982039
8.97 -1.00686
8.98 -1.03015
8.99 -1.0513
9 -1.07026
9.01 -1.08646
9.02 -1.10019
9.03 -1.11133
9.04 -1.12004
9.05 -1.12666
9.06 -1.13115
9.07 -1.13399
9.08 -1.13515
9.09 -1.13482
9.1 -1.13299
9.11 -1.12942
9.12 -1.12407
9.13 -1.11628
9.14 -1.10589
9.15 -1.09221
9.16 -1.07462
9.17 -1.05286
9.18 -1.02576
9.19 -0.993606
9.2 -0.955446
9.21 -0.911529
9.22 -0.86188
9.23 -0.806456
9.24 -0.746366
9.25 -0.681714
9.26 -0.614095
9.27 -0.544473
9.28 -0.474373
9.29 -0.405198
9.3 -0.338896
9.31 -0.276595
9.32 -0.220376
9.33 -0.171283
9.34 -0.130455
9.35 -0.0994563
9.36 -0.0777814
9.37 -0.0672636
9.38 -0.0664066
9.39 -0.0754988
9.4 -0.0936452
9.41 -0.119297
9.42 -0.151917
9.43 -0.189059
9.44 -0.22956
9.45 -0.271378
9.46 -0.31294
9.47 -0.352459
9.48 -0.388892
9.49 -0.420464
9.5 -0.446948
9.51 -0.467486
9.52 -0.481924
9.53 -0.4908
9.54 -0.493925
9.55 -0.492825
9.56 -0.487988
9.57 -0.480867
9.58 -0.472599
9.59 -0.464495
9.6 -0.457607
9.61 -0.453302
9.62 -0.45212
9.63 -0.45491
9.64 -0.462092
9.65 -0.473524
9.66 -0.489676
9.67 -0.509595
9.68 -0.533242
9.69 -0.559703
9.7 -0.588314
9.71 -0.618369
9.72 -0.649034
9.73 -0.679641
9.74 -0.709585
9.75 -0.738322
9.76 -0.765392
9.77 -0.790577
9.78 -0.813251
9.79 -0.83344
9.8 -0.850417
9.81 -0.863839
9.82 -0.873033
9.83 -0.876659
9.84 -0.874218
9.85 -0.863027
9.86 -0.842358
9.87 -0.809503
9.88 -0.761998
9.89 -0.698578
9.9 -0.614241
9.91 -0.509608
9.92 -0.379942
9.93 -0.225073
9.94 -0.0438244
9.95 0.166121
9.96 0.401369
9.97 0.664738
9.98 0.950593
9.99 1.25759
10 1.58131
10.01 1.91628
10.02 2.25756
10.03 2.59826
10.04 2.9314
10.05 3.2502
10.06 3.54822
10.07 3.81666
10.08 4.05321
10.09 4.24674
10.1 4.39818
10.11 4.50135
10.12 4.55411
10.13 4.55903
10.14 4.51021
10.15 4.41695
10.16 4.27695
10.17 4.09778
10.18 3.88423
10.19 3.64072
10.2 3.37642
10.21 3.0954
10.22 2.80646
10.23 2.51522
10.24 2.22817
10.25 1.94985
10.26 1.68665
10.27 1.43992
10.28 1.21442
10.29 1.0105
10.3 0.828813
10.31 0.670603
10.32 0.532361
10.33 0.415451
10.34 0.315029
10.35 0.229815
10.36 0.15682
10.37 0.0927507
10.38 0.0357768
10.39 -0.0174347
10.4 -0.0686104
10.41 -0.119729
10.42 -0.172033
10.43 -0.226613
10.44 -0.28365
10.45 -0.343627
10.46 -0.405912
10.47 -0.470135
10.48 -0.535469
10.49 -0.60103
10.5 -0.665738
10.51 -0.728774
10.52 -0.788972
10.53 -0.845628
10.54 -0.898062
10.55 -0.945324
10.56 -0.987571
10.57 -1.02364
10.58 -1.05409
10.59 -1.07844
10.6 -1.09668
10.61 -1.10926
10.62 -1.11551
10.63 -1.11645
10.64 -1.11158
10.65 -1.10149
10.66 -1.08639
10.67 -1.06623
10.68 -1.04188
10.69 -1.01306
10.7 -0.980798
10.71 -0.945361
10.72 -0.907434
10.73 -0.86783
10.74 -0.827237
10.75 -0.786637
10.76 -0.746987
10.77 -0.709241
10.78 -0.674292
10.79 -0.643374
10.8 -0.616821
10.81 -0.596172
10.82 -0.58132
10.83 -0.573101
10.84 -0.571807
10.85 -0.577039
10.86 -0.589555
10.87 -0.608015
10.88 -0.63261
10.89 -0.662217
10.9 -0.696048
10.91 -0.73333
10.92 -0.772748
10.93 -0.813481
10.94 -0.854325
10.95 -0.894336
10.96 -0.93253
10.97 -0.968317
10.98 -1.00061
10.99 -1.02943
11 -1.05401
11.01 -1.07446
11.02 -1.09079
11.03 -1.10294
11.04 -1.11164
11.05 -1.11684
11.06 -1.11949
11.07 -1.12
11.08 -1.11906
11.09 -1.11731
11.1 -1.11532
11.11 -1.11362
11.12 -1.11266
11.13 -1.11269
11.14 -1.11378
11.15 -1.11594
11.16 -1.11876
11.17 -1.12176
11.18 -1.12417
11.19 -1.12499
11.2 -1.1229
11.21 -1.11684
11.22 -1.10446
11.23 -1.08503
11.24 -1.05589
11.25 -1.01582
11.26 -0.963282
11.27 -0.8957
11.28 -0.813576
11.29 -0.713498
11.3 -0.597046
11.31 -0.462971
11.32 -0.311636
11.33 -0.145022
11.34 0.0373482
11.35 0.231296
11.36 0.435574
11.37 0.646256
11.38 0.860017
11.39 1.07268
11.4 1.28059
11.41 1.47824
11.42 1.66263
11.43 1.82895
11.44 1.97307
11.45 2.09355
11.46 2.18387
11.47 2.24631
11.48 2.27614
11.49 2.27491
11.5 2.24305
11.51 2.17979
11.52 2.09048
11.53 1.97399
11.54 1.83693
11.55 1.68159
11.56 1.51241
11.57 1.33418
11.58 1.15054
11.59 0.966228
11.6 0.785079
11.61 0.610496
11.62 0.445133
11.63 0.292197
11.64 0.151763
11.65 0.0268528
11.66 -0.0841389
11.67 -0.180625
11.68 -0.263527
11.69 -0.334973
11.7 -0.395218
11.71 -0.44762
11.72 -0.493201
11.73 -0.534365
11.74 -0.572735
11.75 -0.609755
11.76 -0.646601
11.77 -0.684033
11.78 -0.72225
11.79 -0.761129
11.8 -0.800016
11.81 -0.838025
11.82 -0.87353
11.83 -0.905393
11.84 -0.931429
11.85 -0.950149
11.86 -0.960003
11.87 -0.958609
11.88 -0.946026
11.89 -0.919356
11.9 -0.879639
11.91 -0.825792
11.92 -0.757974
11.93 -0.677714
11.94 -0.584407
11.95 -0.481256
11.96 -0.368852
11.97 -0.249894
11.98 -0.126485
11.99 -0.000963409
12 0.124221
12.01 0.246366
12.02 0.363519
12.03 0.473304
12.04 0.573601
12.05 0.663584
12.06 0.740205
12.07 0.804355
12.08 0.853809
12.09 0.889075
12.1 0.910199
12.11 0.916481
12.12 0.910124
12.13 0.89004
12.14 0.85892
12.15 0.817214
12.16 0.766341
12.17 0.708226
12.18 0.643502
12.19 0.574506
12.2 0.502163
12.21 0.428085
12.22 0.353419
12.23 0.279345
12.24 0.206648
12.25 0.136374
12.26 0.0688078
12.27 0.00449209
12.28 -0.0563309
12.29 -0.113864
12.3 -0.167737
12.31 -0.218665
12.32 -0.266589
12.33 -0.312042
12.34 -0.355362
12.35 -0.396754
