# xPDFsuite Configuration #
[PDF]
wavelength = 0.1432
dataformat = twotheta
inputfile = 1_1Pd_CeO2_cycle-00451.chi
backgroundfile = background-00000.chi
mode = xray
bgscale = 1.007
composition = CeO2
outputtype = gr
qmaxinst = 28.8974762299
qmin = 0.5
qmax = 27.9
rmax = 50.0
rmin = 0.0
rstep = 0.01
rpoly = 1.8657

[Misc]
inputdir = G:/SankarDec16/1Pd/Chi
savedir = D:/DATA/APS_CeO2/1Pd
backgroundfilefull = G:/SankarDec16/Background/background-00000.chi

#### start data
#S 1
#L r($\AA$)  G($\AA^{-2}$)
0 0
0.01 -0.0033111
0.02 -0.00637175
0.03 -0.00892414
0.04 -0.0107743
0.05 -0.0118144
0.06 -0.0118715
0.07 -0.0110618
0.08 -0.00933068
0.09 -0.00689962
0.1 -0.00392234
0.11 -0.000633568
0.12 0.00271182
0.13 0.00582685
0.14 0.00851021
0.15 0.0105143
0.16 0.0116955
0.17 0.0119976
0.18 0.0113048
0.19 0.00978908
0.2 0.00746018
0.21 0.0045769
0.22 0.0013311
0.23 -0.00201343
0.24 -0.00521774
0.25 -0.00797288
0.26 -0.0101368
0.27 -0.0114846
0.28 -0.0119305
0.29 -0.0114727
0.3 -0.0100584
0.31 -0.00790691
0.32 -0.00509169
0.33 -0.001896
0.34 0.00145995
0.35 0.00469651
0.36 0.00760285
0.37 0.00986371
0.38 0.0114034
0.39 0.0120316
0.4 0.0117243
0.41 0.0105347
0.42 0.00847563
0.43 0.00580263
0.44 0.00264942
0.45 -0.000690557
0.46 -0.00398
0.47 -0.00693742
0.48 -0.00939094
0.49 -0.0110351
0.5 -0.0118645
0.51 -0.011733
0.52 -0.0106802
0.53 -0.00881111
0.54 -0.00620443
0.55 -0.00313875
0.56 0.000198657
0.57 0.00351885
0.58 0.0065796
0.59 0.00911168
0.6 0.0109912
0.61 0.0119379
0.62 0.0120172
0.63 0.0111348
0.64 0.0093918
0.65 0.0069403
0.66 0.00392067
0.67 0.000620704
0.68 -0.00272819
0.69 -0.00585603
0.7 -0.00852795
0.71 -0.0105003
0.72 -0.0117033
0.73 -0.0118959
0.74 -0.0112107
0.75 -0.00960908
0.76 -0.00724813
0.77 -0.0043184
0.78 -0.00101346
0.79 0.00238469
0.8 0.00561444
0.81 0.00843875
0.82 0.0106434
0.83 0.0120237
0.84 0.0125671
0.85 0.0120851
0.86 0.0107681
0.87 0.00863443
0.88 0.00588547
0.89 0.00273644
0.9 -0.000582014
0.91 -0.00381398
0.92 -0.00669184
0.93 -0.00903156
0.94 -0.0106621
0.95 -0.011443
0.96 -0.0114251
0.97 -0.0105083
0.98 -0.00892989
0.99 -0.00678398
1 -0.004313
1.01 -0.00174747
1.02 0.000640808
1.03 0.00265344
1.04 0.00402198
1.05 0.00464954
1.06 0.004433
1.07 0.00333065
1.08 0.00149055
1.09 -0.0010486
1.1 -0.00396959
1.11 -0.00704488
1.12 -0.00994123
1.13 -0.0123725
1.14 -0.0139361
1.15 -0.0144829
1.16 -0.0136369
1.17 -0.0113767
1.18 -0.00760934
1.19 -0.0023295
1.2 0.0041847
1.21 0.0118714
1.22 0.0202319
1.23 0.0289437
1.24 0.03752
1.25 0.0455395
1.26 0.0524166
1.27 0.0578917
1.28 0.0613694
1.29 0.0627241
1.3 0.061702
1.31 0.0581093
1.32 0.0522142
1.33 0.0437606
1.34 0.0333617
1.35 0.0211446
1.36 0.00759847
1.37 -0.00680246
1.38 -0.0215818
1.39 -0.0362107
1.4 -0.0501336
1.41 -0.0629264
1.42 -0.074155
1.43 -0.0833588
1.44 -0.0904788
1.45 -0.094907
1.46 -0.0969178
1.47 -0.0962241
1.48 -0.0929408
1.49 -0.0872663
1.5 -0.0791428
1.51 -0.0691026
1.52 -0.0571822
1.53 -0.0438896
1.54 -0.029527
1.55 -0.014484
1.56 0.000810192
1.57 0.0159216
1.58 0.0304666
1.59 0.043987
1.6 0.0560913
1.61 0.0665024
1.62 0.0746675
1.63 0.0806161
1.64 0.083815
1.65 0.0843691
1.66 0.0821516
1.67 0.0770962
1.68 0.0695996
1.69 0.0594916
1.7 0.0474687
1.71 0.0337276
1.72 0.0188123
1.73 0.00323398
1.74 -0.0124705
1.75 -0.0277831
1.76 -0.042111
1.77 -0.0550753
1.78 -0.0662865
1.79 -0.0753769
1.8 -0.0824194
1.81 -0.0870265
1.82 -0.0896623
1.83 -0.0903579
1.84 -0.0895322
1.85 -0.0876368
1.86 -0.0851117
1.87 -0.0825229
1.88 -0.0804007
1.89 -0.0791817
1.9 -0.0792523
1.91 -0.0809666
1.92 -0.0842891
1.93 -0.0894938
1.94 -0.0961446
1.95 -0.10408
1.96 -0.112791
1.97 -0.121745
1.98 -0.130255
1.99 -0.137753
2 -0.143394
2.01 -0.146701
2.02 -0.147104
2.03 -0.144014
2.04 -0.137523
2.05 -0.12688
2.06 -0.112717
2.07 -0.0948542
2.08 -0.0737144
2.09 -0.0497975
2.1 -0.0233354
2.11 0.00487486
2.12 0.0345561
2.13 0.065123
2.14 0.096261
2.15 0.127711
2.16 0.159319
2.17 0.191095
2.18 0.223108
2.19 0.255557
2.2 0.288674
2.21 0.322648
2.22 0.357792
2.23 0.394052
2.24 0.431545
2.25 0.469944
2.26 0.508883
2.27 0.547685
2.28 0.585613
2.29 0.621323
2.3 0.653961
2.31 0.681954
2.32 0.703995
2.33 0.719156
2.34 0.72535
2.35 0.722828
2.36 0.709665
2.37 0.686443
2.38 0.65294
2.39 0.609242
2.4 0.557136
2.41 0.496587
2.42 0.430393
2.43 0.359824
2.44 0.287175
2.45 0.214462
2.46 0.14405
2.47 0.0774744
2.48 0.0170698
2.49 -0.0362819
2.5 -0.0814809
2.51 -0.117608
2.52 -0.145515
2.53 -0.164225
2.54 -0.17589
2.55 -0.180983
2.56 -0.181232
2.57 -0.178324
2.58 -0.173832
2.59 -0.169507
2.6 -0.166948
2.61 -0.167282
2.62 -0.171445
2.63 -0.180197
2.64 -0.193209
2.65 -0.210935
2.66 -0.232083
2.67 -0.256087
2.68 -0.281655
2.69 -0.307571
2.7 -0.33241
2.71 -0.355177
2.72 -0.374499
2.73 -0.389879
2.74 -0.400792
2.75 -0.406943
2.76 -0.409044
2.77 -0.407085
2.78 -0.402547
2.79 -0.396283
2.8 -0.389686
2.81 -0.383948
2.82 -0.38055
2.83 -0.380177
2.84 -0.384073
2.85 -0.392344
2.86 -0.405176
2.87 -0.422428
2.88 -0.443055
2.89 -0.466498
2.9 -0.491105
2.91 -0.515591
2.92 -0.538369
2.93 -0.558217
2.94 -0.573377
2.95 -0.583536
2.96 -0.587351
2.97 -0.58516
2.98 -0.577041
2.99 -0.563493
3 -0.546026
3.01 -0.525566
3.02 -0.504168
3.03 -0.483461
3.04 -0.465301
3.05 -0.451037
3.06 -0.442632
3.07 -0.440233
3.08 -0.445203
3.09 -0.456922
3.1 -0.475082
3.11 -0.498876
3.12 -0.52649
3.13 -0.556633
3.14 -0.587061
3.15 -0.615895
3.16 -0.641191
3.17 -0.661648
3.18 -0.675337
3.19 -0.682455
3.2 -0.68194
3.21 -0.674896
3.22 -0.66213
3.23 -0.645098
3.24 -0.625983
3.25 -0.606988
3.26 -0.590432
3.27 -0.578801
3.28 -0.574197
3.29 -0.577822
3.3 -0.591868
3.31 -0.615385
3.32 -0.649346
3.33 -0.691776
3.34 -0.741224
3.35 -0.79539
3.36 -0.851284
3.37 -0.905696
3.38 -0.955744
3.39 -0.998135
3.4 -1.0303
3.41 -1.05093
3.42 -1.05734
3.43 -1.05114
3.44 -1.03131
3.45 -1.00067
3.46 -0.961291
3.47 -0.916289
3.48 -0.869479
3.49 -0.824925
3.5 -0.785992
3.51 -0.756438
3.52 -0.738819
3.53 -0.734029
3.54 -0.743888
3.55 -0.76543
3.56 -0.797461
3.57 -0.834801
3.58 -0.872369
3.59 -0.90273
3.6 -0.919833
3.61 -0.912179
3.62 -0.875244
3.63 -0.798748
3.64 -0.67624
3.65 -0.504831
3.66 -0.274728
3.67 0.00783761
3.68 0.349043
3.69 0.740386
3.7 1.17733
3.71 1.65258
3.72 2.15275
3.73 2.668
3.74 3.18258
3.75 3.68226
3.76 4.15157
3.77 4.57895
3.78 4.9446
3.79 5.24573
3.8 5.46382
3.81 5.59885
3.82 5.6454
3.83 5.59857
3.84 5.46983
3.85 5.25093
3.86 4.96236
3.87 4.60745
3.88 4.20034
3.89 3.75529
3.9 3.28354
3.91 2.80159
3.92 2.32204
3.93 1.8574
3.94 1.41807
3.95 1.01512
3.96 0.650949
3.97 0.337403
3.98 0.0695656
3.99 -0.148253
4 -0.319101
4.01 -0.448359
4.02 -0.536753
4.03 -0.595143
4.04 -0.626202
4.05 -0.638992
4.06 -0.639081
4.07 -0.632318
4.08 -0.623877
4.09 -0.617994
4.1 -0.617117
4.11 -0.623336
4.12 -0.637126
4.13 -0.65775
4.14 -0.684555
4.15 -0.714908
4.16 -0.746804
4.17 -0.777451
4.18 -0.804418
4.19 -0.82492
4.2 -0.837828
4.21 -0.840124
4.22 -0.832363
4.23 -0.813266
4.24 -0.783262
4.25 -0.743477
4.26 -0.694007
4.27 -0.63743
4.28 -0.574434
4.29 -0.507223
4.3 -0.437177
4.31 -0.365724
4.32 -0.294068
4.33 -0.223209
4.34 -0.153655
4.35 -0.0858679
4.36 -0.0199586
4.37 0.0441885
4.38 0.106501
4.39 0.16734
4.4 0.226569
4.41 0.284239
4.42 0.340066
4.43 0.393418
4.44 0.443904
4.45 0.48997
4.46 0.53113
4.47 0.565734
4.48 0.592544
4.49 0.610817
4.5 0.618304
4.51 0.615604
4.52 0.600752
4.53 0.574524
4.54 0.536875
4.55 0.487928
4.56 0.429737
4.57 0.362265
4.58 0.288459
4.59 0.209584
4.6 0.12791
4.61 0.0454336
4.62 -0.0356763
4.63 -0.113877
4.64 -0.187122
4.65 -0.254498
4.66 -0.315041
4.67 -0.367835
4.68 -0.413544
4.69 -0.451201
4.7 -0.482456
4.71 -0.507502
4.72 -0.527507
4.73 -0.543694
4.74 -0.556878
4.75 -0.568465
4.76 -0.579244
4.77 -0.590107
4.78 -0.601613
4.79 -0.614216
4.8 -0.627943
4.81 -0.642928
4.82 -0.658764
4.83 -0.675162
4.84 -0.691608
4.85 -0.707636
4.86 -0.722622
4.87 -0.736274
4.88 -0.74803
4.89 -0.757785
4.9 -0.765393
4.91 -0.770771
4.92 -0.774285
4.93 -0.775918
4.94 -0.776286
4.95 -0.775683
4.96 -0.77461
4.97 -0.773494
4.98 -0.772807
4.99 -0.772838
5 -0.773992
5.01 -0.776402
5.02 -0.780211
5.03 -0.785543
5.04 -0.792214
5.05 -0.800346
5.06 -0.809584
5.07 -0.81983
5.08 -0.830805
5.09 -0.842215
5.1 -0.853737
5.11 -0.864995
5.12 -0.875488
5.13 -0.884733
5.14 -0.892131
5.15 -0.896792
5.16 -0.898255
5.17 -0.894916
5.18 -0.886406
5.19 -0.871184
5.2 -0.848119
5.21 -0.81656
5.22 -0.774249
5.23 -0.721709
5.24 -0.6568
5.25 -0.580029
5.26 -0.491095
5.27 -0.389732
5.28 -0.277921
5.29 -0.155316
5.3 -0.0251588
5.31 0.11103
5.32 0.250259
5.33 0.389622
5.34 0.525353
5.35 0.654651
5.36 0.773007
5.37 0.87778
5.38 0.96583
5.39 1.03331
5.4 1.08038
5.41 1.10186
5.42 1.10045
5.43 1.0741
5.44 1.02397
5.45 0.952617
5.46 0.85992
5.47 0.751342
5.48 0.628195
5.49 0.495397
5.5 0.356373
5.51 0.215096
5.52 0.0751596
5.53 -0.0593004
5.54 -0.186015
5.55 -0.301852
5.56 -0.404888
5.57 -0.49457
5.58 -0.568479
5.59 -0.62863
5.6 -0.673683
5.61 -0.705791
5.62 -0.725963
5.63 -0.735299
5.64 -0.736432
5.65 -0.729871
5.66 -0.718236
5.67 -0.702431
5.68 -0.68375
5.69 -0.663107
5.7 -0.640874
5.71 -0.61749
5.72 -0.592778
5.73 -0.566611
5.74 -0.538633
5.75 -0.508301
5.76 -0.475523
5.77 -0.439586
5.78 -0.400837
5.79 -0.359171
5.8 -0.315066
5.81 -0.269254
5.82 -0.222581
5.83 -0.176251
5.84 -0.131684
5.85 -0.0902139
5.86 -0.0532279
5.87 -0.0224768
5.88 0.00159768
5.89 0.0167506
5.9 0.0235009
5.91 0.0207674
5.92 0.00867142
5.93 -0.0120021
5.94 -0.0415501
5.95 -0.0778837
5.96 -0.120656
5.97 -0.167964
5.98 -0.218534
5.99 -0.270951
6 -0.323811
6.01 -0.375846
6.02 -0.4262
6.03 -0.47403
6.04 -0.518882
6.05 -0.560738
6.06 -0.599293
6.07 -0.635239
6.08 -0.668669
6.09 -0.700309
6.1 -0.730635
6.11 -0.760132
6.12 -0.789248
6.13 -0.81821
6.14 -0.847117
6.15 -0.875859
6.16 -0.904129
6.17 -0.931554
6.18 -0.957397
6.19 -0.981287
6.2 -1.00233
6.21 -1.02017
6.22 -1.03438
6.23 -1.04448
6.24 -1.05087
6.25 -1.05312
6.26 -1.0522
6.27 -1.04837
6.28 -1.04242
6.29 -1.03512
6.3 -1.02707
6.31 -1.01884
6.32 -1.01066
6.33 -1.00239
6.34 -0.993463
6.35 -0.982613
6.36 -0.968538
6.37 -0.948177
6.38 -0.91964
6.39 -0.879137
6.4 -0.823057
6.41 -0.74893
6.42 -0.650389
6.43 -0.527519
6.44 -0.374126
6.45 -0.190267
6.46 0.0256577
6.47 0.275594
6.48 0.555043
6.49 0.866328
6.5 1.2015
6.51 1.55772
6.52 1.92802
6.53 2.3051
6.54 2.68059
6.55 3.0465
6.56 3.3923
6.57 3.71029
6.58 3.99225
6.59 4.22765
6.6 4.41544
6.61 4.54168
6.62 4.61094
6.63 4.61653
6.64 4.55903
6.65 4.44331
6.66 4.26587
6.67 4.03972
6.68 3.76516
6.69 3.45376
6.7 3.11295
6.71 2.75114
6.72 2.37881
6.73 2.00436
6.74 1.63656
6.75 1.28346
6.76 0.952156
6.77 0.646478
6.78 0.37448
6.79 0.134328
6.8 -0.0683106
6.81 -0.236111
6.82 -0.369644
6.83 -0.469346
6.84 -0.541427
6.85 -0.585246
6.86 -0.608472
6.87 -0.61334
6.88 -0.604418
6.89 -0.585897
6.9 -0.560486
6.91 -0.531916
6.92 -0.502284
6.93 -0.473606
6.94 -0.447115
6.95 -0.423838
6.96 -0.403783
6.97 -0.387537
6.98 -0.374403
6.99 -0.36432
7 -0.356866
7.01 -0.351611
7.02 -0.3486
7.03 -0.347481
7.04 -0.348621
7.05 -0.352137
7.06 -0.358437
7.07 -0.368226
7.08 -0.381604
7.09 -0.399716
7.1 -0.422316
7.11 -0.449987
7.12 -0.48269
7.13 -0.519944
7.14 -0.561785
7.15 -0.606904
7.16 -0.654739
7.17 -0.703915
7.18 -0.753284
7.19 -0.80142
7.2 -0.84732
7.21 -0.889318
7.22 -0.926968
7.23 -0.959208
7.24 -0.98561
7.25 -1.00636
7.26 -1.02091
7.27 -1.03052
7.28 -1.03523
7.29 -1.03631
7.3 -1.03462
7.31 -1.03108
7.32 -1.02672
7.33 -1.02224
7.34 -1.01817
7.35 -1.01474
7.36 -1.01181
7.37 -1.00891
7.38 -1.00509
7.39 -0.999352
7.4 -0.989936
7.41 -0.975396
7.42 -0.95404
7.43 -0.923522
7.44 -0.883333
7.45 -0.830265
7.46 -0.76492
7.47 -0.685645
7.48 -0.592357
7.49 -0.486136
7.5 -0.366319
7.51 -0.236096
7.52 -0.0961396
7.53 0.0503308
7.54 0.200781
7.55 0.352022
7.56 0.501052
7.57 0.643824
7.58 0.777968
7.59 0.899876
7.6 1.00674
7.61 1.0973
7.62 1.16733
7.63 1.21834
7.64 1.24706
7.65 1.25488
7.66 1.24193
7.67 1.20797
7.68 1.15647
7.69 1.08649
7.7 1.00258
7.71 0.905943
7.72 0.799485
7.73 0.686208
7.74 0.568367
7.75 0.449158
7.76 0.331125
7.77 0.216767
7.78 0.108241
7.79 0.0081603
7.8 -0.0827876
7.81 -0.161461
7.82 -0.228349
7.83 -0.281769
7.84 -0.321391
7.85 -0.347957
7.86 -0.360126
7.87 -0.360481
7.88 -0.348548
7.89 -0.326598
7.9 -0.296051
7.91 -0.258479
7.92 -0.216488
7.93 -0.171788
7.94 -0.126968
7.95 -0.0841674
7.96 -0.0456734
7.97 -0.0130095
7.98 0.0111001
7.99 0.0264787
8 0.0309288
8.01 0.0245792
8.02 0.0071626
8.03 -0.0216958
8.04 -0.0601558
8.05 -0.108606
8.06 -0.164338
8.07 -0.226309
8.08 -0.292469
8.09 -0.360831
8.1 -0.429494
8.11 -0.496703
8.12 -0.56062
8.13 -0.620106
8.14 -0.674214
8.15 -0.721954
8.16 -0.763819
8.17 -0.799025
8.18 -0.828939
8.19 -0.853896
8.2 -0.874971
8.21 -0.89333
8.22 -0.909777
8.23 -0.925402
8.24 -0.940745
8.25 -0.956115
8.26 -0.971378
8.27 -0.985838
8.28 -0.998572
8.29 -1.0075
8.3 -1.01105
8.31 -1.00646
8.32 -0.990869
8.33 -0.962389
8.34 -0.916122
8.35 -0.851999
8.36 -0.765396
8.37 -0.656075
8.38 -0.522861
8.39 -0.363969
8.4 -0.182671
8.41 0.0230649
8.42 0.247663
8.43 0.489379
8.44 0.743613
8.45 1.00526
8.46 1.26913
8.47 1.52941
8.48 1.77948
8.49 2.01385
8.5 2.22711
8.51 2.41214
8.52 2.56783
8.53 2.68512
8.54 2.76616
8.55 2.80641
8.56 2.8054
8.57 2.76596
8.58 2.68466
8.59 2.56959
8.6 2.41994
8.61 2.24246
8.62 2.04139
8.63 1.8211
8.64 1.58855
8.65 1.34784
8.66 1.10534
8.67 0.865742
8.68 0.633974
8.69 0.41318
8.7 0.208641
8.71 0.0206285
8.72 -0.146827
8.73 -0.293996
8.74 -0.420403
8.75 -0.525102
8.76 -0.611256
8.77 -0.677402
8.78 -0.72793
8.79 -0.763704
8.8 -0.787322
8.81 -0.801686
8.82 -0.808298
8.83 -0.810398
8.84 -0.809585
8.85 -0.808011
8.86 -0.807143
8.87 -0.808433
8.88 -0.812488
8.89 -0.820424
8.9 -0.832013
8.91 -0.847512
8.92 -0.866603
8.93 -0.888636
8.94 -0.913274
8.95 -0.939448
8.96 -0.966526
8.97 -0.993603
8.98 -1.01996
8.99 -1.04479
9 -1.06771
9.01 -1.08791
9.02 -1.10542
9.03 -1.11984
9.04 -1.13114
9.05 -1.13954
9.06 -1.14481
9.07 -1.14756
9.08 -1.14766
9.09 -1.14551
9.1 -1.14124
9.11 -1.13477
9.12 -1.12635
9.13 -1.11551
9.14 -1.10232
9.15 -1.08628
9.16 -1.06695
9.17 -1.04411
9.18 -1.01672
9.19 -0.984966
9.2 -0.947885
9.21 -0.905557
9.22 -0.857858
9.23 -0.80456
9.24 -0.746569
9.25 -0.683772
9.26 -0.61762
9.27 -0.548911
9.28 -0.479071
9.29 -0.409501
9.3 -0.342069
9.31 -0.278062
9.32 -0.2196
9.33 -0.167921
9.34 -0.124323
9.35 -0.0905724
9.36 -0.0663313
9.37 -0.053658
9.38 -0.0511506
9.39 -0.0592391
9.4 -0.0770946
9.41 -0.103138
9.42 -0.136885
9.43 -0.175713
9.44 -0.218408
9.45 -0.262745
9.46 -0.307
9.47 -0.349216
9.48 -0.388208
9.49 -0.422029
9.5 -0.450391
9.51 -0.47234
9.52 -0.487698
9.53 -0.497044
9.54 -0.500182
9.55 -0.498777
9.56 -0.493379
9.57 -0.485571
9.58 -0.476589
9.59 -0.467854
9.6 -0.460475
9.61 -0.455896
9.62 -0.454646
9.63 -0.457572
9.64 -0.465043
9.65 -0.476843
9.66 -0.493352
9.67 -0.513532
9.68 -0.537241
9.69 -0.563506
9.7 -0.591622
9.71 -0.620859
9.72 -0.650447
9.73 -0.679763
9.74 -0.708347
9.75 -0.735793
9.76 -0.761828
9.77 -0.786383
9.78 -0.809086
9.79 -0.830019
9.8 -0.84866
9.81 -0.864668
9.82 -0.877366
9.83 -0.885387
9.84 -0.887994
9.85 -0.882363
9.86 -0.867409
9.87 -0.840112
9.88 -0.797606
9.89 -0.738325
9.9 -0.656734
9.91 -0.553341
9.92 -0.422957
9.93 -0.265364
9.94 -0.0793158
9.95 0.137592
9.96 0.381586
9.97 0.655469
9.98 0.953013
9.99 1.27251
10 1.60899
10.01 1.95646
10.02 2.30931
10.03 2.66027
10.04 3.00172
10.05 3.32661
10.06 3.62824
10.07 3.89747
10.08 4.1323
10.09 4.3213
10.1 4.46601
10.11 4.56042
10.12 4.60287
10.13 4.59649
10.14 4.53585
10.15 4.43084
10.16 4.2797
10.17 4.09041
10.18 3.86813
10.19 3.61767
10.2 3.34814
10.21 3.06397
10.22 2.77362
10.23 2.48269
10.24 2.1974
10.25 1.92192
10.26 1.66239
10.27 1.41972
10.28 1.19836
10.29 0.998328
10.3 0.820033
10.31 0.664474
10.32 0.528119
10.33 0.412161
10.34 0.311904
10.35 0.226103
10.36 0.151924
10.37 0.0862677
10.38 0.0274659
10.39 -0.0276052
10.4 -0.0805072
10.41 -0.13309
10.42 -0.186515
10.43 -0.241804
10.44 -0.299191
10.45 -0.359161
10.46 -0.421212
10.47 -0.485063
10.48 -0.550014
10.49 -0.615282
10.5 -0.679901
10.51 -0.743075
10.52 -0.803681
10.53 -0.860958
10.54 -0.914153
10.55 -0.962182
10.56 -1.00506
10.57 -1.0414
10.58 -1.07164
10.59 -1.09509
10.6 -1.11159
10.61 -1.12159
10.62 -1.12427
10.63 -1.12082
10.64 -1.1108
10.65 -1.09503
10.66 -1.07398
10.67 -1.04793
10.68 -1.01806
10.69 -0.984549
10.7 -0.948653
10.71 -0.911006
10.72 -0.872546
10.73 -0.834106
10.74 -0.796667
10.75 -0.760873
10.76 -0.727706
10.77 -0.697715
10.78 -0.671447
10.79 -0.649698
10.8 -0.632297
10.81 -0.620216
10.82 -0.612921
10.83 -0.610748
10.84 -0.613583
10.85 -0.620911
10.86 -0.633029
10.87 -0.648927
10.88 -0.668648
10.89 -0.691474
10.9 -0.716955
10.91 -0.74472
10.92 -0.774059
10.93 -0.80468
10.94 -0.83594
10.95 -0.867434
10.96 -0.898676
10.97 -0.929299
10.98 -0.958758
10.99 -0.986859
11 -1.0131
11.01 -1.03728
11.02 -1.0592
11.03 -1.07849
11.04 -1.09536
11.05 -1.10938
11.06 -1.12095
11.07 -1.13004
11.08 -1.13688
11.09 -1.14186
11.1 -1.14512
11.11 -1.14722
11.12 -1.1484
11.13 -1.14904
11.14 -1.14937
11.15 -1.14948
11.16 -1.14937
11.17 -1.14871
11.18 -1.14711
11.19 -1.14379
11.2 -1.13767
11.21 -1.12785
11.22 -1.11212
11.23 -1.08972
11.24 -1.05803
11.25 -1.01569
11.26 -0.961058
11.27 -0.891411
11.28 -0.807104
11.29 -0.704556
11.3 -0.585279
11.31 -0.447951
11.32 -0.29294
11.33 -0.122319
11.34 0.0642836
11.35 0.262479
11.36 0.470783
11.37 0.685018
11.38 0.901622
11.39 1.1161
11.4 1.32472
11.41 1.52167
11.42 1.70403
11.43 1.86695
11.44 2.0064
11.45 2.12121
11.46 2.20504
11.47 2.26059
11.48 2.28346
11.49 2.2756
11.5 2.2378
11.51 2.16967
11.52 2.07668
11.53 1.95806
11.54 1.82033
11.55 1.6658
11.56 1.49875
11.57 1.32367
11.58 1.14397
11.59 0.963881
11.6 0.786872
11.61 0.61591
11.62 0.4533
11.63 0.301831
11.64 0.161517
11.65 0.0350367
11.66 -0.0790079
11.67 -0.180004
11.68 -0.268616
11.69 -0.346577
11.7 -0.413779
11.71 -0.473068
11.72 -0.524965
11.73 -0.571427
11.74 -0.613706
11.75 -0.652798
11.76 -0.689899
11.77 -0.725406
11.78 -0.759849
11.79 -0.793184
11.8 -0.825106
11.81 -0.855217
11.82 -0.882331
11.83 -0.905893
11.84 -0.924278
11.85 -0.936474
11.86 -0.941309
11.87 -0.936847
11.88 -0.923079
11.89 -0.897424
11.9 -0.860519
11.91 -0.811128
11.92 -0.748972
11.93 -0.675041
11.94 -0.588181
11.95 -0.491015
11.96 -0.38351
11.97 -0.26791
11.98 -0.145969
11.99 -0.0196106
12 0.108537
12.01 0.236017
12.02 0.360336
12.03 0.478845
12.04 0.588843
12.05 0.688869
12.06 0.775142
12.07 0.847949
12.08 0.904289
12.09 0.944202
12.1 0.967358
12.11 0.972588
12.12 0.962383
12.13 0.935361
12.14 0.894907
12.15 0.84179
12.16 0.778113
12.17 0.706557
12.18 0.628563
12.19 0.547199
12.2 0.464243
12.21 0.381862
12.22 0.301639
12.23 0.225294
12.24 0.153333
12.25 0.0871653
12.26 0.0263631
12.27 -0.0288274
12.28 -0.0788413
12.29 -0.124661
12.3 -0.166689
12.31 -0.206419
12.32 -0.244617
12.33 -0.282397
12.34 -0.320536
12.35 -0.359771
12.36 -0.400319
12.37 -0.442468
