# xPDFsuite Configuration #
[PDF]
wavelength = 0.1432
dataformat = twotheta
inputfile = 1_1Pd_CeO2_cycle-00346.chi
backgroundfile = background-00000.chi
mode = xray
bgscale = 1.007
composition = CeO2
outputtype = gr
qmaxinst = 28.8974762299
qmin = 0.5
qmax = 27.9
rmax = 50.0
rmin = 0.0
rstep = 0.01
rpoly = 1.8657

[Misc]
inputdir = G:/SankarDec16/1Pd/Chi
savedir = D:/DATA/APS_CeO2/1Pd
backgroundfilefull = G:/SankarDec16/Background/background-00000.chi

#### start data
#S 1
#L r($\AA$)  G($\AA^{-2}$)
0 0
0.01 -0.00624449
0.02 -0.0120169
0.03 -0.0168311
0.04 -0.0203214
0.05 -0.0222848
0.06 -0.0223949
0.07 -0.0208707
0.08 -0.0176092
0.09 -0.0130276
0.1 -0.00741573
0.11 -0.00121592
0.12 0.0050913
0.13 0.010965
0.14 0.0160255
0.15 0.0198058
0.16 0.022035
0.17 0.0226068
0.18 0.0213025
0.19 0.0184461
0.2 0.0140555
0.21 0.00861849
0.22 0.00249657
0.23 -0.00381303
0.24 -0.00985955
0.25 -0.0150605
0.26 -0.0191474
0.27 -0.0216962
0.28 -0.0225441
0.29 -0.0216876
0.3 -0.0190264
0.31 -0.0149734
0.32 -0.00966676
0.33 -0.00364055
0.34 0.00269012
0.35 0.00879787
0.36 0.0142846
0.37 0.0185554
0.38 0.0214668
0.39 0.022659
0.4 0.0220861
0.41 0.0198473
0.42 0.0159664
0.43 0.0109249
0.44 0.0049743
0.45 -0.00133165
0.46 -0.00754523
0.47 -0.013135
0.48 -0.017776
0.49 -0.020891
0.5 -0.0224689
0.51 -0.0222327
0.52 -0.0202561
0.53 -0.0167365
0.54 -0.0118212
0.55 -0.00603598
0.56 0.000266456
0.57 0.00654023
0.58 0.0123278
0.59 0.0171202
0.6 0.0206823
0.61 0.0224841
0.62 0.0226477
0.63 0.0209933
0.64 0.0177109
0.65 0.0130867
0.66 0.00738455
0.67 0.0011482
0.68 -0.00518607
0.69 -0.0111075
0.7 -0.0161721
0.71 -0.0199187
0.72 -0.0222144
0.73 -0.0226028
0.74 -0.0213333
0.75 -0.0183323
0.76 -0.0138959
0.77 -0.0083842
0.78 -0.00216308
0.79 0.00423395
0.8 0.0103115
0.81 0.0156208
0.82 0.019756
0.83 0.0223295
0.84 0.0233177
0.85 0.022365
0.86 0.0198336
0.87 0.0157613
0.88 0.0105338
0.89 0.00456355
0.9 -0.00170307
0.91 -0.00777672
0.92 -0.0131365
0.93 -0.0174276
0.94 -0.020315
0.95 -0.0215205
0.96 -0.0211405
0.97 -0.0189663
0.98 -0.0154593
0.99 -0.0107918
1 -0.00543372
1.01 0.000163278
1.02 0.00546805
1.03 0.0100742
1.04 0.0134393
1.05 0.0153403
1.06 0.0155369
1.07 0.0138903
1.08 0.0106498
1.09 0.00579122
1.1 -9.323e-05
1.11 -0.00665216
1.12 -0.013289
1.13 -0.0194766
1.14 -0.0245222
1.15 -0.0280849
1.16 -0.0295008
1.17 -0.0286513
1.18 -0.0253213
1.19 -0.0194295
1.2 -0.0113846
1.21 -0.00119754
1.22 0.0103374
1.23 0.022771
1.24 0.035356
1.25 0.0474401
1.26 0.0581756
1.27 0.0671284
1.28 0.0734615
1.29 0.0769736
1.3 0.0773223
1.31 0.0742708
1.32 0.0682092
1.33 0.0588691
1.34 0.0471087
1.35 0.033173
1.36 0.0177576
1.37 0.00150777
1.38 -0.0149112
1.39 -0.0308717
1.4 -0.0456767
1.41 -0.0588971
1.42 -0.0700909
1.43 -0.078841
1.44 -0.0852167
1.45 -0.0887097
1.46 -0.0897737
1.47 -0.0882772
1.48 -0.0844944
1.49 -0.078732
1.5 -0.0710877
1.51 -0.062073
1.52 -0.051807
1.53 -0.0406958
1.54 -0.0289704
1.55 -0.0168917
1.56 -0.00471177
1.57 0.00731656
1.58 0.0189863
1.59 0.0300298
1.6 0.0402035
1.61 0.0493114
1.62 0.056945
1.63 0.0630508
1.64 0.0671546
1.65 0.0692087
1.66 0.0689864
1.67 0.0662699
1.68 0.0612688
1.69 0.0536395
1.7 0.0439195
1.71 0.0321514
1.72 0.0187763
1.73 0.00426573
1.74 -0.0109123
1.75 -0.0261407
1.76 -0.0408099
1.77 -0.0543915
1.78 -0.0663803
1.79 -0.0762594
1.8 -0.0839791
1.81 -0.0889978
1.82 -0.0917338
1.83 -0.0921421
1.84 -0.0906517
1.85 -0.0877714
1.86 -0.0840093
1.87 -0.0800835
1.88 -0.0766734
1.89 -0.0743812
1.9 -0.0737512
1.91 -0.0753079
1.92 -0.0790558
1.93 -0.0854375
1.94 -0.0939063
1.95 -0.104305
1.96 -0.115977
1.97 -0.128212
1.98 -0.140114
1.99 -0.150873
2 -0.159363
2.01 -0.164902
2.02 -0.166711
2.03 -0.164007
2.04 -0.156908
2.05 -0.144489
2.06 -0.127633
2.07 -0.10623
2.08 -0.0809741
2.09 -0.0526524
2.1 -0.0218323
2.11 0.0103818
2.12 0.0433291
2.13 0.0762094
2.14 0.108492
2.15 0.139747
2.16 0.169945
2.17 0.199003
2.18 0.227391
2.19 0.255525
2.2 0.284075
2.21 0.313642
2.22 0.345082
2.23 0.378671
2.24 0.415087
2.25 0.454177
2.26 0.495799
2.27 0.53941
2.28 0.583968
2.29 0.628149
2.3 0.670425
2.31 0.708811
2.32 0.741303
2.33 0.766344
2.34 0.78099
2.35 0.785057
2.36 0.775755
2.37 0.753453
2.38 0.717596
2.39 0.668052
2.4 0.607077
2.41 0.534507
2.42 0.454138
2.43 0.367726
2.44 0.278514
2.45 0.189381
2.46 0.103774
2.47 0.0239091
2.48 -0.0467786
2.49 -0.107016
2.5 -0.15521
2.51 -0.190064
2.52 -0.212905
2.53 -0.222452
2.54 -0.221994
2.55 -0.212453
2.56 -0.196597
2.57 -0.177092
2.58 -0.15664
2.59 -0.137852
2.6 -0.123485
2.61 -0.115195
2.62 -0.114485
2.63 -0.122567
2.64 -0.138693
2.65 -0.163664
2.66 -0.195068
2.67 -0.231903
2.68 -0.27184
2.69 -0.312682
2.7 -0.351885
2.71 -0.387589
2.72 -0.417288
2.73 -0.439973
2.74 -0.454587
2.75 -0.460431
2.76 -0.458662
2.77 -0.449016
2.78 -0.434092
2.79 -0.415246
2.8 -0.394925
2.81 -0.375289
2.82 -0.358971
2.83 -0.347429
2.84 -0.343023
2.85 -0.346261
2.86 -0.357772
2.87 -0.377701
2.88 -0.404452
2.89 -0.437562
2.9 -0.47419
2.91 -0.512424
2.92 -0.549556
2.93 -0.58337
2.94 -0.610882
2.95 -0.631099
2.96 -0.641547
2.97 -0.642288
2.98 -0.63305
2.99 -0.614172
3 -0.587855
3.01 -0.55508
3.02 -0.519206
3.03 -0.482626
3.04 -0.44841
3.05 -0.418941
3.06 -0.3975
3.07 -0.38484
3.08 -0.383481
3.09 -0.392965
3.1 -0.413257
3.11 -0.4436
3.12 -0.481357
3.13 -0.525056
3.14 -0.571043
3.15 -0.616564
3.16 -0.658389
3.17 -0.694161
3.18 -0.720579
3.19 -0.737314
3.2 -0.74216
3.21 -0.736179
3.22 -0.72
3.23 -0.695163
3.24 -0.664787
3.25 -0.63142
3.26 -0.598854
3.27 -0.570566
3.28 -0.549992
3.29 -0.539384
3.3 -0.542338
3.31 -0.558305
3.32 -0.589356
3.33 -0.633397
3.34 -0.689015
3.35 -0.753654
3.36 -0.823248
3.37 -0.894026
3.38 -0.961564
3.39 -1.02143
3.4 -1.06967
3.41 -1.10392
3.42 -1.12007
3.43 -1.11949
3.44 -1.10012
3.45 -1.06512
3.46 -1.01671
3.47 -0.958506
3.48 -0.8956
3.49 -0.832944
3.5 -0.775569
3.51 -0.728638
3.52 -0.696232
3.53 -0.680321
3.54 -0.684369
3.55 -0.705428
3.56 -0.743416
3.57 -0.792551
3.58 -0.847415
3.59 -0.899809
3.6 -0.942054
3.61 -0.961387
3.62 -0.951259
3.63 -0.899548
3.64 -0.797869
3.65 -0.641975
3.66 -0.419834
3.67 -0.137663
3.68 0.2124
3.69 0.621208
3.7 1.08406
3.71 1.59305
3.72 2.13282
3.73 2.69255
3.74 3.25381
3.75 3.80044
3.76 4.31455
3.77 4.78269
3.78 5.18234
3.79 5.51005
3.8 5.74491
3.81 5.88691
3.82 5.93014
3.83 5.86947
3.84 5.71807
3.85 5.46747
3.86 5.14096
3.87 4.74302
3.88 4.29002
3.89 3.79816
3.9 3.28081
3.91 2.75602
3.92 2.23837
3.93 1.74126
3.94 1.27603
3.95 0.854574
3.96 0.478616
3.97 0.160854
3.98 -0.105286
3.99 -0.315774
4 -0.474881
4.01 -0.589219
4.02 -0.660464
4.03 -0.700811
4.04 -0.713865
4.05 -0.709552
4.06 -0.694064
4.07 -0.673802
4.08 -0.653928
4.09 -0.639066
4.1 -0.631182
4.11 -0.632287
4.12 -0.64245
4.13 -0.660519
4.14 -0.685549
4.15 -0.714504
4.16 -0.745173
4.17 -0.774599
4.18 -0.80031
4.19 -0.819571
4.2 -0.83137
4.21 -0.832919
4.22 -0.824925
4.23 -0.806351
4.24 -0.77777
4.25 -0.740342
4.26 -0.694256
4.27 -0.641841
4.28 -0.583646
4.29 -0.521479
4.3 -0.456339
4.31 -0.389133
4.32 -0.320705
4.33 -0.251364
4.34 -0.181474
4.35 -0.111052
4.36 -0.0400943
4.37 0.0313966
4.38 0.103418
4.39 0.175697
4.4 0.247806
4.41 0.319028
4.42 0.388418
4.43 0.4545
4.44 0.51629
4.45 0.571192
4.46 0.618479
4.47 0.655827
4.48 0.681782
4.49 0.695721
4.5 0.695166
4.51 0.681547
4.52 0.653091
4.53 0.611524
4.54 0.557532
4.55 0.492149
4.56 0.418215
4.57 0.336731
4.58 0.251088
4.59 0.163272
4.6 0.0758777
4.61 -0.0091225
4.62 -0.0892615
4.63 -0.163718
4.64 -0.230556
4.65 -0.289707
4.66 -0.340838
4.67 -0.383813
4.68 -0.420011
4.69 -0.449301
4.7 -0.473749
4.71 -0.494109
4.72 -0.511789
4.73 -0.527965
4.74 -0.543596
4.75 -0.559489
4.76 -0.576221
4.77 -0.593981
4.78 -0.612769
4.79 -0.632357
4.8 -0.652265
4.81 -0.671902
4.82 -0.69068
4.83 -0.707915
4.84 -0.723041
4.85 -0.735775
4.86 -0.745532
4.87 -0.752641
4.88 -0.75688
4.89 -0.7588
4.9 -0.758794
4.91 -0.757408
4.92 -0.755355
4.93 -0.753254
4.94 -0.751704
4.95 -0.751244
4.96 -0.752261
4.97 -0.754885
4.98 -0.75938
4.99 -0.765412
5 -0.772951
5.01 -0.781538
5.02 -0.790836
5.03 -0.800443
5.04 -0.810004
5.05 -0.819184
5.06 -0.827853
5.07 -0.835893
5.08 -0.843358
5.09 -0.850391
5.1 -0.857152
5.11 -0.863853
5.12 -0.87063
5.13 -0.877489
5.14 -0.884277
5.15 -0.890541
5.16 -0.895725
5.17 -0.898536
5.18 -0.898026
5.19 -0.892393
5.2 -0.879829
5.21 -0.85897
5.22 -0.826642
5.23 -0.78266
5.24 -0.723835
5.25 -0.650116
5.26 -0.560612
5.27 -0.454458
5.28 -0.333943
5.29 -0.198198
5.3 -0.0514555
5.31 0.104444
5.32 0.265535
5.33 0.427868
5.34 0.586507
5.35 0.737527
5.36 0.875035
5.37 0.99548
5.38 1.09481
5.39 1.1682
5.4 1.21599
5.41 1.23199
5.42 1.21993
5.43 1.1778
5.44 1.10769
5.45 1.01323
5.46 0.895249
5.47 0.760692
5.48 0.612112
5.49 0.455655
5.5 0.295802
5.51 0.137685
5.52 -0.0149179
5.53 -0.156718
5.54 -0.286081
5.55 -0.399659
5.56 -0.496105
5.57 -0.575716
5.58 -0.636649
5.59 -0.682247
5.6 -0.712059
5.61 -0.72936
5.62 -0.736046
5.63 -0.734173
5.64 -0.726677
5.65 -0.714925
5.66 -0.701185
5.67 -0.686504
5.68 -0.671741
5.69 -0.657165
5.7 -0.642601
5.71 -0.62751
5.72 -0.610913
5.73 -0.591838
5.74 -0.56922
5.75 -0.541751
5.76 -0.509215
5.77 -0.470206
5.78 -0.425529
5.79 -0.375054
5.8 -0.319768
5.81 -0.261072
5.82 -0.200448
5.83 -0.14002
5.84 -0.0820772
5.85 -0.0287532
5.86 0.0178508
5.87 0.0551906
5.88 0.0827455
5.89 0.0974739
5.9 0.100399
5.91 0.090327
5.92 0.0678407
5.93 0.0343797
5.94 -0.0098682
5.95 -0.0618269
5.96 -0.120422
5.97 -0.182898
5.98 -0.247276
5.99 -0.311352
6 -0.37349
6.01 -0.431639
6.02 -0.485213
6.03 -0.533144
6.04 -0.575232
6.05 -0.611922
6.06 -0.643147
6.07 -0.670418
6.08 -0.694286
6.09 -0.716188
6.1 -0.737146
6.11 -0.758246
6.12 -0.780216
6.13 -0.803842
6.14 -0.829154
6.15 -0.856233
6.16 -0.884661
6.17 -0.913801
6.18 -0.942795
6.19 -0.970767
6.2 -0.996564
6.21 -1.01941
6.22 -1.03857
6.23 -1.05327
6.24 -1.06376
6.25 -1.06943
6.26 -1.0713
6.27 -1.06971
6.28 -1.06561
6.29 -1.06
6.3 -1.05376
6.31 -1.04771
6.32 -1.04239
6.33 -1.03782
6.34 -1.03357
6.35 -1.02845
6.36 -1.02097
6.37 -1.008
6.38 -0.987188
6.39 -0.954361
6.4 -0.905322
6.41 -0.837086
6.42 -0.74241
6.43 -0.621043
6.44 -0.465856
6.45 -0.276619
6.46 -0.0513178
6.47 0.212475
6.48 0.509839
6.49 0.843612
6.5 1.20487
6.51 1.59051
6.52 1.99269
6.53 2.40314
6.54 2.81241
6.55 3.21134
6.56 3.58801
6.57 3.93361
6.58 4.23877
6.59 4.49155
6.6 4.69072
6.61 4.82058
6.62 4.88633
6.63 4.88055
6.64 4.80411
6.65 4.66267
6.66 4.45274
6.67 4.18916
6.68 3.87287
6.69 3.51717
6.7 3.13087
6.71 2.72402
6.72 2.30845
6.73 1.89445
6.74 1.49158
6.75 1.10931
6.76 0.755554
6.77 0.434286
6.78 0.154698
6.79 -0.0861846
6.8 -0.282185
6.81 -0.437212
6.82 -0.552597
6.83 -0.629689
6.84 -0.676274
6.85 -0.692681
6.86 -0.688122
6.87 -0.666001
6.88 -0.632076
6.89 -0.591285
6.9 -0.547514
6.91 -0.504429
6.92 -0.464867
6.93 -0.43047
6.94 -0.402271
6.95 -0.380986
6.96 -0.365642
6.97 -0.356414
6.98 -0.35146
6.99 -0.349996
7 -0.350729
7.01 -0.35262
7.02 -0.354941
7.03 -0.357218
7.04 -0.359368
7.05 -0.361698
7.06 -0.364778
7.07 -0.369617
7.08 -0.376959
7.09 -0.388454
7.1 -0.404587
7.11 -0.426587
7.12 -0.455052
7.13 -0.489876
7.14 -0.531734
7.15 -0.579167
7.16 -0.631917
7.17 -0.688221
7.18 -0.746617
7.19 -0.805209
7.2 -0.862264
7.21 -0.915435
7.22 -0.963537
7.23 -1.00476
7.24 -1.03803
7.25 -1.06318
7.26 -1.07896
7.27 -1.08693
7.28 -1.08683
7.29 -1.08044
7.3 -1.06902
7.31 -1.05408
7.32 -1.03749
7.33 -1.02074
7.34 -1.0052
7.35 -0.991939
7.36 -0.981549
7.37 -0.973929
7.38 -0.968874
7.39 -0.965051
7.4 -0.961006
7.41 -0.954689
7.42 -0.943924
7.43 -0.925684
7.44 -0.898493
7.45 -0.858191
7.46 -0.804443
7.47 -0.734599
7.48 -0.647715
7.49 -0.544446
7.5 -0.423172
7.51 -0.287491
7.52 -0.137623
7.53 0.0225447
7.54 0.189976
7.55 0.360785
7.56 0.530823
7.57 0.695067
7.58 0.84996
7.59 0.990763
7.6 1.11357
7.61 1.21651
7.62 1.29411
7.63 1.34811
7.64 1.37445
7.65 1.37504
7.66 1.35026
7.67 1.30029
7.68 1.22975
7.69 1.13826
7.7 1.03172
7.71 0.912248
7.72 0.783875
7.73 0.650384
7.74 0.515146
7.75 0.381552
7.76 0.252945
7.77 0.131736
7.78 0.0200805
7.79 -0.0794496
7.8 -0.166925
7.81 -0.239319
7.82 -0.298104
7.83 -0.342084
7.84 -0.371642
7.85 -0.388087
7.86 -0.390646
7.87 -0.382199
7.88 -0.362638
7.89 -0.334273
7.9 -0.298524
7.91 -0.256897
7.92 -0.211689
7.93 -0.164456
7.94 -0.117418
7.95 -0.0724818
7.96 -0.031698
7.97 0.00353528
7.98 0.0305979
7.99 0.049224
8 0.0571147
8.01 0.0541572
8.02 0.0398211
8.03 0.0133587
8.04 -0.0236089
8.05 -0.0719501
8.06 -0.129012
8.07 -0.194007
8.08 -0.264913
8.09 -0.339573
8.1 -0.416057
8.11 -0.492103
8.12 -0.565576
8.13 -0.634783
8.14 -0.698302
8.15 -0.754555
8.16 -0.803712
8.17 -0.844361
8.18 -0.877848
8.19 -0.904244
8.2 -0.924674
8.21 -0.940593
8.22 -0.952951
8.23 -0.963497
8.24 -0.97321
8.25 -0.983057
8.26 -0.993461
8.27 -1.00437
8.28 -1.01512
8.29 -1.02422
8.3 -1.02996
8.31 -1.02962
8.32 -1.02005
8.33 -0.998804
8.34 -0.960393
8.35 -0.90391
8.36 -0.823788
8.37 -0.718926
8.38 -0.587325
8.39 -0.426184
8.4 -0.238659
8.41 -0.0216564
8.42 0.218686
8.43 0.480774
8.44 0.759428
8.45 1.04859
8.46 1.34228
8.47 1.63316
8.48 1.91326
8.49 2.17559
8.5 2.41337
8.51 2.61776
8.52 2.78715
8.53 2.91054
8.54 2.99047
8.55 3.02165
8.56 3.00382
8.57 2.94076
8.58 2.82919
8.59 2.67924
8.6 2.49104
8.61 2.27329
8.62 2.03185
8.63 1.77296
8.64 1.50485
8.65 1.23369
8.66 0.966314
8.67 0.708644
8.68 0.466048
8.69 0.241306
8.7 0.0402747
8.71 -0.138398
8.72 -0.290906
8.73 -0.419125
8.74 -0.523784
8.75 -0.605313
8.76 -0.668273
8.77 -0.712624
8.78 -0.74368
8.79 -0.763325
8.8 -0.774798
8.81 -0.781049
8.82 -0.784143
8.83 -0.786447
8.84 -0.789512
8.85 -0.794505
8.86 -0.802125
8.87 -0.812927
8.88 -0.826579
8.89 -0.843257
8.9 -0.862112
8.91 -0.882745
8.92 -0.904454
8.93 -0.926603
8.94 -0.948599
8.95 -0.970009
8.96 -0.990395
8.97 -1.00959
8.98 -1.02749
8.99 -1.04403
9 -1.05944
9.01 -1.07368
9.02 -1.08706
9.03 -1.09967
9.04 -1.11161
9.05 -1.12293
9.06 -1.13349
9.07 -1.14319
9.08 -1.15164
9.09 -1.1585
9.1 -1.16329
9.11 -1.16523
9.12 -1.16408
9.13 -1.15859
9.14 -1.14866
9.15 -1.1334
9.16 -1.11224
9.17 -1.08519
9.18 -1.05112
9.19 -1.0109
9.2 -0.963805
9.21 -0.910594
9.22 -0.85168
9.23 -0.787467
9.24 -0.719333
9.25 -0.647826
9.26 -0.574605
9.27 -0.500854
9.28 -0.428148
9.29 -0.357775
9.3 -0.291769
9.31 -0.230918
9.32 -0.177261
9.33 -0.131557
9.34 -0.094754
9.35 -0.0682345
9.36 -0.0512781
9.37 -0.0455848
9.38 -0.0495208
9.39 -0.0632817
9.4 -0.0859005
9.41 -0.1158
9.42 -0.152377
9.43 -0.193204
9.44 -0.237056
9.45 -0.281886
9.46 -0.326081
9.47 -0.367772
9.48 -0.405912
9.49 -0.438577
9.5 -0.465552
9.51 -0.485877
9.52 -0.499359
9.53 -0.506566
9.54 -0.50723
9.55 -0.503037
9.56 -0.49449
9.57 -0.483221
9.58 -0.470517
9.59 -0.457888
9.6 -0.446582
9.61 -0.43822
9.62 -0.433503
9.63 -0.433493
9.64 -0.438766
9.65 -0.449222
9.66 -0.465523
9.67 -0.486565
9.68 -0.512384
9.69 -0.541901
9.7 -0.574337
9.71 -0.60887
9.72 -0.644448
9.73 -0.680305
9.74 -0.715659
9.75 -0.749879
9.76 -0.782434
9.77 -0.813089
9.78 -0.841234
9.79 -0.866949
9.8 -0.889591
9.81 -0.908895
9.82 -0.924253
9.83 -0.934384
9.84 -0.938734
9.85 -0.934567
9.86 -0.920945
9.87 -0.894897
9.88 -0.853557
9.89 -0.795288
9.9 -0.714338
9.91 -0.611017
9.92 -0.47971
9.93 -0.319839
9.94 -0.129743
9.95 0.0936042
9.96 0.346544
9.97 0.632671
9.98 0.945576
9.99 1.28386
10 1.64244
10.01 2.01485
10.02 2.39528
10.03 2.77542
10.04 3.14693
10.05 3.50158
10.06 3.83157
10.07 4.12628
10.08 4.3829
10.09 4.5881
10.1 4.74307
10.11 4.84057
10.12 4.87833
10.13 4.85973
10.14 4.77837
10.15 4.64568
10.16 4.4598
10.17 4.2303
10.18 3.96358
10.19 3.66589
10.2 3.34822
10.21 3.0168
10.22 2.68173
10.23 2.35037
10.24 2.0305
10.25 1.72697
10.26 1.44782
10.27 1.19326
10.28 0.968828
10.29 0.773677
10.3 0.607637
10.31 0.471118
10.32 0.358717
10.33 0.270831
10.34 0.200697
10.35 0.145694
10.36 0.101325
10.37 0.0632963
10.38 0.0282602
10.39 -0.00727028
10.4 -0.0460424
10.41 -0.0898959
10.42 -0.139999
10.43 -0.197399
10.44 -0.26121
10.45 -0.331724
10.46 -0.406964
10.47 -0.485814
10.48 -0.566389
10.49 -0.646918
10.5 -0.725291
10.51 -0.800157
10.52 -0.869511
10.53 -0.932372
10.54 -0.987835
10.55 -1.03466
10.56 -1.07349
10.57 -1.10298
10.58 -1.12447
10.59 -1.1378
10.6 -1.14356
10.61 -1.14285
10.62 -1.13557
10.63 -1.12332
10.64 -1.10618
10.65 -1.08513
10.66 -1.06071
10.67 -1.03325
10.68 -1.00352
10.69 -0.971593
10.7 -0.938125
10.71 -0.903374
10.72 -0.867769
10.73 -0.831755
10.74 -0.795824
10.75 -0.760479
10.76 -0.726398
10.77 -0.694174
10.78 -0.664432
10.79 -0.63811
10.8 -0.615438
10.81 -0.597704
10.82 -0.584863
10.83 -0.577696
10.84 -0.576569
10.85 -0.581251
10.86 -0.59259
10.87 -0.609522
10.88 -0.632415
10.89 -0.660385
10.9 -0.69284
10.91 -0.729225
10.92 -0.768309
10.93 -0.809467
10.94 -0.851448
10.95 -0.893342
10.96 -0.934087
10.97 -0.972936
10.98 -1.00868
10.99 -1.04108
11 -1.06915
11.01 -1.09276
11.02 -1.11173
11.03 -1.12572
11.04 -1.13542
11.05 -1.14055
11.06 -1.14218
11.07 -1.1407
11.08 -1.13693
11.09 -1.13177
11.1 -1.12603
11.11 -1.12057
11.12 -1.11622
11.13 -1.11355
11.14 -1.11299
11.15 -1.1149
11.16 -1.11892
11.17 -1.12497
11.18 -1.13204
11.19 -1.13914
11.2 -1.14471
11.21 -1.14725
11.22 -1.14403
11.23 -1.13368
11.24 -1.1129
11.25 -1.07981
11.26 -1.03227
11.27 -0.966886
11.28 -0.883989
11.29 -0.779245
11.3 -0.654456
11.31 -0.508054
11.32 -0.340526
11.33 -0.154393
11.34 0.050711
11.35 0.269508
11.36 0.500164
11.37 0.737672
11.38 0.977779
11.39 1.21513
11.4 1.44535
11.41 1.66156
11.42 1.86044
11.43 2.03631
11.44 2.1846
11.45 2.30405
11.46 2.38746
11.47 2.43817
11.48 2.45133
11.49 2.42948
11.5 2.37379
11.51 2.28426
11.52 2.16738
11.53 2.02284
11.54 1.85826
11.55 1.67672
11.56 1.48345
11.57 1.28361
11.58 1.08165
11.59 0.882073
11.6 0.689161
11.61 0.506022
11.62 0.335111
11.63 0.1795
11.64 0.0385975
11.65 -0.0846849
11.66 -0.192631
11.67 -0.284945
11.68 -0.362935
11.69 -0.429047
11.7 -0.483738
11.71 -0.530548
11.72 -0.570584
11.73 -0.606287
11.74 -0.639274
11.75 -0.670968
11.76 -0.702511
11.77 -0.734648
11.78 -0.767587
11.79 -0.80125
11.8 -0.835074
11.81 -0.868271
11.82 -0.899417
11.83 -0.927462
11.84 -0.950444
11.85 -0.966963
11.86 -0.975542
11.87 -0.973885
11.88 -0.961881
11.89 -0.936604
11.9 -0.898758
11.91 -0.846984
11.92 -0.781023
11.93 -0.702031
11.94 -0.608804
11.95 -0.504297
11.96 -0.38854
11.97 -0.264045
11.98 -0.132763
11.99 0.00316785
12 0.140891
12.01 0.277707
12.02 0.410933
12.03 0.537687
12.04 0.655045
12.05 0.761437
12.06 0.852727
12.07 0.929239
12.08 0.987669
12.09 1.02804
12.1 1.04995
12.11 1.05209
12.12 1.03716
12.13 1.0036
12.14 0.955143
12.15 0.89264
12.16 0.818451
12.17 0.735598
12.18 0.645792
12.19 0.552525
12.2 0.457951
12.21 0.36462
12.22 0.274445
12.23 0.189579
12.24 0.110608
12.25 0.0393882
12.26 -0.0246323
12.27 -0.0810791
12.28 -0.130471
12.29 -0.174081
12.3 -0.212385
12.31 -0.247415
12.32 -0.280216
12.33 -0.312387
12.34 -0.345104
12.35 -0.379574
12.36 -0.416268
12.37 -0.455937
12.38 -0.498177
12.39 -0.542696
12.4 -0.588543
