# xPDFsuite Configuration #
[PDF]
wavelength = 0.1432
dataformat = twotheta
inputfile = 1_1Pd_CeO2_cycle-00062.chi
backgroundfile = background-00000.chi
mode = xray
bgscale = 1.007
composition = CeO2
outputtype = gr
qmaxinst = 28.8974762299
qmin = 0.5
qmax = 27.9
rmax = 50.0
rmin = 0.0
rstep = 0.01
rpoly = 1.8657

[Misc]
inputdir = G:/SankarDec16/1Pd/Chi
savedir = D:/DATA/APS_CeO2/1Pd
backgroundfilefull = G:/SankarDec16/Background/background-00000.chi

#### start data
#S 1
#L r($\AA$)  G($\AA^{-2}$)
0 0
0.01 -0.00652084
0.02 -0.0125502
0.03 -0.0175822
0.04 -0.0212356
0.05 -0.0232985
0.06 -0.02343
0.07 -0.0218572
0.08 -0.0184707
0.09 -0.013704
0.1 -0.00785705
0.11 -0.00138905
0.12 0.00519939
0.13 0.0113465
0.14 0.0166543
0.15 0.0206359
0.16 0.023006
0.17 0.0236509
0.18 0.0223386
0.19 0.0194031
0.2 0.0148581
0.21 0.0092093
0.22 0.00283032
0.23 -0.00376303
0.24 -0.0100994
0.25 -0.0155734
0.26 -0.0198996
0.27 -0.0226331
0.28 -0.0235983
0.29 -0.0227856
0.3 -0.0200828
0.31 -0.0159157
0.32 -0.0104203
0.33 -0.00415089
0.34 0.00246292
0.35 0.00887281
0.36 0.0146594
0.37 0.0192025
0.38 0.0223427
0.39 0.023699
0.4 0.023214
0.41 0.0209828
0.42 0.0170194
0.43 0.011821
0.44 0.00564017
0.45 -0.000946204
0.46 -0.00747319
0.47 -0.0133856
0.48 -0.0183364
0.49 -0.02172
0.5 -0.0235115
0.51 -0.0234123
0.52 -0.0214863
0.53 -0.0179299
0.54 -0.0128829
0.55 -0.00689088
0.56 -0.000311343
0.57 0.00628328
0.58 0.012415
0.59 0.0175477
0.6 0.0214244
0.61 0.023483
0.62 0.0238349
0.63 0.0222787
0.64 0.018998
0.65 0.0142811
0.66 0.00838856
0.67 0.00188839
0.68 -0.00477335
0.69 -0.0110557
0.7 -0.0164904
0.71 -0.020586
0.72 -0.0231879
0.73 -0.0238047
0.74 -0.0226792
0.75 -0.0197172
0.76 -0.0152131
0.77 -0.00953377
0.78 -0.00304756
0.79 0.00368227
0.8 0.0101436
0.81 0.015853
0.82 0.0203755
0.83 0.0232888
0.84 0.0245481
0.85 0.0237577
0.86 0.0212787
0.87 0.0171282
0.88 0.0116948
0.89 0.00540327
0.9 -0.00129294
0.91 -0.00786746
0.92 -0.0137762
0.93 -0.0186235
0.94 -0.0220394
0.95 -0.0237038
0.96 -0.0236898
0.97 -0.0217391
0.98 -0.0183132
0.99 -0.0135566
1 -0.00793969
1.01 -0.00192473
1.02 0.00395878
1.03 0.0092643
1.04 0.0134374
1.05 0.0162129
1.06 0.0173205
1.07 0.0165855
1.08 0.0142284
1.09 0.0101865
1.1 0.00503801
1.11 -0.00089341
1.12 -0.0070237
1.13 -0.0128305
1.14 -0.0176415
1.15 -0.0211007
1.16 -0.0225651
1.17 -0.0219042
1.18 -0.01891
1.19 -0.0135115
1.2 -0.00610742
1.21 0.00325693
1.22 0.0138063
1.23 0.0250684
1.24 0.0362971
1.25 0.0468488
1.26 0.0558676
1.27 0.0629608
1.28 0.0673045
1.29 0.0687545
1.3 0.06702
1.31 0.0619399
1.32 0.0539696
1.33 0.0429614
1.34 0.0298259
1.35 0.0149237
1.36 -0.000976199
1.37 -0.0171861
1.38 -0.0329312
1.39 -0.0476434
1.4 -0.0605519
1.41 -0.0713244
1.42 -0.0795684
1.43 -0.0849584
1.44 -0.0877175
1.45 -0.0874649
1.46 -0.0848357
1.47 -0.0798725
1.48 -0.0730237
1.49 -0.0647224
1.5 -0.0552734
1.51 -0.0451884
1.52 -0.0347523
1.53 -0.0243044
1.54 -0.0140675
1.55 -0.00424157
1.56 0.00511088
1.57 0.0138291
1.58 0.0219733
1.59 0.0294679
1.6 0.0363105
1.61 0.0424947
1.62 0.0478785
1.63 0.0524736
1.64 0.0560314
1.65 0.0584802
1.66 0.0596208
1.67 0.0592049
1.68 0.0572422
1.69 0.0533182
1.7 0.0476567
1.71 0.0400909
1.72 0.0307737
1.73 0.0199412
1.74 0.00774086
1.75 -0.00531935
1.76 -0.0189145
1.77 -0.0325228
1.78 -0.0457008
1.79 -0.0579327
1.8 -0.0689553
1.81 -0.0781906
1.82 -0.0856934
1.83 -0.0912047
1.84 -0.0948245
1.85 -0.096784
1.86 -0.0972316
1.87 -0.0967242
1.88 -0.0956107
1.89 -0.0944448
1.9 -0.0936721
1.91 -0.0937763
1.92 -0.0949694
1.93 -0.0976851
1.94 -0.101762
1.95 -0.107237
1.96 -0.113798
1.97 -0.121027
1.98 -0.128389
1.99 -0.135273
2 -0.140888
2.01 -0.14463
2.02 -0.145836
2.03 -0.143781
2.04 -0.138396
2.05 -0.128776
2.06 -0.115437
2.07 -0.0980875
2.08 -0.0770956
2.09 -0.0529656
2.1 -0.0259286
2.11 0.00310029
2.12 0.0337619
2.13 0.0653227
2.14 0.0973399
2.15 0.12941
2.16 0.161315
2.17 0.192934
2.18 0.224391
2.19 0.255886
2.2 0.287766
2.21 0.320361
2.22 0.354181
2.23 0.389366
2.24 0.426297
2.25 0.464814
2.26 0.504729
2.27 0.545529
2.28 0.586415
2.29 0.626171
2.3 0.663659
2.31 0.697174
2.32 0.725082
2.33 0.746115
2.34 0.75774
2.35 0.759878
2.36 0.750077
2.37 0.728671
2.38 0.695135
2.39 0.649281
2.4 0.593055
2.41 0.52616
2.42 0.45192
2.43 0.371763
2.44 0.288504
2.45 0.20468
2.46 0.123271
2.47 0.0463667
2.48 -0.0229868
2.49 -0.0834844
2.5 -0.133575
2.51 -0.171913
2.52 -0.19948
2.53 -0.214871
2.54 -0.220848
2.55 -0.217984
2.56 -0.208576
2.57 -0.194908
2.58 -0.179174
2.59 -0.163824
2.6 -0.151181
2.61 -0.142907
2.62 -0.140436
2.63 -0.145
2.64 -0.156198
2.65 -0.174914
2.66 -0.19929
2.67 -0.228659
2.68 -0.261179
2.69 -0.295052
2.7 -0.328253
2.71 -0.359129
2.72 -0.385624
2.73 -0.406773
2.74 -0.421627
2.75 -0.429521
2.76 -0.431304
2.77 -0.426703
2.78 -0.41779
2.79 -0.405655
2.8 -0.392299
2.81 -0.379505
2.82 -0.369459
2.83 -0.36338
2.84 -0.363231
2.85 -0.369431
2.86 -0.382488
2.87 -0.40248
2.88 -0.428037
2.89 -0.458662
2.9 -0.49193
2.91 -0.526108
2.92 -0.558824
2.93 -0.58815
2.94 -0.611413
2.95 -0.627814
2.96 -0.635137
2.97 -0.633512
2.98 -0.622735
2.99 -0.603161
3 -0.576838
3.01 -0.544716
3.02 -0.50989
3.03 -0.474602
3.04 -0.441708
3.05 -0.413423
3.06 -0.392838
3.07 -0.380647
3.08 -0.379258
3.09 -0.388253
3.1 -0.407639
3.11 -0.436756
3.12 -0.473127
3.13 -0.515448
3.14 -0.560243
3.15 -0.604946
3.16 -0.646482
3.17 -0.682574
3.18 -0.710066
3.19 -0.72854
3.2 -0.735823
3.21 -0.732801
3.22 -0.719966
3.23 -0.698643
3.24 -0.671731
3.25 -0.641495
3.26 -0.611547
3.27 -0.585119
3.28 -0.565493
3.29 -0.554868
3.3 -0.55669
3.31 -0.570586
3.32 -0.59861
3.33 -0.638922
3.34 -0.690298
3.35 -0.750446
3.36 -0.815569
3.37 -0.88221
3.38 -0.946149
3.39 -1.00321
3.4 -1.04958
3.41 -1.08295
3.42 -1.09935
3.43 -1.09993
3.44 -1.08264
3.45 -1.05038
3.46 -1.00516
3.47 -0.950344
3.48 -0.89078
3.49 -0.831141
3.5 -0.776307
3.51 -0.731249
3.52 -0.699978
3.53 -0.684486
3.54 -0.688227
3.55 -0.708475
3.56 -0.745281
3.57 -0.793138
3.58 -0.846867
3.59 -0.89856
3.6 -0.940704
3.61 -0.960851
3.62 -0.952441
3.63 -0.903473
3.64 -0.805485
3.65 -0.654055
3.66 -0.43698
3.67 -0.160106
3.68 0.184779
3.69 0.588931
3.7 1.04804
3.71 1.55465
3.72 2.09355
3.73 2.65446
3.74 3.21879
3.75 3.77054
3.76 4.29164
3.77 4.76835
3.78 5.17787
3.79 5.51612
3.8 5.76171
3.81 5.91396
3.82 5.96637
3.83 5.9131
3.84 5.76704
3.85 5.51889
3.86 5.19204
3.87 4.79063
3.88 4.33111
3.89 3.83003
3.9 3.3009
3.91 2.76258
3.92 2.23012
3.93 1.71779
3.94 1.23765
3.95 0.802468
3.96 0.414508
3.97 0.0874865
3.98 -0.18506
3.99 -0.398504
4 -0.557015
4.01 -0.667396
4.02 -0.731183
4.03 -0.761407
4.04 -0.761895
4.05 -0.743481
4.06 -0.713037
4.07 -0.677808
4.08 -0.643662
4.09 -0.616175
4.1 -0.597701
4.11 -0.590923
4.12 -0.596214
4.13 -0.612429
4.14 -0.638946
4.15 -0.672101
4.16 -0.709665
4.17 -0.747937
4.18 -0.783917
4.19 -0.814194
4.2 -0.83706
4.21 -0.848976
4.22 -0.850149
4.23 -0.838933
4.24 -0.815526
4.25 -0.780971
4.26 -0.735087
4.27 -0.680622
4.28 -0.618048
4.29 -0.549723
4.3 -0.47703
4.31 -0.401387
4.32 -0.324225
4.33 -0.246434
4.34 -0.168851
4.35 -0.0920053
4.36 -0.0162529
4.37 0.0582528
4.38 0.131158
4.39 0.202472
4.4 0.271655
4.41 0.338395
4.42 0.402034
4.43 0.461478
4.44 0.516232
4.45 0.564154
4.46 0.604944
4.47 0.636711
4.48 0.658342
4.49 0.669382
4.5 0.667697
4.51 0.654533
4.52 0.628279
4.53 0.590366
4.54 0.541291
4.55 0.481817
4.56 0.414374
4.57 0.339636
4.58 0.260587
4.59 0.17885
4.6 0.0966821
4.61 0.0158535
4.62 -0.0615233
4.63 -0.13456
4.64 -0.201548
4.65 -0.262255
4.66 -0.316271
4.67 -0.363328
4.68 -0.404471
4.69 -0.439405
4.7 -0.469798
4.71 -0.496129
4.72 -0.519471
4.73 -0.540755
4.74 -0.560584
4.75 -0.579686
4.76 -0.598346
4.77 -0.616757
4.78 -0.634871
4.79 -0.652432
4.8 -0.669191
4.81 -0.684546
4.82 -0.698273
4.83 -0.709866
4.84 -0.719074
4.85 -0.7259
4.86 -0.730112
4.87 -0.73227
4.88 -0.732517
4.89 -0.731575
4.9 -0.730033
4.91 -0.728643
4.92 -0.728015
4.93 -0.728995
4.94 -0.731863
4.95 -0.737117
4.96 -0.744866
4.97 -0.754923
4.98 -0.767244
4.99 -0.781085
5 -0.795998
5.01 -0.811156
5.02 -0.825862
5.03 -0.839299
5.04 -0.851041
5.05 -0.860272
5.06 -0.86707
5.07 -0.871167
5.08 -0.872781
5.09 -0.87235
5.1 -0.870198
5.11 -0.867104
5.12 -0.86356
5.13 -0.860129
5.14 -0.857129
5.15 -0.854671
5.16 -0.852488
5.17 -0.849934
5.18 -0.846061
5.19 -0.8394
5.2 -0.828148
5.21 -0.81075
5.22 -0.784054
5.23 -0.747281
5.24 -0.697014
5.25 -0.632587
5.26 -0.552617
5.27 -0.455646
5.28 -0.343527
5.29 -0.214722
5.3 -0.0732831
5.31 0.0793676
5.32 0.239398
5.33 0.402768
5.34 0.564666
5.35 0.720642
5.36 0.864653
5.37 0.992559
5.38 1.09985
5.39 1.1811
5.4 1.23622
5.41 1.25832
5.42 1.25092
5.43 1.21154
5.44 1.1421
5.45 1.04627
5.46 0.924724
5.47 0.784879
5.48 0.629403
5.49 0.465004
5.5 0.296606
5.51 0.12989
5.52 -0.030887
5.53 -0.17981
5.54 -0.31497
5.55 -0.432586
5.56 -0.531111
5.57 -0.610866
5.58 -0.669826
5.59 -0.711783
5.6 -0.736367
5.61 -0.747377
5.62 -0.747113
5.63 -0.738132
5.64 -0.723816
5.65 -0.706085
5.66 -0.687467
5.67 -0.669386
5.68 -0.652868
5.69 -0.638154
5.7 -0.625196
5.71 -0.613053
5.72 -0.600634
5.73 -0.5865
5.74 -0.569215
5.75 -0.547017
5.76 -0.519322
5.77 -0.484228
5.78 -0.442366
5.79 -0.393306
5.8 -0.337941
5.81 -0.27775
5.82 -0.214167
5.83 -0.149712
5.84 -0.0868365
5.85 -0.0281072
5.86 0.0240274
5.87 0.0666083
5.88 0.0988308
5.89 0.117225
5.9 0.122736
5.91 0.113962
5.92 0.0914809
5.93 0.0568718
5.94 0.0103757
5.95 -0.0445488
5.96 -0.106605
5.97 -0.172653
5.98 -0.240405
5.99 -0.307306
6 -0.371557
6.01 -0.430786
6.02 -0.484473
6.03 -0.531486
6.04 -0.57177
6.05 -0.606005
6.06 -0.63437
6.07 -0.658745
6.08 -0.680048
6.09 -0.700052
6.1 -0.720078
6.11 -0.741524
6.12 -0.765117
6.13 -0.791896
6.14 -0.821595
6.15 -0.854198
6.16 -0.888931
6.17 -0.924746
6.18 -0.960299
6.19 -0.994253
6.2 -1.02487
6.21 -1.051
6.22 -1.07155
6.23 -1.08535
6.24 -1.09282
6.25 -1.09302
6.26 -1.08753
6.27 -1.07685
6.28 -1.06251
6.29 -1.0461
6.3 -1.0292
6.31 -1.01326
6.32 -0.999617
6.33 -0.988798
6.34 -0.980855
6.35 -0.975105
6.36 -0.969879
6.37 -0.962468
6.38 -0.949855
6.39 -0.927651
6.4 -0.890988
6.41 -0.836133
6.42 -0.755043
6.43 -0.646639
6.44 -0.502856
6.45 -0.322808
6.46 -0.103875
6.47 0.157019
6.48 0.454809
6.49 0.792911
6.5 1.16166
6.51 1.55782
6.52 1.97284
6.53 2.39761
6.54 2.8219
6.55 3.23556
6.56 3.62568
6.57 3.98267
6.58 4.29647
6.59 4.55438
6.6 4.75523
6.61 4.88261
6.62 4.94242
6.63 4.92727
6.64 4.83869
6.65 4.68313
6.66 4.45781
6.67 4.17859
6.68 3.84728
6.69 3.47804
6.7 3.08035
6.71 2.66502
6.72 2.24389
6.73 1.82793
6.74 1.42615
6.75 1.04799
6.76 0.700846
6.77 0.387984
6.78 0.118009
6.79 -0.112944
6.8 -0.299447
6.81 -0.446103
6.82 -0.554802
6.83 -0.627469
6.84 -0.671873
6.85 -0.688774
6.86 -0.686872
6.87 -0.669417
6.88 -0.641602
6.89 -0.607725
6.9 -0.570983
6.91 -0.534351
6.92 -0.499889
6.93 -0.468728
6.94 -0.441456
6.95 -0.418345
6.96 -0.398632
6.97 -0.382198
6.98 -0.367893
6.99 -0.355237
7 -0.343649
7.01 -0.33282
7.02 -0.322876
7.03 -0.314027
7.04 -0.307093
7.05 -0.302865
7.06 -0.302367
7.07 -0.307068
7.08 -0.317396
7.09 -0.335336
7.1 -0.360541
7.11 -0.393913
7.12 -0.435264
7.13 -0.483675
7.14 -0.538941
7.15 -0.598829
7.16 -0.662154
7.17 -0.726614
7.18 -0.79026
7.19 -0.850706
7.2 -0.906508
7.21 -0.954955
7.22 -0.995675
7.23 -1.02716
7.24 -1.04909
7.25 -1.0621
7.26 -1.06579
7.27 -1.06247
7.28 -1.05278
7.29 -1.03905
7.3 -1.023
7.31 -1.00663
7.32 -0.991568
7.33 -0.979654
7.34 -0.971506
7.35 -0.96793
7.36 -0.968813
7.37 -0.973312
7.38 -0.980454
7.39 -0.988169
7.4 -0.994186
7.41 -0.99593
7.42 -0.990771
7.43 -0.975208
7.44 -0.947969
7.45 -0.90452
7.46 -0.845177
7.47 -0.767481
7.48 -0.671074
7.49 -0.557248
7.5 -0.424991
7.51 -0.278568
7.52 -0.118846
7.53 0.0498162
7.54 0.223997
7.55 0.399417
7.56 0.572047
7.57 0.736564
7.58 0.889879
7.59 1.02738
7.6 1.14557
7.61 1.24305
7.62 1.31473
7.63 1.36284
7.64 1.38372
7.65 1.37956
7.66 1.35099
7.67 1.29834
7.68 1.22615
7.69 1.13411
7.7 1.0278
7.71 0.909165
7.72 0.781937
7.73 0.649619
7.74 0.515279
7.75 0.382127
7.76 0.253279
7.77 0.131106
7.78 0.017763
7.79 -0.0841204
7.8 -0.174389
7.81 -0.249822
7.82 -0.311582
7.83 -0.358176
7.84 -0.389673
7.85 -0.407193
7.86 -0.409621
7.87 -0.399892
7.88 -0.377723
7.89 -0.345603
7.9 -0.305104
7.91 -0.257968
7.92 -0.206876
7.93 -0.153752
7.94 -0.101217
7.95 -0.0515899
7.96 -0.00729404
7.97 0.0300847
7.98 0.0575295
7.99 0.0749366
8 0.07984
8.01 0.0724172
8.02 0.0523749
8.03 0.0192952
8.04 -0.0247131
8.05 -0.0800591
8.06 -0.143616
8.07 -0.214119
8.08 -0.289129
8.09 -0.366292
8.1 -0.44325
8.11 -0.517951
8.12 -0.588097
8.13 -0.652341
8.14 -0.709541
8.15 -0.758499
8.16 -0.799926
8.17 -0.832918
8.18 -0.859331
8.19 -0.879748
8.2 -0.895736
8.21 -0.908951
8.22 -0.920795
8.23 -0.932786
8.24 -0.946075
8.25 -0.961265
8.26 -0.978488
8.27 -0.997308
8.28 -1.0165
8.29 -1.03408
8.3 -1.04779
8.31 -1.05442
8.32 -1.05034
8.33 -1.03292
8.34 -0.996197
8.35 -0.939466
8.36 -0.85696
8.37 -0.747901
8.38 -0.610537
8.39 -0.442377
8.4 -0.247098
8.41 -0.022
8.42 0.226281
8.43 0.495725
8.44 0.780761
8.45 1.07513
8.46 1.37247
8.47 1.66557
8.48 1.94631
8.49 2.20791
8.5 2.44378
8.51 2.64528
8.52 2.81117
8.53 2.9307
8.54 3.00673
8.55 3.03423
8.56 3.01314
8.57 2.94734
8.58 2.83366
8.59 2.68213
8.6 2.49284
8.61 2.2743
8.62 2.03218
8.63 1.7725
8.64 1.50329
8.65 1.23049
8.66 0.960868
8.67 0.700215
8.68 0.453914
8.69 0.224862
8.7 0.0190196
8.71 -0.164681
8.72 -0.322168
8.73 -0.454992
8.74 -0.563577
8.75 -0.647963
8.76 -0.712586
8.77 -0.756977
8.78 -0.786537
8.79 -0.803006
8.8 -0.809711
8.81 -0.809853
8.82 -0.80562
8.83 -0.799868
8.84 -0.794464
8.85 -0.791045
8.86 -0.790708
8.87 -0.794479
8.88 -0.802236
8.89 -0.814639
8.9 -0.830801
8.91 -0.850503
8.92 -0.872982
8.93 -0.897365
8.94 -0.922974
8.95 -0.948883
8.96 -0.974385
8.97 -0.998859
8.98 -1.02184
8.99 -1.04286
9 -1.06192
9.01 -1.07865
9.02 -1.09337
9.03 -1.10605
9.04 -1.1169
9.05 -1.12621
9.06 -1.13396
9.07 -1.14049
9.08 -1.14567
9.09 -1.14952
9.1 -1.15185
9.11 -1.15219
9.12 -1.15036
9.13 -1.14536
9.14 -1.13692
9.15 -1.12411
9.16 -1.10613
9.17 -1.08268
9.18 -1.05231
9.19 -1.0155
9.2 -0.971138
9.21 -0.919666
9.22 -0.861242
9.23 -0.795981
9.24 -0.725352
9.25 -0.64971
9.26 -0.571076
9.27 -0.4908
9.28 -0.41086
9.29 -0.332987
9.3 -0.259738
9.31 -0.192342
9.32 -0.133424
9.33 -0.0840949
9.34 -0.0456208
9.35 -0.0197508
9.36 -0.00558799
9.37 -0.00511463
9.38 -0.0161837
9.39 -0.0388058
9.4 -0.0715166
9.41 -0.112179
9.42 -0.159605
9.43 -0.210779
9.44 -0.263822
9.45 -0.316224
9.46 -0.365982
9.47 -0.410776
9.48 -0.449699
9.49 -0.480461
9.5 -0.503356
9.51 -0.517564
9.52 -0.523365
9.53 -0.521895
9.54 -0.51341
9.55 -0.500225
9.56 -0.483446
9.57 -0.465178
9.58 -0.447091
9.59 -0.431107
9.6 -0.41838
9.61 -0.410827
9.62 -0.408703
9.63 -0.412913
9.64 -0.423587
9.65 -0.440114
9.66 -0.462641
9.67 -0.489539
9.68 -0.520292
9.69 -0.553445
9.7 -0.587932
9.71 -0.622629
9.72 -0.656664
9.73 -0.689123
9.74 -0.719723
9.75 -0.748106
9.76 -0.774268
9.77 -0.798497
9.78 -0.820826
9.79 -0.841769
9.8 -0.861308
9.81 -0.879466
9.82 -0.89587
9.83 -0.909489
9.84 -0.919438
9.85 -0.92306
9.86 -0.918747
9.87 -0.903134
9.88 -0.872674
9.89 -0.825088
9.9 -0.753796
9.91 -0.65861
9.92 -0.533116
9.93 -0.376391
9.94 -0.186466
9.95 0.0400431
9.96 0.299078
9.97 0.594453
9.98 0.918951
9.99 1.2708
10 1.64416
10.01 2.03178
10.02 2.42702
10.03 2.82085
10.04 3.20403
10.05 3.5678
10.06 3.9039
10.07 4.20117
10.08 4.45706
10.09 4.65777
10.1 4.80522
10.11 4.89235
10.12 4.91751
10.13 4.88481
10.14 4.78848
10.15 4.64079
10.16 4.4406
10.17 4.19814
10.18 3.9203
10.19 3.61393
10.2 3.28997
10.21 2.95517
10.22 2.6192
10.23 2.2894
10.24 1.97316
10.25 1.67483
10.26 1.40209
10.27 1.15447
10.28 0.93704
10.29 0.748459
10.3 0.588179
10.31 0.456212
10.32 0.34711
10.33 0.260987
10.34 0.191315
10.35 0.135528
10.36 0.0893923
10.37 0.0489563
10.38 0.0111832
10.39 -0.0270245
10.4 -0.068056
10.41 -0.113467
10.42 -0.16421
10.43 -0.221106
10.44 -0.283344
10.45 -0.351089
10.46 -0.422642
10.47 -0.497026
10.48 -0.572647
10.49 -0.648046
10.5 -0.721459
10.51 -0.791812
10.52 -0.857445
10.53 -0.917565
10.54 -0.971414
10.55 -1.01792
10.56 -1.05756
10.57 -1.08908
10.58 -1.11349
10.59 -1.13047
10.6 -1.14032
10.61 -1.14381
10.62 -1.14053
10.63 -1.13181
10.64 -1.11743
10.65 -1.09821
10.66 -1.07459
10.67 -1.04676
10.68 -1.01564
10.69 -0.981258
10.7 -0.944573
10.71 -0.905997
10.72 -0.866234
10.73 -0.825993
10.74 -0.786061
10.75 -0.747141
10.76 -0.710177
10.77 -0.675879
10.78 -0.64496
10.79 -0.618449
10.8 -0.596439
10.81 -0.58025
10.82 -0.569583
10.83 -0.565089
10.84 -0.566912
10.85 -0.574616
10.86 -0.588824
10.87 -0.608323
10.88 -0.633296
10.89 -0.662781
10.9 -0.696135
10.91 -0.732757
10.92 -0.771522
10.93 -0.811808
10.94 -0.852539
10.95 -0.892905
10.96 -0.931994
10.97 -0.969185
10.98 -1.0034
10.99 -1.03447
11 -1.06152
11.01 -1.0844
11.02 -1.10295
11.03 -1.1168
11.04 -1.12658
11.05 -1.13194
11.06 -1.13387
11.07 -1.13269
11.08 -1.12916
11.09 -1.12417
11.1 -1.11847
11.11 -1.11299
11.12 -1.10858
11.13 -1.10591
11.14 -1.10548
11.15 -1.10777
11.16 -1.11252
11.17 -1.11975
11.18 -1.12847
11.19 -1.13774
11.2 -1.14597
11.21 -1.15158
11.22 -1.15173
11.23 -1.14485
11.24 -1.12743
11.25 -1.09735
11.26 -1.05222
11.27 -0.988332
11.28 -0.905906
11.29 -0.800233
11.3 -0.673154
11.31 -0.522955
11.32 -0.350146
11.33 -0.157452
11.34 0.0554428
11.35 0.282813
11.36 0.522552
11.37 0.769189
11.38 1.01805
11.39 1.26325
11.4 1.50011
11.41 1.72114
11.42 1.92288
11.43 2.09932
11.44 2.24576
11.45 2.36107
11.46 2.43787
11.47 2.48007
11.48 2.48294
11.49 2.44956
11.5 2.38162
11.51 2.27964
11.52 2.15066
11.53 1.99502
11.54 1.8207
11.55 1.63128
11.56 1.43233
11.57 1.22904
11.58 1.02626
11.59 0.828075
11.6 0.638846
11.61 0.461236
11.62 0.297334
11.63 0.149809
11.64 0.0174994
11.65 -0.0971622
11.66 -0.19695
11.67 -0.282019
11.68 -0.354079
11.69 -0.415731
11.7 -0.467841
11.71 -0.51374
11.72 -0.554688
11.73 -0.592852
11.74 -0.629617
11.75 -0.66615
11.76 -0.703141
11.77 -0.74101
11.78 -0.779545
11.79 -0.81832
11.8 -0.856436
11.81 -0.892943
11.82 -0.926088
11.83 -0.954928
11.84 -0.97736
11.85 -0.99215
11.86 -0.997966
11.87 -0.99267
11.88 -0.976469
11.89 -0.946631
11.9 -0.90416
11.91 -0.847917
11.92 -0.777854
11.93 -0.695235
11.94 -0.59903
11.95 -0.492131
11.96 -0.374614
11.97 -0.248876
11.98 -0.11676
11.99 0.0197185
12 0.157869
12.01 0.295126
12.02 0.428921
12.03 0.556457
12.04 0.674849
12.05 0.782493
12.06 0.87521
12.07 0.953183
12.08 1.01296
12.09 1.05436
12.1 1.07682
12.11 1.07875
12.12 1.06281
12.13 1.02714
12.14 0.975538
12.15 0.90877
12.16 0.829259
12.17 0.74022
12.18 0.643476
12.19 0.542881
12.2 0.440867
12.21 0.340357
12.22 0.243595
12.23 0.153164
12.24 0.0698202
12.25 -0.0041088
12.26 -0.0691929
12.27 -0.124864
12.28 -0.171636
12.29 -0.211009
12.3 -0.24345
12.31 -0.271498
12.32 -0.296429
12.33 -0.320325
12.34 -0.344767
12.35 -0.371454
12.36 -0.401176
12.37 -0.435208
12.38 -0.473274
12.39 -0.515361
12.4 -0.560625
12.41 -0.607704
