# xPDFsuite Configuration #
[PDF]
wavelength = 0.1432
dataformat = twotheta
inputfile = 1_1Pd_CeO2_cycle-00024.chi
backgroundfile = background-00000.chi
mode = xray
bgscale = 1.007
composition = CeO2
outputtype = gr
qmaxinst = 28.8974762299
qmin = 0.5
qmax = 27.9
rmax = 50.0
rmin = 0.0
rstep = 0.01
rpoly = 1.8657

[Misc]
inputdir = G:/SankarDec16/1Pd/Chi
savedir = D:/DATA/APS_CeO2/1Pd
backgroundfilefull = G:/SankarDec16/Background/background-00000.chi

#### start data
#S 1
#L r($\AA$)  G($\AA^{-2}$)
0 0
0.01 -0.00615671
0.02 -0.0118493
0.03 -0.0165998
0.04 -0.0200484
0.05 -0.0219948
0.06 -0.0221175
0.07 -0.0206309
0.08 -0.0174321
0.09 -0.0129305
0.1 -0.00740973
0.11 -0.0013035
0.12 0.00491545
0.13 0.0107164
0.14 0.0157242
0.15 0.0194788
0.16 0.0217116
0.17 0.0223156
0.18 0.0210722
0.19 0.0182975
0.2 0.014005
0.21 0.00867237
0.22 0.00265271
0.23 -0.00356684
0.24 -0.00954172
0.25 -0.0147004
0.26 -0.0187744
0.27 -0.0213443
0.28 -0.0222455
0.29 -0.0214696
0.3 -0.0189121
0.31 -0.0149752
0.32 -0.00978849
0.33 -0.00387507
0.34 0.00235948
0.35 0.00839787
0.36 0.0138453
0.37 0.018117
0.38 0.0210644
0.39 0.022329
0.4 0.0218583
0.41 0.0197433
0.42 0.0159987
0.43 0.0110939
0.44 0.00526835
0.45 -0.000934329
0.46 -0.00707584
0.47 -0.0126334
0.48 -0.0172814
0.49 -0.0204502
0.5 -0.0221183
0.51 -0.0220062
0.52 -0.0201762
0.53 -0.0168145
0.54 -0.012055
0.55 -0.00641169
0.56 -0.000222529
0.57 0.00597428
0.58 0.0117292
0.59 0.0165388
0.6 0.0201631
0.61 0.0220752
0.62 0.0223822
0.63 0.0208972
0.64 0.017795
0.65 0.0133484
0.66 0.00780453
0.67 0.0016971
0.68 -0.00455342
0.69 -0.0104401
0.7 -0.0155239
0.71 -0.0193451
0.72 -0.0217609
0.73 -0.0223125
0.74 -0.0212306
0.75 -0.0184295
0.76 -0.0141876
0.77 -0.00885038
0.78 -0.0027652
0.79 0.00354079
0.8 0.0095873
0.81 0.0149236
0.82 0.0191445
0.83 0.0218574
0.84 0.0230238
0.85 0.0222775
0.86 0.0199593
0.87 0.0160887
0.88 0.0110315
0.89 0.00518522
0.9 -0.00102485
0.91 -0.00711022
0.92 -0.0125645
0.93 -0.017024
0.94 -0.0201491
0.95 -0.0216495
0.96 -0.0215999
0.97 -0.0197724
0.98 -0.0166019
0.99 -0.0122346
1 -0.00711536
1.01 -0.00167782
1.02 0.00357573
1.03 0.00823707
1.04 0.0117857
1.05 0.0139868
1.06 0.0145971
1.07 0.0134678
1.08 0.0108216
1.09 0.00662188
1.1 0.00142604
1.11 -0.00443803
1.12 -0.0104028
1.13 -0.0159638
1.14 -0.0204589
1.15 -0.0235559
1.16 -0.0246191
1.17 -0.023531
1.18 -0.0200863
1.19 -0.0142116
1.2 -0.00630223
1.21 0.00361338
1.22 0.0147657
1.23 0.0267
1.24 0.0386791
1.25 0.0500612
1.26 0.0599961
1.27 0.0680693
1.28 0.0734416
1.29 0.0759293
1.3 0.0751997
1.31 0.0710309
1.32 0.0638335
1.33 0.053362
1.34 0.0405003
1.35 0.0255265
1.36 0.00916953
1.37 -0.00789708
1.38 -0.0249555
1.39 -0.0413705
1.4 -0.0563895
1.41 -0.0695831
1.42 -0.0804906
1.43 -0.0886827
1.44 -0.0942639
1.45 -0.0967097
1.46 -0.0965445
1.47 -0.0936627
1.48 -0.088401
1.49 -0.0811246
1.5 -0.0719996
1.51 -0.0615923
1.52 -0.0500957
1.53 -0.0379525
1.54 -0.0254347
1.55 -0.012837
1.56 -0.000389333
1.57 0.0116259
1.58 0.0230736
1.59 0.033711
1.6 0.0433642
1.61 0.051905
1.62 0.0590041
1.63 0.0646729
1.64 0.068522
1.65 0.0705446
1.66 0.0705571
1.67 0.0683729
1.68 0.0641684
1.69 0.0576145
1.7 0.0491568
1.71 0.0387855
1.72 0.0268426
1.73 0.0137066
1.74 -0.000280216
1.75 -0.0145741
1.76 -0.0286999
1.77 -0.0421731
1.78 -0.0545509
1.79 -0.0653635
1.8 -0.0745023
1.81 -0.0814667
1.82 -0.0865281
1.83 -0.0895825
1.84 -0.0909196
1.85 -0.0909148
1.86 -0.0899151
1.87 -0.0885165
1.88 -0.0872219
1.89 -0.0865502
1.9 -0.0869474
1.91 -0.0888517
1.92 -0.0923173
1.93 -0.0976982
1.94 -0.10461
1.95 -0.11293
1.96 -0.122147
1.97 -0.131694
1.98 -0.140824
1.99 -0.148886
2 -0.154918
2.01 -0.15835
2.02 -0.158508
2.03 -0.154703
2.04 -0.147026
2.05 -0.13463
2.06 -0.118262
2.07 -0.0977748
2.08 -0.0737311
2.09 -0.0467846
2.1 -0.0173597
2.11 0.0135739
2.12 0.0455072
2.13 0.0777253
2.14 0.109777
2.15 0.141289
2.16 0.17218
2.17 0.202387
2.18 0.232226
2.19 0.262021
2.2 0.292274
2.21 0.323434
2.22 0.356149
2.23 0.390582
2.24 0.427201
2.25 0.465796
2.26 0.506142
2.27 0.547643
2.28 0.589367
2.29 0.629964
2.3 0.668149
2.31 0.702062
2.32 0.729938
2.33 0.750436
2.34 0.760897
2.35 0.761308
2.36 0.749177
2.37 0.724981
2.38 0.688311
2.39 0.639162
2.4 0.579679
2.41 0.509833
2.42 0.433131
2.43 0.35126
2.44 0.267215
2.45 0.183627
2.46 0.103689
2.47 0.0293512
2.48 -0.0362403
2.49 -0.0920109
2.5 -0.136563
2.51 -0.168792
2.52 -0.190001
2.53 -0.199115
2.54 -0.199217
2.55 -0.191243
2.56 -0.177793
2.57 -0.16134
2.58 -0.144435
2.59 -0.129425
2.6 -0.118875
2.61 -0.114225
2.62 -0.11681
2.63 -0.127663
2.64 -0.145988
2.65 -0.172412
2.66 -0.204608
2.67 -0.241527
2.68 -0.280917
2.69 -0.320684
2.7 -0.358345
2.71 -0.392213
2.72 -0.419876
2.73 -0.440466
2.74 -0.453028
2.75 -0.456973
2.76 -0.453507
2.77 -0.442463
2.78 -0.426425
2.79 -0.406788
2.8 -0.385985
2.81 -0.366148
2.82 -0.34991
2.83 -0.33867
2.84 -0.334789
2.85 -0.33873
2.86 -0.351116
2.87 -0.372085
2.88 -0.400023
2.89 -0.43449
2.9 -0.472624
2.91 -0.512518
2.92 -0.551449
2.93 -0.587173
2.94 -0.616674
2.95 -0.638896
2.96 -0.651292
2.97 -0.653839
2.98 -0.646171
2.99 -0.628501
3 -0.602977
3.01 -0.570401
3.02 -0.534142
3.03 -0.49649
3.04 -0.460509
3.05 -0.428628
3.06 -0.404118
3.07 -0.387909
3.08 -0.382599
3.09 -0.387939
3.1 -0.40407
3.11 -0.430467
3.12 -0.464658
3.13 -0.505467
3.14 -0.549317
3.15 -0.593666
3.16 -0.635363
3.17 -0.672044
3.18 -0.700507
3.19 -0.720204
3.2 -0.72891
3.21 -0.727415
3.22 -0.716151
3.23 -0.696387
3.24 -0.670983
3.25 -0.642159
3.26 -0.61352
3.27 -0.588271
3.28 -0.569684
3.29 -0.559952
3.3 -0.56249
3.31 -0.576932
3.32 -0.605288
3.33 -0.645717
3.34 -0.696969
3.35 -0.756719
3.36 -0.821189
3.37 -0.88687
3.38 -0.949594
3.39 -1.00518
3.4 -1.04988
3.41 -1.08143
3.42 -1.09593
3.43 -1.09462
3.44 -1.07557
3.45 -1.04177
3.46 -0.995328
3.47 -0.939737
3.48 -0.87987
3.49 -0.820549
3.5 -0.766599
3.51 -0.723045
3.52 -0.693848
3.53 -0.680914
3.54 -0.687636
3.55 -0.71111
3.56 -0.751259
3.57 -0.802387
3.58 -0.85915
3.59 -0.913435
3.6 -0.957633
3.61 -0.979048
3.62 -0.971129
3.63 -0.921742
3.64 -0.822425
3.65 -0.668822
3.66 -0.448716
3.67 -0.168177
3.68 0.18093
3.69 0.589622
3.7 1.0534
3.71 1.56459
3.72 2.10779
3.73 2.67245
3.74 3.23989
3.75 3.79393
3.76 4.3164
3.77 4.79356
3.78 5.20251
3.79 5.53934
3.8 5.78263
3.81 5.93191
3.82 5.98083
3.83 5.92369
3.84 5.77359
3.85 5.52143
3.86 5.19076
3.87 4.78589
3.88 4.3234
3.89 3.81991
3.9 3.28906
3.91 2.74964
3.92 2.2168
3.93 1.70468
3.94 1.22531
3.95 0.791382
3.96 0.40502
3.97 0.079875
3.98 -0.190662
3.99 -0.402052
4 -0.558565
4.01 -0.66707
4.02 -0.729186
4.03 -0.757959
4.04 -0.757272
4.05 -0.737946
4.06 -0.706854
4.07 -0.671237
4.08 -0.636917
4.09 -0.609475
4.1 -0.591209
4.11 -0.584787
4.12 -0.590553
4.13 -0.607334
4.14 -0.634494
4.15 -0.668341
4.16 -0.70663
4.17 -0.745637
4.18 -0.782338
4.19 -0.813294
4.2 -0.836774
4.21 -0.849186
4.22 -0.85072
4.23 -0.839681
4.24 -0.816234
4.25 -0.781404
4.26 -0.734963
4.27 -0.679686
4.28 -0.616021
4.29 -0.546376
4.3 -0.472172
4.31 -0.394891
4.32 -0.31605
4.33 -0.236646
4.34 -0.157613
4.35 -0.0796071
4.36 -0.00309976
4.37 0.0716803
4.38 0.144223
4.39 0.214561
4.4 0.282034
4.41 0.346394
4.42 0.407001
4.43 0.462819
4.44 0.513514
4.45 0.557038
4.46 0.593312
4.47 0.620623
4.48 0.638079
4.49 0.645396
4.5 0.640712
4.51 0.62534
4.52 0.597918
4.53 0.559892
4.54 0.511823
4.55 0.454526
4.56 0.390258
4.57 0.319742
4.58 0.245662
4.59 0.169518
4.6 0.093312
4.61 0.0185745
4.62 -0.0528551
4.63 -0.120304
4.64 -0.182354
4.65 -0.238932
4.66 -0.289798
4.67 -0.334866
4.68 -0.375125
4.69 -0.41049
4.7 -0.442412
4.71 -0.471385
4.72 -0.498326
4.73 -0.523971
4.74 -0.548793
4.75 -0.573238
4.76 -0.597404
4.77 -0.621244
4.78 -0.644509
4.79 -0.666718
4.8 -0.687521
4.81 -0.706055
4.82 -0.722114
4.83 -0.735048
4.84 -0.74459
4.85 -0.750789
4.86 -0.753339
4.87 -0.752995
4.88 -0.749884
4.89 -0.744914
4.9 -0.738786
4.91 -0.732388
4.92 -0.726518
4.93 -0.722169
4.94 -0.719803
4.95 -0.72009
4.96 -0.723315
4.97 -0.729413
4.98 -0.738572
4.99 -0.750066
5 -0.76367
5.01 -0.778558
5.02 -0.794101
5.03 -0.809554
5.04 -0.824353
5.05 -0.83779
5.06 -0.849684
5.07 -0.859707
5.08 -0.867872
5.09 -0.874395
5.1 -0.879379
5.11 -0.88334
5.12 -0.886485
5.13 -0.889137
5.14 -0.891376
5.15 -0.893033
5.16 -0.893798
5.17 -0.89268
5.18 -0.888869
5.19 -0.880763
5.2 -0.866643
5.21 -0.845124
5.22 -0.813101
5.23 -0.770163
5.24 -0.713055
5.25 -0.641462
5.26 -0.554278
5.27 -0.450369
5.28 -0.331809
5.29 -0.197417
5.3 -0.051323
5.31 0.104834
5.32 0.267156
5.33 0.431653
5.34 0.593428
5.35 0.748297
5.36 0.890253
5.37 1.01543
5.38 1.11952
5.39 1.19732
5.4 1.24895
5.41 1.26778
5.42 1.25743
5.43 1.21558
5.44 1.14423
5.45 1.04703
5.46 0.924693
5.47 0.784484
5.48 0.629008
5.49 0.464804
5.5 0.296654
5.51 0.130079
5.52 -0.0307755
5.53 -0.180151
5.54 -0.316154
5.55 -0.435059
5.56 -0.535284
5.57 -0.617063
5.58 -0.67828
5.59 -0.722554
5.6 -0.749343
5.61 -0.762266
5.62 -0.763456
5.63 -0.755274
5.64 -0.741068
5.65 -0.722557
5.66 -0.702378
5.67 -0.681929
5.68 -0.66236
5.69 -0.644087
5.7 -0.62723
5.71 -0.611111
5.72 -0.594888
5.73 -0.577362
5.74 -0.557314
5.75 -0.533218
5.76 -0.50452
5.77 -0.469544
5.78 -0.428762
5.79 -0.381748
5.8 -0.32922
5.81 -0.272426
5.82 -0.212576
5.83 -0.151874
5.84 -0.0924695
5.85 -0.0366602
5.86 0.0133401
5.87 0.0548209
5.88 0.0869718
5.89 0.106529
5.9 0.11421
5.91 0.108551
5.92 0.089868
5.93 0.0594364
5.94 0.0171524
5.95 -0.0338763
5.96 -0.0927715
5.97 -0.156678
5.98 -0.223573
5.99 -0.291178
6 -0.357605
6.01 -0.4207
6.02 -0.479564
6.03 -0.532923
6.04 -0.580314
6.05 -0.621976
6.06 -0.65756
6.07 -0.688482
6.08 -0.715045
6.09 -0.738649
6.1 -0.76024
6.11 -0.780823
6.12 -0.80127
6.13 -0.822269
6.14 -0.844101
6.15 -0.866909
6.16 -0.89046
6.17 -0.914317
6.18 -0.937803
6.19 -0.960267
6.2 -0.980782
6.21 -0.998771
6.22 -1.01368
6.23 -1.02497
6.24 -1.03294
6.25 -1.03727
6.26 -1.0389
6.27 -1.03831
6.28 -1.03641
6.29 -1.03411
6.3 -1.03231
6.31 -1.03153
6.32 -1.03222
6.33 -1.0341
6.34 -1.03651
6.35 -1.03795
6.36 -1.03668
6.37 -1.02918
6.38 -1.01295
6.39 -0.983509
6.4 -0.936471
6.41 -0.868813
6.42 -0.773048
6.43 -0.649162
6.44 -0.489939
6.45 -0.295438
6.46 -0.0638524
6.47 0.206973
6.48 0.511733
6.49 0.852911
6.5 1.22121
6.51 1.61316
6.52 2.02057
6.53 2.43497
6.54 2.84655
6.55 3.24625
6.56 3.62192
6.57 3.96496
6.58 4.26611
6.59 4.51366
6.6 4.70675
6.61 4.82995
6.62 4.88891
6.63 4.87657
6.64 4.79417
6.65 4.64762
6.66 4.43379
6.67 4.16752
6.68 3.84994
6.69 3.49422
6.7 3.10903
6.71 2.70425
6.72 2.29133
6.73 1.88028
6.74 1.48025
6.75 1.10036
6.76 0.748174
6.77 0.427471
6.78 0.147111
6.79 -0.0957784
6.8 -0.295148
6.81 -0.454652
6.82 -0.575397
6.83 -0.658394
6.84 -0.710989
6.85 -0.733
6.86 -0.733213
6.87 -0.714511
6.88 -0.682228
6.89 -0.641105
6.9 -0.594534
6.91 -0.546441
6.92 -0.499447
6.93 -0.455606
6.94 -0.416266
6.95 -0.382592
6.96 -0.354273
6.97 -0.332126
6.98 -0.314981
6.99 -0.302763
7 -0.294827
7.01 -0.290485
7.02 -0.289763
7.03 -0.291976
7.04 -0.297481
7.05 -0.306192
7.06 -0.318426
7.07 -0.334814
7.08 -0.355296
7.09 -0.380982
7.1 -0.411445
7.11 -0.447162
7.12 -0.487922
7.13 -0.533087
7.14 -0.582448
7.15 -0.634551
7.16 -0.688539
7.17 -0.742876
7.18 -0.796217
7.19 -0.84688
7.2 -0.893895
7.21 -0.935272
7.22 -0.970777
7.23 -0.999277
7.24 -1.02049
7.25 -1.03488
7.26 -1.04203
7.27 -1.04365
7.28 -1.04011
7.29 -1.03311
7.3 -1.0239
7.31 -1.01389
7.32 -1.00432
7.33 -0.996458
7.34 -0.990828
7.35 -0.987948
7.36 -0.987691
7.37 -0.989402
7.38 -0.992146
7.39 -0.994375
7.4 -0.994095
7.41 -0.989259
7.42 -0.977668
7.43 -0.956333
7.44 -0.924276
7.45 -0.877489
7.46 -0.816324
7.47 -0.738562
7.48 -0.64383
7.49 -0.533225
7.5 -0.405688
7.51 -0.264992
7.52 -0.111751
7.53 0.0501611
7.54 0.217713
7.55 0.387083
7.56 0.554506
7.57 0.715126
7.58 0.865888
7.59 1.00239
7.6 1.12113
7.61 1.22052
7.62 1.29545
7.63 1.34772
7.64 1.37346
7.65 1.37443
7.66 1.35094
7.67 1.30295
7.68 1.23474
7.69 1.14565
7.7 1.0412
7.71 0.923207
7.72 0.79539
7.73 0.661409
7.74 0.524373
7.75 0.387849
7.76 0.255137
7.77 0.128951
7.78 0.0117173
7.79 -0.0936185
7.8 -0.186731
7.81 -0.264089
7.82 -0.326851
7.83 -0.373401
7.84 -0.403837
7.85 -0.419413
7.86 -0.419066
7.87 -0.406026
7.88 -0.380176
7.89 -0.344278
7.9 -0.300127
7.91 -0.249716
7.92 -0.195852
7.93 -0.1407
7.94 -0.0868672
7.95 -0.036759
7.96 0.00723894
7.97 0.0436567
7.98 0.0695309
7.99 0.0849873
8 0.0876908
8.01 0.0780225
8.02 0.055846
8.03 0.0209135
8.04 -0.0245931
8.05 -0.080942
8.06 -0.145043
8.07 -0.215611
8.08 -0.290274
8.09 -0.366789
8.1 -0.442893
8.11 -0.516695
8.12 -0.586033
8.13 -0.649691
8.14 -0.706632
8.15 -0.755768
8.16 -0.797804
8.17 -0.831911
8.18 -0.859841
8.19 -0.882134
8.2 -0.900235
8.21 -0.915665
8.22 -0.929673
8.23 -0.943638
8.24 -0.958544
8.25 -0.974894
8.26 -0.992732
8.27 -1.01153
8.28 -1.03014
8.29 -1.04649
8.3 -1.0585
8.31 -1.06304
8.32 -1.05663
8.33 -1.03677
8.34 -0.9977
8.35 -0.938838
8.36 -0.854584
8.37 -0.744243
8.38 -0.606124
8.39 -0.437789
8.4 -0.242829
8.41 -0.0185383
8.42 0.228624
8.43 0.496761
8.44 0.780487
8.45 1.07371
8.46 1.37028
8.47 1.6631
8.48 1.94422
8.49 2.20691
8.5 2.44459
8.51 2.64865
8.52 2.81768
8.53 2.94085
8.54 3.02078
8.55 3.0522
8.56 3.03481
8.57 2.97223
8.58 2.86095
8.59 2.71091
8.6 2.52188
8.61 2.30233
8.62 2.05789
8.63 1.79451
8.64 1.52049
8.65 1.24176
8.66 0.965515
8.67 0.697782
8.68 0.444332
8.69 0.208399
8.7 -0.00359148
8.71 -0.192475
8.72 -0.353741
8.73 -0.488785
8.74 -0.597871
8.75 -0.680857
8.76 -0.742408
8.77 -0.781926
8.78 -0.805268
8.79 -0.814369
8.8 -0.812974
8.81 -0.804709
8.82 -0.792241
8.83 -0.778832
8.84 -0.766867
8.85 -0.758303
8.86 -0.754533
8.87 -0.756933
8.88 -0.765263
8.89 -0.780508
8.9 -0.801383
8.91 -0.827602
8.92 -0.858055
8.93 -0.891428
8.94 -0.926663
8.95 -0.962284
8.96 -0.997083
8.97 -1.02997
8.98 -1.06007
8.99 -1.08642
9 -1.10899
9.01 -1.12687
9.02 -1.14065
9.03 -1.15019
9.04 -1.15587
9.05 -1.15836
9.06 -1.15783
9.07 -1.1552
9.08 -1.15073
9.09 -1.14498
9.1 -1.13821
9.11 -1.13049
9.12 -1.12186
9.13 -1.11189
9.14 -1.10032
9.15 -1.08644
9.16 -1.06948
9.17 -1.04893
9.18 -1.02337
9.19 -0.992752
9.2 -0.955786
9.21 -0.912418
9.22 -0.862413
9.23 -0.805425
9.24 -0.742568
9.25 -0.673698
9.26 -0.600652
9.27 -0.524457
9.28 -0.446929
9.29 -0.369836
9.3 -0.295534
9.31 -0.225604
9.32 -0.162662
9.33 -0.108174
9.34 -0.0636667
9.35 -0.0311878
9.36 -0.0102011
9.37 -0.00301343
9.38 -0.007763
9.39 -0.0247418
9.4 -0.0527139
9.41 -0.0896275
9.42 -0.134539
9.43 -0.184296
9.44 -0.237128
9.45 -0.290365
9.46 -0.341891
9.47 -0.38927
9.48 -0.43134
9.49 -0.465689
9.5 -0.492364
9.51 -0.510381
9.52 -0.519844
9.53 -0.521775
9.54 -0.516269
9.55 -0.505625
9.56 -0.49085
9.57 -0.474066
9.58 -0.456951
9.59 -0.44143
9.6 -0.428752
9.61 -0.420833
9.62 -0.418042
9.63 -0.421322
9.64 -0.430871
9.65 -0.446139
9.66 -0.467315
9.67 -0.492825
9.68 -0.52219
9.69 -0.553995
9.7 -0.587206
9.71 -0.620742
9.72 -0.653753
9.73 -0.685388
9.74 -0.715378
9.75 -0.743415
9.76 -0.76953
9.77 -0.794018
9.78 -0.816973
9.79 -0.838861
9.8 -0.859693
9.81 -0.87943
9.82 -0.897651
9.83 -0.913254
9.84 -0.925248
9.85 -0.930859
9.86 -0.928362
9.87 -0.914256
9.88 -0.884857
9.89 -0.837813
9.9 -0.766367
9.91 -0.670368
9.92 -0.543295
9.93 -0.384294
9.94 -0.191453
9.95 0.0385339
9.96 0.30141
9.97 0.600839
9.98 0.929365
9.99 1.28499
10 1.66163
10.01 2.05187
10.02 2.44875
10.03 2.84325
10.04 3.22591
10.05 3.58801
10.06 3.92135
10.07 4.21479
10.08 4.46608
10.09 4.66157
10.1 4.80354
10.11 4.88522
10.12 4.90534
10.13 4.86826
10.14 4.76867
10.15 4.61891
10.16 4.4182
10.17 4.17676
10.18 3.9015
10.19 3.5993
10.2 3.28075
10.21 2.95251
10.22 2.62376
10.23 2.3015
10.24 1.99268
10.25 1.70124
10.26 1.4343
10.27 1.1912
10.28 0.976524
10.29 0.788813
10.3 0.627414
10.31 0.492205
10.32 0.378079
10.33 0.285116
10.34 0.207343
10.35 0.142503
10.36 0.0868754
10.37 0.0369864
10.38 -0.00961829
10.39 -0.0556683
10.4 -0.103002
10.41 -0.152923
10.42 -0.206169
10.43 -0.263298
10.44 -0.323757
10.45 -0.387534
10.46 -0.453451
10.47 -0.520746
10.48 -0.588286
10.49 -0.655101
10.5 -0.719923
10.51 -0.78214
10.52 -0.840603
10.53 -0.894851
10.54 -0.944391
10.55 -0.988454
10.56 -1.02738
10.57 -1.06012
10.58 -1.08731
10.59 -1.10844
10.6 -1.12348
10.61 -1.13277
10.62 -1.1355
10.63 -1.13259
10.64 -1.12339
10.65 -1.10844
10.66 -1.08791
10.67 -1.06179
10.68 -1.03107
10.69 -0.995657
10.7 -0.956822
10.71 -0.915128
10.72 -0.871605
10.73 -0.827307
10.74 -0.783387
10.75 -0.740867
10.76 -0.70105
10.77 -0.664856
10.78 -0.633147
10.79 -0.607116
10.8 -0.586693
10.81 -0.573245
10.82 -0.566128
10.83 -0.565785
10.84 -0.572009
10.85 -0.584033
10.86 -0.602074
10.87 -0.62468
10.88 -0.651672
10.89 -0.681958
10.9 -0.714801
10.91 -0.749506
10.92 -0.785195
10.93 -0.821274
10.94 -0.857084
10.95 -0.892098
10.96 -0.925815
10.97 -0.957972
10.98 -0.987975
10.99 -1.01586
11 -1.04115
11.01 -1.0638
11.02 -1.08371
11.03 -1.10058
11.04 -1.11471
11.05 -1.1257
11.06 -1.13403
11.07 -1.13969
11.08 -1.14295
11.09 -1.14429
11.1 -1.14392
11.11 -1.14252
11.12 -1.14051
11.13 -1.13844
11.14 -1.13672
11.15 -1.13577
11.16 -1.13566
11.17 -1.13648
11.18 -1.13777
11.19 -1.13897
11.2 -1.13898
11.21 -1.13669
11.22 -1.12983
11.23 -1.11713
11.24 -1.09555
11.25 -1.06311
11.26 -1.01755
11.27 -0.955296
11.28 -0.876217
11.29 -0.775622
11.3 -0.654806
11.31 -0.511742
11.32 -0.346451
11.33 -0.161212
11.34 0.0448184
11.35 0.266221
11.36 0.501339
11.37 0.744869
11.38 0.992262
11.39 1.23776
11.4 1.47641
11.41 1.70073
11.42 1.9068
11.43 2.08835
11.44 2.24024
11.45 2.36097
11.46 2.44272
11.47 2.48914
11.48 2.49515
11.49 2.4637
11.5 2.39639
11.51 2.29369
11.52 2.16289
11.53 2.00437
11.54 1.82652
11.55 1.63318
11.56 1.43029
11.57 1.22334
11.58 1.01757
11.59 0.817211
11.6 0.626918
11.61 0.449379
11.62 0.286685
11.63 0.141485
11.64 0.0123351
11.65 -0.09847
11.66 -0.194086
11.67 -0.274958
11.68 -0.34315
11.69 -0.401517
11.7 -0.451303
11.71 -0.49589
11.72 -0.536776
11.73 -0.576072
11.74 -0.615095
11.75 -0.654914
11.76 -0.695892
11.77 -0.738237
11.78 -0.78135
11.79 -0.824487
11.8 -0.866396
11.81 -0.905913
11.82 -0.940919
11.83 -0.970496
11.84 -0.992354
11.85 -1.00539
11.86 -1.00841
11.87 -0.999442
11.88 -0.979068
11.89 -0.944847
11.9 -0.898171
11.91 -0.83825
11.92 -0.765387
11.93 -0.681019
11.94 -0.584474
11.95 -0.478527
11.96 -0.36339
11.97 -0.24124
11.98 -0.113709
11.99 0.0174647
12 0.15001
12.01 0.281767
12.02 0.410576
12.03 0.534051
12.04 0.649686
12.05 0.756021
12.06 0.849278
12.07 0.929426
12.08 0.993131
12.09 1.03991
12.1 1.06892
12.11 1.0782
12.12 1.06989
12.13 1.04166
12.14 0.996794
12.15 0.935585
12.16 0.860007
12.17 0.773113
12.18 0.676246
12.19 0.573522
12.2 0.467216
12.21 0.360609
12.22 0.256274
12.23 0.157194
12.24 0.0647267
12.25 -0.0182421
12.26 -0.0917088
12.27 -0.154536
12.28 -0.206709
12.29 -0.249503
12.3 -0.282805
12.31 -0.309402
12.32 -0.330331
12.33 -0.348026
12.34 -0.364386
12.35 -0.38148
12.36 -0.400769
12.37 -0.424065
12.38 -0.45176
12.39 -0.484449
12.4 -0.521901
