# xPDFsuite Configuration #
[PDF]
wavelength = 0.1432
dataformat = twotheta
inputfile = 1_1Pd_CeO2_cycle-00317.chi
backgroundfile = background-00000.chi
mode = xray
bgscale = 1.007
composition = CeO2
outputtype = gr
qmaxinst = 28.8974762299
qmin = 0.5
qmax = 27.9
rmax = 50.0
rmin = 0.0
rstep = 0.01
rpoly = 1.8657

[Misc]
inputdir = G:/SankarDec16/1Pd/Chi
savedir = D:/DATA/APS_CeO2/1Pd
backgroundfilefull = G:/SankarDec16/Background/background-00000.chi

#### start data
#S 1
#L r($\AA$)  G($\AA^{-2}$)
0 0
0.01 -0.0068299
0.02 -0.013145
0.03 -0.0184152
0.04 -0.0222414
0.05 -0.0244014
0.06 -0.0245383
0.07 -0.0228901
0.08 -0.0193423
0.09 -0.0143489
0.1 -0.00822447
0.11 -0.00144988
0.12 0.00545043
0.13 0.011888
0.14 0.0174462
0.15 0.0216149
0.16 0.0240957
0.17 0.0247697
0.18 0.023394
0.19 0.0203188
0.2 0.0155587
0.21 0.0096433
0.22 0.00296414
0.23 -0.0039386
0.24 -0.0105715
0.25 -0.0163006
0.26 -0.0208275
0.27 -0.0236866
0.28 -0.0246945
0.29 -0.0238413
0.3 -0.0210102
0.31 -0.0166471
0.32 -0.010895
0.33 -0.00433402
0.34 0.0025861
0.35 0.00929147
0.36 0.0153436
0.37 0.0200934
0.38 0.023375
0.39 0.0247901
0.4 0.0242792
0.41 0.0219424
0.42 0.017795
0.43 0.0123573
0.44 0.00589409
0.45 -0.000991395
0.46 -0.0078129
0.47 -0.01399
0.48 -0.0191606
0.49 -0.0226919
0.5 -0.0245586
0.51 -0.0244494
0.52 -0.0224319
0.53 -0.0187121
0.54 -0.0134368
0.55 -0.00717637
0.56 -0.000304809
0.57 0.0065801
0.58 0.0129792
0.59 0.0183331
0.6 0.0223741
0.61 0.0245162
0.62 0.0248765
0.63 0.0232461
0.64 0.0198172
0.65 0.0148917
0.66 0.00874224
0.67 0.0019614
0.68 -0.00498508
0.69 -0.0115335
0.7 -0.0171961
0.71 -0.0214613
0.72 -0.0241691
0.73 -0.0248086
0.74 -0.0236342
0.75 -0.020549
0.76 -0.0158609
0.77 -0.00995264
0.78 -0.00320864
0.79 0.00378528
0.8 0.0104962
0.81 0.0164226
0.82 0.0211137
0.83 0.0241326
0.84 0.0254356
0.85 0.0246154
0.86 0.0220501
0.87 0.0177618
0.88 0.0121578
0.89 0.00568144
0.9 -0.00119158
0.91 -0.00791637
0.92 -0.0139249
0.93 -0.01881
0.94 -0.02219
0.95 -0.0237372
0.96 -0.0235349
0.97 -0.0213231
0.98 -0.0175903
0.99 -0.0124985
1 -0.00654817
1.01 -0.000229225
1.02 0.00588961
1.03 0.0113414
1.04 0.0155293
1.05 0.0181757
1.06 0.0189901
1.07 0.0177817
1.08 0.0147884
1.09 0.00992957
1.1 0.0038286
1.11 -0.00317721
1.12 -0.0104618
1.13 -0.0174611
1.14 -0.0234528
1.15 -0.0280347
1.16 -0.0305005
1.17 -0.0306784
1.18 -0.0283107
1.19 -0.0232715
1.2 -0.0159544
1.21 -0.00632626
1.22 0.00480175
1.23 0.0169946
1.24 0.0294892
1.25 0.0416128
1.26 0.0525076
1.27 0.0617035
1.28 0.0683523
1.29 0.0722275
1.3 0.0729763
1.31 0.070356
1.32 0.0647537
1.33 0.0559136
1.34 0.0446992
1.35 0.0313743
1.36 0.0166485
1.37 0.00117553
1.38 -0.0143618
1.39 -0.0293497
1.4 -0.0430897
1.41 -0.0551828
1.42 -0.0652164
1.43 -0.0728196
1.44 -0.0781064
1.45 -0.0806445
1.46 -0.0809254
1.47 -0.0788905
1.48 -0.0748595
1.49 -0.069162
1.5 -0.0619537
1.51 -0.053701
1.52 -0.0445482
1.53 -0.0348273
1.54 -0.024719
1.55 -0.0144039
1.56 -0.00403541
1.57 0.00624412
1.58 0.0163227
1.59 0.0260477
1.6 0.0352636
1.61 0.0438254
1.62 0.0514219
1.63 0.057951
1.64 0.0629878
1.65 0.0663906
1.66 0.0678717
1.67 0.0671118
1.68 0.0641838
1.69 0.0586053
1.7 0.0507757
1.71 0.0405858
1.72 0.0283522
1.73 0.0144712
1.74 -0.000724509
1.75 -0.0165663
1.76 -0.0325198
1.77 -0.0479466
1.78 -0.0622745
1.79 -0.0748704
1.8 -0.0855145
1.81 -0.0935091
1.82 -0.0990934
1.83 -0.102043
1.84 -0.102632
1.85 -0.10127
1.86 -0.0983018
1.87 -0.094494
1.88 -0.0904313
1.89 -0.0868343
1.9 -0.0843171
1.91 -0.0835285
1.92 -0.0846652
1.93 -0.0883342
1.94 -0.0941924
1.95 -0.102274
1.96 -0.112092
1.97 -0.123039
1.98 -0.134385
1.99 -0.145267
2 -0.154637
2.01 -0.161677
2.02 -0.165513
2.03 -0.165204
2.04 -0.160658
2.05 -0.150731
2.06 -0.136098
2.07 -0.116421
2.08 -0.0922119
2.09 -0.0641575
2.1 -0.0326404
2.11 0.00113579
2.12 0.0365876
2.13 0.0727223
2.14 0.108872
2.15 0.14439
2.16 0.178977
2.17 0.21225
2.18 0.244423
2.19 0.275604
2.2 0.306227
2.21 0.336756
2.22 0.367786
2.23 0.399719
2.24 0.433089
2.25 0.467983
2.26 0.504402
2.27 0.542041
2.28 0.580209
2.29 0.617897
2.3 0.653942
2.31 0.686724
2.32 0.714566
2.33 0.736117
2.34 0.748794
2.35 0.752336
2.36 0.744195
2.37 0.724537
2.38 0.692716
2.39 0.648418
2.4 0.593526
2.41 0.527642
2.42 0.454122
2.43 0.374382
2.44 0.291297
2.45 0.207486
2.46 0.126016
2.47 0.0490828
2.48 -0.0201553
2.49 -0.0803156
2.5 -0.12978
2.51 -0.167152
2.52 -0.193449
2.53 -0.207258
2.54 -0.211463
2.55 -0.206731
2.56 -0.195512
2.57 -0.180232
2.58 -0.163294
2.59 -0.147245
2.6 -0.134626
2.61 -0.127147
2.62 -0.126325
2.63 -0.133444
2.64 -0.147975
2.65 -0.170829
2.66 -0.199882
2.67 -0.234321
2.68 -0.27204
2.69 -0.310995
2.7 -0.348836
2.71 -0.383715
2.72 -0.413231
2.73 -0.436289
2.74 -0.451768
2.75 -0.458851
2.76 -0.458513
2.77 -0.450319
2.78 -0.436685
2.79 -0.418786
2.8 -0.398926
2.81 -0.379198
2.82 -0.362116
2.83 -0.349235
2.84 -0.342909
2.85 -0.34382
2.86 -0.352752
2.87 -0.37006
2.88 -0.394354
2.89 -0.425456
2.9 -0.460667
2.91 -0.498301
2.92 -0.535765
2.93 -0.570864
2.94 -0.600719
2.95 -0.624127
2.96 -0.638576
2.97 -0.643844
2.98 -0.639426
2.99 -0.625346
3 -0.603533
3.01 -0.57457
3.02 -0.541643
3.03 -0.506839
3.04 -0.47308
3.05 -0.442727
3.06 -0.418906
3.07 -0.402648
3.08 -0.396491
3.09 -0.40034
3.1 -0.414436
3.11 -0.438396
3.12 -0.46994
3.13 -0.508059
3.14 -0.549354
3.15 -0.591451
3.16 -0.631343
3.17 -0.666742
3.18 -0.694588
3.19 -0.714277
3.2 -0.723659
3.21 -0.723419
3.22 -0.713925
3.23 -0.69635
3.24 -0.673395
3.25 -0.647162
3.26 -0.62109
3.27 -0.598239
3.28 -0.581743
3.29 -0.573705
3.3 -0.577387
3.31 -0.592436
3.32 -0.620753
3.33 -0.660546
3.34 -0.710577
3.35 -0.768553
3.36 -0.83082
3.37 -0.893906
3.38 -0.953809
3.39 -1.00644
3.4 -1.04819
3.41 -1.07692
3.42 -1.08884
3.43 -1.0853
3.44 -1.06448
3.45 -1.0294
3.46 -0.982264
3.47 -0.926594
3.48 -0.867215
3.49 -0.809028
3.5 -0.756726
3.51 -0.715322
3.52 -0.688677
3.53 -0.678584
3.54 -0.688342
3.55 -0.714897
3.56 -0.758036
3.57 -0.811931
3.58 -0.871104
3.59 -0.927288
3.6 -0.972824
3.61 -0.994816
3.62 -0.986756
3.63 -0.936407
3.64 -0.835318
3.65 -0.679198
3.66 -0.455817
3.67 -0.171437
3.68 0.182017
3.69 0.595359
3.7 1.06393
3.71 1.57985
3.72 2.12757
3.73 2.69628
3.74 3.26719
3.75 3.82395
3.76 4.34828
3.77 4.82643
3.78 5.23536
3.79 5.57133
3.8 5.81287
3.81 5.95973
3.82 6.00568
3.83 5.9452
3.84 5.79164
3.85 5.53608
3.86 5.2023
3.87 4.79481
3.88 4.33036
3.89 3.82564
3.9 3.29446
3.91 2.75551
3.92 2.224
3.93 1.71388
3.94 1.23707
3.95 0.806057
3.96 0.422726
3.97 0.100466
3.98 -0.167561
3.99 -0.377082
4 -0.53258
4.01 -0.641037
4.02 -0.704311
4.03 -0.735337
4.04 -0.738119
4.05 -0.723281
4.06 -0.697564
4.07 -0.668002
4.08 -0.640105
4.09 -0.619169
4.1 -0.607158
4.11 -0.606406
4.12 -0.616942
4.13 -0.637398
4.14 -0.666773
4.15 -0.701434
4.16 -0.738888
4.17 -0.775568
4.18 -0.808522
4.19 -0.83445
4.2 -0.85198
4.21 -0.857714
4.22 -0.852289
4.23 -0.83434
4.24 -0.804421
4.25 -0.763847
4.26 -0.712809
4.27 -0.654156
4.28 -0.588667
4.29 -0.518702
4.3 -0.4457
4.31 -0.371102
4.32 -0.296113
4.33 -0.221641
4.34 -0.148162
4.35 -0.0760503
4.36 -0.00538133
4.37 0.0639402
4.38 0.131828
4.39 0.198482
4.4 0.263607
4.41 0.327
4.42 0.388111
4.43 0.445946
4.44 0.499921
4.45 0.547986
4.46 0.589633
4.47 0.622919
4.48 0.64657
4.49 0.659965
4.5 0.660824
4.51 0.650224
4.52 0.626401
4.53 0.59067
4.54 0.54343
4.55 0.485353
4.56 0.418877
4.57 0.344598
4.58 0.265592
4.59 0.183493
4.6 0.10064
4.61 0.0188936
4.62 -0.0595554
4.63 -0.133711
4.64 -0.201776
4.65 -0.263443
4.66 -0.318239
4.67 -0.365838
4.68 -0.40729
4.69 -0.442258
4.7 -0.472469
4.71 -0.49842
4.72 -0.521246
4.73 -0.541948
4.74 -0.5612
4.75 -0.5798
4.76 -0.598113
4.77 -0.616379
4.78 -0.634593
4.79 -0.652538
4.8 -0.669935
4.81 -0.686202
4.82 -0.701033
4.83 -0.713874
4.84 -0.724384
4.85 -0.732476
4.86 -0.737795
4.87 -0.740824
4.88 -0.741576
4.89 -0.740713
4.9 -0.73876
4.91 -0.736403
4.92 -0.734305
4.93 -0.733257
4.94 -0.73368
4.95 -0.736129
4.96 -0.740854
4.97 -0.74782
4.98 -0.757164
4.99 -0.768298
5 -0.780995
5.01 -0.794562
5.02 -0.808448
5.03 -0.822
5.04 -0.834761
5.05 -0.846098
5.06 -0.855914
5.07 -0.863946
5.08 -0.870257
5.09 -0.875092
5.1 -0.878601
5.11 -0.881283
5.12 -0.883376
5.13 -0.885182
5.14 -0.886779
5.15 -0.888001
5.16 -0.888506
5.17 -0.887328
5.18 -0.883624
5.19 -0.875806
5.2 -0.862153
5.21 -0.841272
5.22 -0.81008
5.23 -0.768141
5.24 -0.712216
5.25 -0.641967
5.26 -0.556273
5.27 -0.453983
5.28 -0.337128
5.29 -0.204497
5.3 -0.0601616
5.31 0.0942905
5.32 0.255026
5.33 0.418102
5.34 0.578713
5.35 0.732698
5.36 0.874138
5.37 0.999187
5.38 1.10356
5.39 1.18212
5.4 1.23493
5.41 1.2554
5.42 1.24707
5.43 1.20763
5.44 1.13897
5.45 1.04469
5.46 0.925413
5.47 0.788313
5.48 0.635896
5.49 0.474603
5.5 0.309127
5.51 0.144877
5.52 -0.014036
5.53 -0.161993
5.54 -0.297081
5.55 -0.415648
5.56 -0.516121
5.57 -0.598697
5.58 -0.661299
5.59 -0.707427
5.6 -0.736534
5.61 -0.752123
5.62 -0.756245
5.63 -0.751165
5.64 -0.740115
5.65 -0.724704
5.66 -0.70747
5.67 -0.689705
5.68 -0.672469
5.69 -0.65613
5.7 -0.640698
5.71 -0.625533
5.72 -0.609718
5.73 -0.592109
5.74 -0.571511
5.75 -0.546438
5.76 -0.516442
5.77 -0.479897
5.78 -0.437405
5.79 -0.388631
5.8 -0.334404
5.81 -0.276055
5.82 -0.214911
5.83 -0.153206
5.84 -0.0931787
5.85 -0.0371239
5.86 0.0127399
5.87 0.0537124
5.88 0.0850686
5.89 0.103582
5.9 0.110096
5.91 0.103242
5.92 0.0834605
5.93 0.0521256
5.94 0.00928096
5.95 -0.0419232
5.96 -0.100483
5.97 -0.163536
5.98 -0.229041
5.99 -0.294716
6 -0.358782
6.01 -0.419118
6.02 -0.475003
6.03 -0.52529
6.04 -0.569699
6.05 -0.608627
6.06 -0.64196
6.07 -0.671208
6.08 -0.696902
6.09 -0.7205
6.1 -0.743032
6.11 -0.765586
6.12 -0.788906
6.13 -0.813749
6.14 -0.840141
6.15 -0.868118
6.16 -0.897211
6.17 -0.926746
6.18 -0.955767
6.19 -0.983396
6.2 -1.00839
6.21 -1.02999
6.22 -1.04745
6.23 -1.06001
6.24 -1.06804
6.25 -1.07099
6.26 -1.07005
6.27 -1.06569
6.28 -1.05907
6.29 -1.05133
6.3 -1.04359
6.31 -1.03674
6.32 -1.03153
6.33 -1.02798
6.34 -1.02569
6.35 -1.02347
6.36 -1.01963
6.37 -1.01095
6.38 -0.994783
6.39 -0.966703
6.4 -0.922183
6.41 -0.857961
6.42 -0.766371
6.43 -0.647014
6.44 -0.492373
6.45 -0.302148
6.46 -0.0742167
6.47 0.193942
6.48 0.497143
6.49 0.838262
6.5 1.2079
6.51 1.60271
6.52 2.0144
6.53 2.43427
6.54 2.85238
6.55 3.25922
6.56 3.64232
6.57 3.99267
6.58 4.30062
6.59 4.55398
6.6 4.7517
6.61 4.87782
6.62 4.93801
6.63 4.92498
6.64 4.83996
6.65 4.68906
6.66 4.46918
6.67 4.19563
6.68 3.86978
6.69 3.50529
6.7 3.11128
6.71 2.69809
6.72 2.27754
6.73 1.8602
6.74 1.45535
6.75 1.07245
6.76 0.719169
6.77 0.399199
6.78 0.121513
6.79 -0.117213
6.8 -0.311047
6.81 -0.464134
6.82 -0.577968
6.83 -0.654034
6.84 -0.700085
6.85 -0.716476
6.86 -0.712234
6.87 -0.690612
6.88 -0.657132
6.89 -0.616514
6.9 -0.572336
6.91 -0.528134
6.92 -0.486473
6.93 -0.448952
6.94 -0.416561
6.95 -0.39001
6.96 -0.368562
6.97 -0.352494
6.98 -0.340347
6.99 -0.331638
7 -0.325475
7.01 -0.321137
7.02 -0.318389
7.03 -0.3169
7.04 -0.317007
7.05 -0.319054
7.06 -0.323685
7.07 -0.331954
7.08 -0.344267
7.09 -0.362242
7.1 -0.385824
7.11 -0.415931
7.12 -0.452674
7.13 -0.495528
7.14 -0.54464
7.15 -0.59829
7.16 -0.655756
7.17 -0.715157
7.18 -0.774908
7.19 -0.833015
7.2 -0.888049
7.21 -0.937657
7.22 -0.981176
7.23 -1.01709
7.24 -1.04479
7.25 -1.06453
7.26 -1.07557
7.27 -1.07974
7.28 -1.07723
7.29 -1.06993
7.3 -1.05922
7.31 -1.04669
7.32 -1.03392
7.33 -1.02236
7.34 -1.01287
7.35 -1.0062
7.36 -1.00245
7.37 -1.0011
7.38 -1.00139
7.39 -1.00174
7.4 -1.00018
7.41 -0.994561
7.42 -0.982557
7.43 -0.961026
7.44 -0.928808
7.45 -0.881706
7.46 -0.819933
7.47 -0.741125
7.48 -0.644827
7.49 -0.532138
7.5 -0.401964
7.51 -0.258236
7.52 -0.101659
7.53 0.0636829
7.54 0.234567
7.55 0.40692
7.56 0.576818
7.57 0.739103
7.58 0.890671
7.59 1.02695
7.6 1.1444
7.61 1.24152
7.62 1.31318
7.63 1.36145
7.64 1.38259
7.65 1.37868
7.66 1.35026
7.67 1.29761
7.68 1.22523
7.69 1.13279
7.7 1.0259
7.71 0.906559
7.72 0.778537
7.73 0.645406
7.74 0.510305
7.75 0.376494
7.76 0.24715
7.77 0.124665
7.78 0.0112092
7.79 -0.0905836
7.8 -0.1806
7.81 -0.255633
7.82 -0.316907
7.83 -0.36297
7.84 -0.393937
7.85 -0.410958
7.86 -0.412946
7.87 -0.402831
7.88 -0.380324
7.89 -0.347877
7.9 -0.307022
7.91 -0.259444
7.92 -0.207784
7.93 -0.153893
7.94 -0.100388
7.95 -0.0495587
7.96 -0.00384663
7.97 0.0351101
7.98 0.0642309
7.99 0.0833002
8 0.0897192
8.01 0.0835273
8.02 0.064291
8.03 0.0314092
8.04 -0.0130549
8.05 -0.0697211
8.06 -0.135399
8.07 -0.208882
8.08 -0.287661
8.09 -0.36923
8.1 -0.451113
8.11 -0.530974
8.12 -0.606272
8.13 -0.67536
8.14 -0.736818
8.15 -0.789098
8.16 -0.832784
8.17 -0.866575
8.18 -0.892384
8.19 -0.910637
8.2 -0.922951
8.21 -0.931184
8.22 -0.936813
8.23 -0.941799
8.24 -0.947561
8.25 -0.955154
8.26 -0.965098
8.27 -0.977434
8.28 -0.991197
8.29 -1.00493
8.3 -1.0164
8.31 -1.02268
8.32 -1.02016
8.33 -1.00601
8.34 -0.97428
8.35 -0.92375
8.36 -0.848415
8.37 -0.746963
8.38 -0.617198
8.39 -0.456085
8.4 -0.266942
8.41 -0.0464635
8.42 0.198842
8.43 0.467298
8.44 0.753428
8.45 1.05083
8.46 1.35323
8.47 1.65289
8.48 1.94147
8.49 2.21167
8.5 2.45639
8.51 2.66645
8.52 2.84017
8.53 2.96615
8.54 3.04704
8.55 3.0774
8.56 3.05701
8.57 2.9898
8.58 2.87244
8.59 2.71548
8.6 2.51908
8.61 2.29233
8.62 2.04131
8.63 1.77256
8.64 1.49462
8.65 1.214
8.66 0.937764
8.67 0.672128
8.68 0.42271
8.69 0.192396
8.7 -0.0126172
8.71 -0.193804
8.72 -0.34712
8.73 -0.47457
8.74 -0.576933
8.75 -0.654676
8.76 -0.712675
8.77 -0.750935
8.78 -0.775163
8.79 -0.787452
8.8 -0.791356
8.81 -0.790099
8.82 -0.786077
8.83 -0.781844
8.84 -0.779257
8.85 -0.779605
8.86 -0.783712
8.87 -0.792277
8.88 -0.804836
8.89 -0.821697
8.9 -0.841743
8.91 -0.864504
8.92 -0.889068
8.93 -0.914564
8.94 -0.940206
8.95 -0.965308
8.96 -0.989224
8.97 -1.01161
8.98 -1.03223
8.99 -1.05087
9 -1.06778
9.01 -1.08285
9.02 -1.0965
9.03 -1.10887
9.04 -1.12019
9.05 -1.13066
9.06 -1.14027
9.07 -1.14908
9.08 -1.15681
9.09 -1.16322
9.1 -1.16787
9.11 -1.17003
9.12 -1.16936
9.13 -1.16459
9.14 -1.15547
9.15 -1.14097
9.16 -1.12036
9.17 -1.0935
9.18 -1.05906
9.19 -1.01785
9.2 -0.969001
9.21 -0.913287
9.22 -0.851142
9.23 -0.783022
9.24 -0.710511
9.25 -0.634306
9.26 -0.556349
9.27 -0.478083
9.28 -0.401387
9.29 -0.327763
9.3 -0.259625
9.31 -0.197793
9.32 -0.144591
9.33 -0.100739
9.34 -0.0671653
9.35 -0.0452124
9.36 -0.0338349
9.37 -0.0345943
9.38 -0.0454138
9.39 -0.0661622
9.4 -0.095451
9.41 -0.13138
9.42 -0.172859
9.43 -0.21734
9.44 -0.263222
9.45 -0.308442
9.46 -0.351367
9.47 -0.390129
9.48 -0.42404
9.49 -0.451289
9.5 -0.47218
9.51 -0.486109
9.52 -0.493366
9.53 -0.494907
9.54 -0.491006
9.55 -0.483525
9.56 -0.47339
9.57 -0.462273
9.58 -0.451493
9.59 -0.442562
9.6 -0.436337
9.61 -0.434298
9.62 -0.436567
9.63 -0.443791
9.64 -0.455992
9.65 -0.47263
9.66 -0.493727
9.67 -0.517993
9.68 -0.544965
9.69 -0.573523
9.7 -0.60286
9.71 -0.632148
9.72 -0.660812
9.73 -0.688252
9.74 -0.714383
9.75 -0.739075
9.76 -0.762476
9.77 -0.784885
9.78 -0.806488
9.79 -0.827606
9.8 -0.848239
9.81 -0.868198
9.82 -0.886949
9.83 -0.903274
9.84 -0.916059
9.85 -0.922439
9.86 -0.920625
9.87 -0.907074
9.88 -0.878096
9.89 -0.831366
9.9 -0.76016
9.91 -0.664389
9.92 -0.537593
9.93 -0.37897
9.94 -0.186649
9.95 0.0426454
9.96 0.30468
9.97 0.603135
9.98 0.930634
9.99 1.28526
10 1.66104
10.01 2.05067
10.02 2.44735
10.03 2.84209
10.04 3.22557
10.05 3.58911
10.06 3.92448
10.07 4.22057
10.08 4.47497
10.09 4.67396
10.1 4.81962
10.11 4.90499
10.12 4.92856
10.13 4.89452
10.14 4.79725
10.15 4.64902
10.16 4.44882
10.17 4.20682
10.18 3.92993
10.19 3.62497
10.2 3.30276
10.21 2.96998
10.22 2.63617
10.23 2.30851
10.24 1.99428
10.25 1.69767
10.26 1.42619
10.27 1.17931
10.28 0.961959
10.29 0.772753
10.3 0.611127
10.31 0.477059
10.32 0.365233
10.33 0.275762
10.34 0.202325
10.35 0.142475
10.36 0.0921719
10.37 0.047638
10.38 0.00606144
10.39 -0.0355277
10.4 -0.0793088
10.41 -0.126751
10.42 -0.178734
10.43 -0.235988
10.44 -0.297817
10.45 -0.364339
10.46 -0.434074
10.47 -0.506157
10.48 -0.579203
10.49 -0.651959
10.5 -0.7229
10.51 -0.79113
10.52 -0.85522
10.53 -0.914498
10.54 -0.968295
10.55 -1.01564
10.56 -1.0569
10.57 -1.09084
10.58 -1.11823
10.59 -1.13861
10.6 -1.15199
10.61 -1.15893
10.62 -1.15866
10.63 -1.15235
10.64 -1.13944
10.65 -1.12064
10.66 -1.09625
10.67 -1.06634
10.68 -1.03201
10.69 -0.993239
10.7 -0.951321
10.71 -0.906869
10.72 -0.86094
10.73 -0.814582
10.74 -0.769016
10.75 -0.725223
10.76 -0.684576
10.77 -0.647992
10.78 -0.616358
10.79 -0.590925
10.8 -0.571582
10.81 -0.559782
10.82 -0.554802
10.83 -0.55709
10.84 -0.566381
10.85 -0.581807
10.86 -0.60351
10.87 -0.629875
10.88 -0.660585
10.89 -0.694378
10.9 -0.730364
10.91 -0.767645
10.92 -0.80528
10.93 -0.842447
10.94 -0.878522
10.95 -0.912889
10.96 -0.945076
10.97 -0.974945
10.98 -1.00194
10.99 -1.02636
11 -1.04789
11.01 -1.06675
11.02 -1.08306
11.03 -1.0968
11.04 -1.10842
11.05 -1.11781
11.06 -1.12548
11.07 -1.13153
11.08 -1.13624
11.09 -1.13995
11.1 -1.14283
11.11 -1.14526
11.12 -1.14745
11.13 -1.14964
11.14 -1.15198
11.15 -1.15451
11.16 -1.15714
11.17 -1.15959
11.18 -1.16139
11.19 -1.16179
11.2 -1.15972
11.21 -1.15421
11.22 -1.14304
11.23 -1.12529
11.24 -1.09816
11.25 -1.06006
11.26 -1.00904
11.27 -0.941935
11.28 -0.858835
11.29 -0.75547
11.3 -0.633174
11.31 -0.490104
11.32 -0.32629
11.33 -0.143829
11.34 0.0581546
11.35 0.274676
11.36 0.504324
11.37 0.742234
11.38 0.984229
11.39 1.22501
11.4 1.45988
11.41 1.68184
11.42 1.88701
11.43 2.06934
11.44 2.22371
11.45 2.34841
11.46 2.4356
11.47 2.48843
11.48 2.50156
11.49 2.47745
11.5 2.41727
11.51 2.32098
11.52 2.19555
11.53 2.04082
11.54 1.8651
11.55 1.67195
11.56 1.46726
11.57 1.25671
11.58 1.04551
11.59 0.838399
11.6 0.64027
11.61 0.454332
11.62 0.283112
11.63 0.129781
11.64 -0.00674573
11.65 -0.123617
11.66 -0.223836
11.67 -0.307543
11.68 -0.376689
11.69 -0.434263
11.7 -0.481403
11.71 -0.521965
11.72 -0.55759
11.73 -0.590857
11.74 -0.623457
11.75 -0.656893
11.76 -0.691878
11.77 -0.72906
11.78 -0.768013
11.79 -0.808236
11.8 -0.848577
11.81 -0.887771
11.82 -0.923757
11.83 -0.955254
11.84 -0.979826
11.85 -0.996007
11.86 -1.0023
11.87 -0.996409
11.88 -0.978667
11.89 -0.94632
11.9 -0.900694
11.91 -0.84088
11.92 -0.767198
11.93 -0.681244
11.94 -0.582448
11.95 -0.473919
11.96 -0.356128
11.97 -0.231586
11.98 -0.102209
11.99 0.0299187
12 0.162425
12.01 0.292836
12.02 0.419095
12.03 0.538788
12.04 0.649563
12.05 0.750254
12.06 0.837335
12.07 0.911217
12.08 0.968981
12.09 1.01058
12.1 1.03551
12.11 1.04231
12.12 1.03319
12.13 1.00625
12.14 0.964614
12.15 0.908618
12.16 0.840049
12.17 0.761569
12.18 0.674275
12.19 0.581671
12.2 0.48557
12.21 0.388691
12.22 0.293128
12.23 0.201271
12.24 0.114292
12.25 0.0344815
12.26 -0.038056
12.27 -0.10237
12.28 -0.158367
12.29 -0.206973
12.3 -0.248
12.31 -0.283576
12.32 -0.314411
12.33 -0.342349
12.34 -0.368817
12.35 -0.395328
12.36 -0.423028
12.37 -0.453182
12.38 -0.486107
12.39 -0.522154
12.4 -0.561037
12.41 -0.601899
12.42 -0.643683
