# xPDFsuite Configuration #
[PDF]
wavelength = 0.1432
dataformat = twotheta
inputfile = 1_1Pd_CeO2_cycle-00147.chi
backgroundfile = background-00000.chi
mode = xray
bgscale = 1.007
composition = CeO2
outputtype = gr
qmaxinst = 28.8974762299
qmin = 0.5
qmax = 27.9
rmax = 50.0
rmin = 0.0
rstep = 0.01
rpoly = 1.8657

[Misc]
inputdir = G:/SankarDec16/1Pd/Chi
savedir = D:/DATA/APS_CeO2/1Pd
backgroundfilefull = G:/SankarDec16/Background/background-00000.chi

#### start data
#S 1
#L r($\AA$)  G($\AA^{-2}$)
0 0
0.01 -0.00550611
0.02 -0.0105964
0.03 -0.0148429
0.04 -0.0179233
0.05 -0.0196586
0.06 -0.019761
0.07 -0.0184234
0.08 -0.0155542
0.09 -0.0115208
0.1 -0.00657772
0.11 -0.00111429
0.12 0.00444628
0.13 0.00962807
0.14 0.014096
0.15 0.0174387
0.16 0.0194168
0.17 0.0199358
0.18 0.018802
0.19 0.0162999
0.2 0.0124437
0.21 0.00766232
0.22 0.00227325
0.23 -0.00328639
0.24 -0.00861931
0.25 -0.0132132
0.26 -0.0168302
0.27 -0.0190962
0.28 -0.0198664
0.29 -0.0191361
0.3 -0.0168151
0.31 -0.0132655
0.32 -0.00860688
0.33 -0.00330846
0.34 0.0022653
0.35 0.00765077
0.36 0.0124965
0.37 0.0162794
0.38 0.0188704
0.39 0.0199518
0.4 0.0194805
0.41 0.0175418
0.42 0.0141537
0.43 0.00973842
0.44 0.00451453
0.45 -0.00103122
0.46 -0.0065058
0.47 -0.0114418
0.48 -0.0155516
0.49 -0.018327
0.5 -0.0197547
0.51 -0.0195891
0.52 -0.0178913
0.53 -0.0148327
0.54 -0.0105388
0.55 -0.00547094
0.56 6.39812e-05
0.57 0.00558579
0.58 0.0106926
0.59 0.0149364
0.6 0.0181077
0.61 0.0197391
0.62 0.0199336
0.63 0.0185302
0.64 0.0156917
0.65 0.0116666
0.66 0.0066827
0.67 0.00121706
0.68 -0.00435012
0.69 -0.00956891
0.7 -0.0140487
0.71 -0.0173829
0.72 -0.0194506
0.73 -0.0198482
0.74 -0.0187897
0.75 -0.0162059
0.76 -0.0123526
0.77 -0.0075427
0.78 -0.00209289
0.79 0.00352794
0.8 0.00888769
0.81 0.0135895
0.82 0.0172752
0.83 0.019601
0.84 0.0205405
0.85 0.0197757
0.86 0.0176183
0.87 0.014094
0.88 0.00953529
0.89 0.00429962
0.9 -0.00122898
0.91 -0.00661969
0.92 -0.0114211
0.93 -0.0153178
0.94 -0.0180141
0.95 -0.0192618
0.96 -0.019137
0.97 -0.0174503
0.98 -0.0145952
0.99 -0.0107126
1 -0.00620307
1.01 -0.0014531
1.02 0.00308731
1.03 0.00706566
1.04 0.0100235
1.05 0.0117679
1.06 0.0120963
1.07 0.010896
1.08 0.00837966
1.09 0.00454184
1.1 -0.000113808
1.11 -0.00527436
1.12 -0.010426
1.13 -0.0151176
1.14 -0.0187483
1.15 -0.0210411
1.16 -0.0214281
1.17 -0.0198298
1.18 -0.0160813
1.19 -0.0101428
1.2 -0.00239422
1.21 0.00710428
1.22 0.0176425
1.23 0.0287797
1.24 0.0398318
1.25 0.050209
1.26 0.0591148
1.27 0.0661884
1.28 0.0706471
1.29 0.0723427
1.3 0.0709759
1.31 0.0663528
1.32 0.058873
1.33 0.048317
1.34 0.035525
1.35 0.0207687
1.36 0.00474308
1.37 -0.0119101
1.38 -0.0284975
1.39 -0.044415
1.4 -0.058927
1.41 -0.0716173
1.42 -0.0820287
1.43 -0.0897279
1.44 -0.0948096
1.45 -0.0967311
1.46 -0.0960043
1.47 -0.0925055
1.48 -0.0865623
1.49 -0.0785411
1.5 -0.0686107
1.51 -0.0573647
1.52 -0.0450269
1.53 -0.0320867
1.54 -0.0188692
1.55 -0.00574053
1.56 0.0070295
1.57 0.0190524
1.58 0.0301884
1.59 0.0401253
1.6 0.0486795
1.61 0.0557417
1.62 0.0609747
1.63 0.0644921
1.64 0.0659526
1.65 0.0654803
1.66 0.0630068
1.67 0.0584982
1.68 0.0522425
1.69 0.0441184
1.7 0.0346251
1.71 0.023909
1.72 0.0123737
1.73 0.000404328
1.74 -0.0115762
1.75 -0.0231736
1.76 -0.0339105
1.77 -0.0434972
1.78 -0.0516312
1.79 -0.0580397
1.8 -0.0628154
1.81 -0.0657096
1.82 -0.0671551
1.83 -0.0672784
1.84 -0.0665222
1.85 -0.0653399
1.86 -0.064264
1.87 -0.0637722
1.88 -0.0644728
1.89 -0.0667035
1.9 -0.070814
1.91 -0.0770861
1.92 -0.0853304
1.93 -0.0957201
1.94 -0.107613
1.95 -0.120667
1.96 -0.134159
1.97 -0.14738
1.98 -0.159364
1.99 -0.169476
2 -0.1766
2.01 -0.180255
2.02 -0.179796
2.03 -0.174602
2.04 -0.164958
2.05 -0.150091
2.06 -0.130988
2.07 -0.107641
2.08 -0.0807928
2.09 -0.0512264
2.1 -0.0195235
2.11 0.0133072
2.12 0.0466474
2.13 0.079808
2.14 0.112342
2.15 0.143911
2.16 0.174541
2.17 0.204217
2.18 0.233394
2.19 0.262481
2.2 0.292086
2.21 0.322727
2.22 0.355142
2.23 0.389504
2.24 0.426333
2.25 0.465389
2.26 0.506433
2.27 0.548831
2.28 0.591588
2.29 0.63331
2.3 0.672643
2.31 0.70768
2.32 0.736611
2.33 0.758073
2.34 0.769376
2.35 0.770525
2.36 0.759023
2.37 0.735376
2.38 0.699196
2.39 0.650497
2.4 0.591444
2.41 0.52201
2.42 0.445693
2.43 0.364152
2.44 0.280337
2.45 0.196831
2.46 0.116727
2.47 0.0419367
2.48 -0.0245157
2.49 -0.0815902
2.5 -0.12795
2.51 -0.162543
2.52 -0.186614
2.53 -0.199132
2.54 -0.203025
2.55 -0.199155
2.56 -0.189954
2.57 -0.177729
2.58 -0.164802
2.59 -0.15336
2.6 -0.145696
2.61 -0.143122
2.62 -0.146806
2.63 -0.157619
2.64 -0.174832
2.65 -0.198888
2.66 -0.227712
2.67 -0.26029
2.68 -0.294602
2.69 -0.328804
2.7 -0.36068
2.71 -0.388857
2.72 -0.411257
2.73 -0.427279
2.74 -0.436226
2.75 -0.437777
2.76 -0.433141
2.77 -0.422439
2.78 -0.408017
2.79 -0.391291
2.8 -0.374468
2.81 -0.359408
2.82 -0.348486
2.83 -0.342712
2.84 -0.344092
2.85 -0.352748
2.86 -0.368993
2.87 -0.392635
2.88 -0.422004
2.89 -0.45632
2.9 -0.492928
2.91 -0.529868
2.92 -0.564627
2.93 -0.595239
2.94 -0.618935
2.95 -0.635087
2.96 -0.641509
2.97 -0.638562
2.98 -0.626216
2.99 -0.605051
3 -0.577298
3.01 -0.544137
3.02 -0.50874
3.03 -0.473476
3.04 -0.441206
3.05 -0.414081
3.06 -0.395132
3.07 -0.384844
3.08 -0.385452
3.09 -0.396301
3.1 -0.417184
3.11 -0.447196
3.12 -0.483767
3.13 -0.525336
3.14 -0.568513
3.15 -0.610671
3.16 -0.648865
3.17 -0.681009
3.18 -0.704146
3.19 -0.718179
3.2 -0.721256
3.21 -0.714575
3.22 -0.698924
3.23 -0.675959
3.24 -0.648635
3.25 -0.619565
3.26 -0.592159
3.27 -0.569702
3.28 -0.555257
3.29 -0.550727
3.3 -0.559275
3.31 -0.580074
3.32 -0.614751
3.33 -0.661047
3.34 -0.717348
3.35 -0.780932
3.36 -0.847921
3.37 -0.914401
3.38 -0.976398
3.39 -1.02964
3.4 -1.07058
3.41 -1.09724
3.42 -1.10594
3.43 -1.09842
3.44 -1.07306
3.45 -1.03329
3.46 -0.981571
3.47 -0.921766
3.48 -0.858857
3.49 -0.798039
3.5 -0.743965
3.51 -0.701743
3.52 -0.675145
3.53 -0.665811
3.54 -0.676917
3.55 -0.705136
3.56 -0.750061
3.57 -0.805631
3.58 -0.866192
3.59 -0.923308
3.6 -0.969295
3.61 -0.991158
3.62 -0.982527
3.63 -0.931241
3.64 -0.829047
3.65 -0.671854
3.66 -0.447703
3.67 -0.163035
3.68 0.189938
3.69 0.601924
3.7 1.06815
3.71 1.58065
3.72 2.12403
3.73 2.68749
3.74 3.25259
3.75 3.80317
3.76 4.32135
3.77 4.79368
3.78 5.19756
3.79 5.52947
3.8 5.76839
3.81 5.91412
3.82 5.9606
3.83 5.90239
3.84 5.75257
3.85 5.50225
3.86 5.17471
3.87 4.77415
3.88 4.31688
3.89 3.81915
3.9 3.29424
3.91 2.76055
3.92 2.23277
3.93 1.72475
3.94 1.24823
3.95 0.815589
3.96 0.42902
3.97 0.101902
3.98 -0.172024
3.99 -0.388157
4 -0.550425
4.01 -0.665327
4.02 -0.734094
4.03 -0.769336
4.04 -0.774471
4.05 -0.759975
4.06 -0.732398
4.07 -0.698654
4.08 -0.664607
4.09 -0.635527
4.1 -0.61406
4.11 -0.602918
4.12 -0.602779
4.13 -0.612855
4.14 -0.632892
4.15 -0.659672
4.16 -0.69143
4.17 -0.724832
4.18 -0.75722
4.19 -0.785535
4.2 -0.808052
4.21 -0.821567
4.22 -0.825952
4.23 -0.819538
4.24 -0.802197
4.25 -0.774586
4.26 -0.736151
4.27 -0.689145
4.28 -0.633561
4.29 -0.571347
4.3 -0.503509
4.31 -0.431065
4.32 -0.355427
4.33 -0.277077
4.34 -0.197156
4.35 -0.116146
4.36 -0.034681
4.37 0.0467308
4.38 0.127444
4.39 0.206951
4.4 0.284294
4.41 0.358717
4.42 0.42917
4.43 0.494133
4.44 0.552995
4.45 0.603157
4.46 0.64449
4.47 0.674951
4.48 0.693563
4.49 0.700114
4.5 0.692575
4.51 0.672655
4.52 0.638973
4.53 0.593374
4.54 0.536676
4.55 0.470002
4.56 0.395997
4.57 0.315713
4.58 0.232171
4.59 0.147206
4.6 0.0631151
4.61 -0.0183931
4.62 -0.0951178
4.63 -0.166438
4.64 -0.230642
4.65 -0.287753
4.66 -0.337512
4.67 -0.379828
4.68 -0.415968
4.69 -0.445799
4.7 -0.471176
4.71 -0.49274
4.72 -0.511716
4.73 -0.529131
4.74 -0.545769
4.75 -0.562353
4.76 -0.579327
4.77 -0.596866
4.78 -0.614957
4.79 -0.633382
4.8 -0.651773
4.81 -0.669592
4.82 -0.686412
4.83 -0.701665
4.84 -0.714931
4.85 -0.726036
4.86 -0.734551
4.87 -0.740834
4.88 -0.744781
4.89 -0.746929
4.9 -0.747673
4.91 -0.747541
4.92 -0.747136
4.93 -0.747042
4.94 -0.747702
4.95 -0.74956
4.96 -0.752868
4.97 -0.757653
4.98 -0.76404
4.99 -0.771643
5 -0.780311
5.01 -0.789569
5.02 -0.799044
5.03 -0.808306
5.04 -0.81707
5.05 -0.824971
5.06 -0.832003
5.07 -0.83809
5.08 -0.843385
5.09 -0.848127
5.1 -0.852576
5.11 -0.857043
5.12 -0.861777
5.13 -0.866866
5.14 -0.872239
5.15 -0.877539
5.16 -0.882215
5.17 -0.885091
5.18 -0.885158
5.19 -0.880651
5.2 -0.869719
5.21 -0.850923
5.22 -0.821051
5.23 -0.779768
5.24 -0.72379
5.25 -0.652911
5.26 -0.566098
5.27 -0.462312
5.28 -0.343742
5.29 -0.209292
5.3 -0.063172
5.31 0.0929205
5.32 0.255059
5.33 0.419258
5.34 0.580633
5.35 0.735062
5.36 0.876599
5.37 1.00146
5.38 1.10539
5.39 1.18331
5.4 1.23535
5.41 1.25495
5.42 1.24573
5.43 1.20537
5.44 1.1358
5.45 1.04063
5.46 0.920484
5.47 0.782513
5.48 0.629218
5.49 0.46703
5.5 0.300639
5.51 0.135461
5.52 -0.0243698
5.53 -0.173192
5.54 -0.309048
5.55 -0.428217
5.56 -0.529051
5.57 -0.611692
5.58 -0.67395
5.59 -0.719323
5.6 -0.74717
5.61 -0.76102
5.62 -0.76293
5.63 -0.755193
5.64 -0.74116
5.65 -0.722508
5.66 -0.701947
5.67 -0.680908
5.68 -0.660624
5.69 -0.641595
5.7 -0.624043
5.71 -0.607364
5.72 -0.59081
5.73 -0.573224
5.74 -0.553417
5.75 -0.529881
5.76 -0.501999
5.77 -0.468078
5.78 -0.428473
5.79 -0.382673
5.8 -0.331277
5.81 -0.27544
5.82 -0.216237
5.83 -0.155837
5.84 -0.0962885
5.85 -0.0399029
5.86 0.0110988
5.87 0.053971
5.88 0.0877864
5.89 0.109201
5.9 0.118773
5.91 0.114905
5.92 0.0977652
5.93 0.0685251
5.94 0.0269217
5.95 -0.0239346
5.96 -0.0832625
5.97 -0.148144
5.98 -0.216509
5.99 -0.285995
6 -0.35455
6.01 -0.419887
6.02 -0.480923
6.03 -0.536219
6.04 -0.585152
6.05 -0.627877
6.06 -0.66389
6.07 -0.694664
6.08 -0.720449
6.09 -0.742769
6.1 -0.762679
6.11 -0.781345
6.12 -0.799833
6.13 -0.819054
6.14 -0.839461
6.15 -0.861394
6.16 -0.884762
6.17 -0.909166
6.18 -0.934042
6.19 -0.958582
6.2 -0.981821
6.21 -1.00294
6.22 -1.02118
6.23 -1.03568
6.24 -1.04652
6.25 -1.05296
6.26 -1.05581
6.27 -1.05524
6.28 -1.05206
6.29 -1.04719
6.3 -1.04141
6.31 -1.03559
6.32 -1.03028
6.33 -1.02564
6.34 -1.02135
6.35 -1.01641
6.36 -1.00947
6.37 -0.997591
6.38 -0.9785
6.39 -0.948122
6.4 -0.902265
6.41 -0.837852
6.42 -0.747567
6.43 -0.63089
6.44 -0.480459
6.45 -0.295719
6.46 -0.0743418
6.47 0.1865
6.48 0.482063
6.49 0.815666
6.5 1.17835
6.51 1.56723
6.52 1.97444
6.53 2.39146
6.54 2.80881
6.55 3.21677
6.56 3.60308
6.57 3.95838
6.58 4.27277
6.59 4.53369
6.6 4.73953
6.61 4.87385
6.62 4.94176
6.63 4.93542
6.64 4.8556
6.65 4.70815
6.66 4.48946
6.67 4.21506
6.68 3.88608
6.69 3.51656
6.7 3.11588
6.71 2.69482
6.72 2.26576
6.73 1.83984
6.74 1.42695
6.75 1.03713
6.76 0.678596
6.77 0.355295
6.78 0.0767627
6.79 -0.160543
6.8 -0.350429
6.81 -0.497434
6.82 -0.603342
6.83 -0.670053
6.84 -0.705973
6.85 -0.71202
6.86 -0.697873
6.87 -0.667407
6.88 -0.626706
6.89 -0.580791
6.9 -0.533824
6.91 -0.489138
6.92 -0.449578
6.93 -0.416363
6.94 -0.390197
6.95 -0.37139
6.96 -0.358548
6.97 -0.351411
6.98 -0.347861
6.99 -0.346815
7 -0.346833
7.01 -0.3469
7.02 -0.34624
7.03 -0.344711
7.04 -0.342418
7.05 -0.340083
7.06 -0.338646
7.07 -0.339581
7.08 -0.343921
7.09 -0.353845
7.1 -0.369904
7.11 -0.3936
7.12 -0.425548
7.13 -0.465466
7.14 -0.513993
7.15 -0.569153
7.16 -0.630393
7.17 -0.695395
7.18 -0.762219
7.19 -0.828383
7.2 -0.89182
7.21 -0.949524
7.22 -1.00026
7.23 -1.04188
7.24 -1.07328
7.25 -1.09451
7.26 -1.10434
7.27 -1.10492
7.28 -1.09631
7.29 -1.08091
7.3 -1.06052
7.31 -1.03729
7.32 -1.0135
7.33 -0.991349
7.34 -0.972334
7.35 -0.957902
7.36 -0.948718
7.37 -0.944493
7.38 -0.945068
7.39 -0.94848
7.4 -0.953012
7.41 -0.955949
7.42 -0.954571
7.43 -0.945184
7.44 -0.925848
7.45 -0.891659
7.46 -0.842093
7.47 -0.774061
7.48 -0.686471
7.49 -0.580112
7.5 -0.453219
7.51 -0.31
7.52 -0.150842
7.53 0.019717
7.54 0.198125
7.55 0.379868
7.56 0.560268
7.57 0.733595
7.58 0.895989
7.59 1.04222
7.6 1.16814
7.61 1.27188
7.62 1.3477
7.63 1.39782
7.64 1.41818
7.65 1.41121
7.66 1.3777
7.67 1.31827
7.68 1.23808
7.69 1.13725
7.7 1.02207
7.71 0.895078
7.72 0.760596
7.73 0.622501
7.74 0.484462
7.75 0.349619
7.76 0.221406
7.77 0.101926
7.78 -0.00687412
7.79 -0.102675
7.8 -0.185912
7.81 -0.253809
7.82 -0.308148
7.83 -0.347969
7.84 -0.373851
7.85 -0.387196
7.86 -0.387381
7.87 -0.377197
7.88 -0.35657
7.89 -0.327671
7.9 -0.291815
7.91 -0.250383
7.92 -0.205515
7.93 -0.158654
7.94 -0.111911
7.95 -0.06712
7.96 -0.0262963
7.97 0.00914867
7.98 0.036573
7.99 0.0556248
8 0.0639196
8.01 0.0612404
8.02 0.0469612
8.03 0.0202211
8.04 -0.0173841
8.05 -0.0668238
8.06 -0.125385
8.07 -0.192274
8.08 -0.265381
8.09 -0.342432
8.1 -0.421362
8.11 -0.499755
8.12 -0.575294
8.13 -0.646146
8.14 -0.710757
8.15 -0.767403
8.16 -0.816268
8.17 -0.855809
8.18 -0.887512
8.19 -0.911474
8.2 -0.928967
8.21 -0.941628
8.22 -0.950588
8.23 -0.95782
8.24 -0.964533
8.25 -0.971885
8.26 -0.980462
8.27 -0.990401
8.28 -1.00102
8.29 -1.01101
8.3 -1.01847
8.31 -1.02067
8.32 -1.01428
8.33 -0.996646
8.34 -0.96206
8.35 -0.909341
8.36 -0.832645
8.37 -0.73063
8.38 -0.601082
8.39 -0.440945
8.4 -0.253369
8.41 -0.0350112
8.42 0.207822
8.43 0.473555
8.44 0.756848
8.45 1.05141
8.46 1.35106
8.47 1.64812
8.48 1.93431
8.49 2.20232
8.5 2.44509
8.51 2.6534
8.52 2.82555
8.53 2.95014
8.54 3.0298
8.55 3.05906
8.56 3.03772
8.57 2.96974
8.58 2.85184
8.59 2.69457
8.6 2.49821
8.61 2.27187
8.62 2.02169
8.63 1.7543
8.64 1.4782
8.65 1.19997
8.66 0.926608
8.67 0.664301
8.68 0.418575
8.69 0.192193
8.7 -0.00877212
8.71 -0.185962
8.72 -0.335513
8.73 -0.459593
8.74 -0.559136
8.75 -0.634807
8.76 -0.69151
8.77 -0.729472
8.78 -0.754315
8.79 -0.768201
8.8 -0.774624
8.81 -0.77667
8.82 -0.776679
8.83 -0.776944
8.84 -0.77917
8.85 -0.784395
8.86 -0.793231
8.87 -0.806117
8.88 -0.822445
8.89 -0.842226
8.9 -0.864303
8.91 -0.888034
8.92 -0.91245
8.93 -0.936736
8.94 -0.960006
8.95 -0.981818
8.96 -1.00154
8.97 -1.01906
8.98 -1.03432
8.99 -1.04732
9 -1.05855
9.01 -1.06811
9.02 -1.07665
9.03 -1.08449
9.04 -1.09206
9.05 -1.09964
9.06 -1.10743
9.07 -1.11541
9.08 -1.12345
9.09 -1.13118
9.1 -1.13814
9.11 -1.14353
9.12 -1.1468
9.13 -1.1466
9.14 -1.14246
9.15 -1.13315
9.16 -1.11777
9.17 -1.09598
9.18 -1.06623
9.19 -1.02921
9.2 -0.983849
9.21 -0.930831
9.22 -0.870506
9.23 -0.803211
9.24 -0.730621
9.25 -0.653302
9.26 -0.573382
9.27 -0.492327
9.28 -0.41215
9.29 -0.334529
9.3 -0.262002
9.31 -0.19562
9.32 -0.137884
9.33 -0.0897159
9.34 -0.0522154
9.35 -0.026937
9.36 -0.0129
9.37 -0.0119007
9.38 -0.0218241
9.39 -0.0426378
9.4 -0.0729423
9.41 -0.110735
9.42 -0.154939
9.43 -0.202767
9.44 -0.252534
9.45 -0.301952
9.46 -0.349206
9.47 -0.392209
9.48 -0.430104
9.49 -0.460831
9.5 -0.484599
9.51 -0.500634
9.52 -0.509129
9.53 -0.511051
9.54 -0.506549
9.55 -0.497657
9.56 -0.485284
9.57 -0.471281
9.58 -0.457104
9.59 -0.444425
9.6 -0.434308
9.61 -0.428419
9.62 -0.427061
9.63 -0.431057
9.64 -0.440583
9.65 -0.455167
9.66 -0.475004
9.67 -0.498732
9.68 -0.525976
9.69 -0.555526
9.7 -0.586506
9.71 -0.618017
9.72 -0.649309
9.73 -0.679694
9.74 -0.708902
9.75 -0.736675
9.76 -0.763012
9.77 -0.788118
9.78 -0.812033
9.79 -0.835061
9.8 -0.857104
9.81 -0.877989
9.82 -0.897186
9.83 -0.913482
9.84 -0.925858
9.85 -0.931463
9.86 -0.92863
9.87 -0.913874
9.88 -0.883592
9.89 -0.835532
9.9 -0.763043
9.91 -0.666084
9.92 -0.538248
9.93 -0.378758
9.94 -0.185758
9.95 0.0440057
9.96 0.306324
9.97 0.604855
9.98 0.932259
9.99 1.28662
10 1.66198
10.01 2.05105
10.02 2.44701
10.03 2.84092
10.04 3.22342
10.05 3.58586
10.06 3.92
10.07 4.21473
10.08 4.46767
10.09 4.66509
10.1 4.80912
10.11 4.89282
10.12 4.91472
10.13 4.87907
10.14 4.78031
10.15 4.63075
10.16 4.42946
10.17 4.18665
10.18 3.90928
10.19 3.60421
10.2 3.28227
10.21 2.95019
10.22 2.61743
10.23 2.29118
10.24 1.97866
10.25 1.68398
10.26 1.41459
10.27 1.16986
10.28 0.954619
10.29 0.767397
10.3 0.60755
10.31 0.474958
10.32 0.364289
10.33 0.275565
10.34 0.202502
10.35 0.142639
10.36 0.0919717
10.37 0.0467975
10.38 0.00435092
10.39 -0.0382213
10.4 -0.0830133
10.41 -0.131389
10.42 -0.184139
10.43 -0.241889
10.44 -0.303911
10.45 -0.370223
10.46 -0.439371
10.47 -0.510468
10.48 -0.58216
10.49 -0.653269
10.5 -0.722316
10.51 -0.788527
10.52 -0.850566
10.53 -0.907877
10.54 -0.959892
10.55 -1.00576
10.56 -1.04589
10.57 -1.07916
10.58 -1.10634
10.59 -1.12698
10.6 -1.1411
10.61 -1.14915
10.62 -1.15036
10.63 -1.14573
10.64 -1.13464
10.65 -1.11766
10.66 -1.09498
10.67 -1.06655
10.68 -1.03339
10.69 -0.995348
10.7 -0.953733
10.71 -0.909104
10.72 -0.862525
10.73 -0.815111
10.74 -0.768102
10.75 -0.72262
10.76 -0.680121
10.77 -0.641656
10.78 -0.608231
10.79 -0.581237
10.8 -0.560637
10.81 -0.548031
10.82 -0.542706
10.83 -0.545177
10.84 -0.555181
10.85 -0.57179
10.86 -0.595141
10.87 -0.623472
10.88 -0.656387
10.89 -0.692478
10.9 -0.730726
10.91 -0.770078
10.92 -0.809495
10.93 -0.847986
10.94 -0.884889
10.95 -0.919499
10.96 -0.951309
10.97 -0.980227
10.98 -1.00566
10.99 -1.02806
11 -1.04716
11.01 -1.06333
11.02 -1.07681
11.03 -1.08774
11.04 -1.09671
11.05 -1.10376
11.06 -1.10948
11.07 -1.11409
11.08 -1.11795
11.09 -1.12138
11.1 -1.12463
11.11 -1.12798
11.12 -1.13163
11.13 -1.1357
11.14 -1.14024
11.15 -1.14521
11.16 -1.15036
11.17 -1.15531
11.18 -1.15949
11.19 -1.16206
11.2 -1.16187
11.21 -1.15792
11.22 -1.14791
11.23 -1.13101
11.24 -1.10438
11.25 -1.06649
11.26 -1.01545
11.27 -0.948138
11.28 -0.864733
11.29 -0.761008
11.3 -0.638355
11.31 -0.494969
11.32 -0.330904
11.33 -0.148259
11.34 0.0538402
11.35 0.270441
11.36 0.50016
11.37 0.738172
11.38 0.980336
11.39 1.2214
11.4 1.45666
11.41 1.67915
11.42 1.88497
11.43 2.06805
11.44 2.2232
11.45 2.34867
11.46 2.43652
11.47 2.48983
11.48 2.50315
11.49 2.47889
11.5 2.41814
11.51 2.3208
11.52 2.19389
11.53 2.03719
11.54 1.85913
11.55 1.66336
11.56 1.45588
11.57 1.24254
11.58 1.02874
11.59 0.819394
11.6 0.619607
11.61 0.432737
11.62 0.26144
11.63 0.109062
11.64 -0.025549
11.65 -0.139397
11.66 -0.235688
11.67 -0.31463
11.68 -0.378377
11.69 -0.430182
11.7 -0.471451
11.71 -0.506351
11.72 -0.536869
11.73 -0.565871
11.74 -0.5953
11.75 -0.626989
11.76 -0.661641
11.77 -0.700218
11.78 -0.742084
11.79 -0.786745
11.8 -0.83286
11.81 -0.878832
11.82 -0.922364
11.83 -0.9617
11.84 -0.994014
11.85 -1.0174
11.86 -1.03
11.87 -1.02902
11.88 -1.0147
11.89 -0.983809
11.9 -0.937785
11.91 -0.875595
11.92 -0.797664
11.93 -0.705905
11.94 -0.599869
11.95 -0.483235
11.96 -0.356814
11.97 -0.22364
11.98 -0.0860657
11.99 0.053291
12 0.191811
12.01 0.326477
12.02 0.455225
12.03 0.575421
12.04 0.684714
12.05 0.782187
12.06 0.864328
12.07 0.932101
12.08 0.98285
12.09 1.01704
12.1 1.03461
12.11 1.0346
12.12 1.01951
12.13 0.987982
12.14 0.943198
12.15 0.88574
12.16 0.817431
12.17 0.740738
12.18 0.656755
12.19 0.568495
12.2 0.477528
12.21 0.386093
12.22 0.295886
12.23 0.208818
12.24 0.125782
12.25 0.0485903
12.26 -0.0227136
12.27 -0.0873762
12.28 -0.145307
12.29 -0.197214
12.3 -0.242846
12.31 -0.283838
12.32 -0.320592
12.33 -0.35446
12.34 -0.386446
12.35 -0.417542
12.36 -0.448642
12.37 -0.480481
12.38 -0.513368
12.39 -0.547456
12.4 -0.582489
12.41 -0.617888
