# xPDFsuite Configuration #
[PDF]
wavelength = 0.1432
dataformat = twotheta
inputfile = 1_1Pd_CeO2_cycle-00456.chi
backgroundfile = background-00000.chi
mode = xray
bgscale = 1.007
composition = CeO2
outputtype = gr
qmaxinst = 28.8974762299
qmin = 0.5
qmax = 27.9
rmax = 50.0
rmin = 0.0
rstep = 0.01
rpoly = 1.8657

[Misc]
inputdir = G:/SankarDec16/1Pd/Chi
savedir = D:/DATA/APS_CeO2/1Pd
backgroundfilefull = G:/SankarDec16/Background/background-00000.chi

#### start data
#S 1
#L r($\AA$)  G($\AA^{-2}$)
0 0
0.01 -0.00519943
0.02 -0.0100086
0.03 -0.0140257
0.04 -0.0169475
0.05 -0.0186053
0.06 -0.0187272
0.07 -0.0174926
0.08 -0.0148127
0.09 -0.0110306
0.1 -0.00638301
0.11 -0.00123307
0.12 0.00402131
0.13 0.00893553
0.14 0.0131913
0.15 0.016401
0.16 0.0183353
0.17 0.0189009
0.18 0.0179094
0.19 0.0156228
0.2 0.0120469
0.21 0.00758079
0.22 0.00251808
0.23 -0.00273404
0.24 -0.00779984
0.25 -0.0122004
0.26 -0.0157038
0.27 -0.0179542
0.28 -0.0188063
0.29 -0.0182467
0.3 -0.0161792
0.31 -0.0129365
0.32 -0.00861889
0.33 -0.00366342
0.34 0.00159261
0.35 0.00671619
0.36 0.0113708
0.37 0.015065
0.38 0.0176634
0.39 0.0188585
0.4 0.0185954
0.41 0.0169414
0.42 0.0138969
0.43 0.00985056
0.44 0.00499239
0.45 -0.000221929
0.46 -0.00542695
0.47 -0.0101831
0.48 -0.0142085
0.49 -0.0170215
0.5 -0.0185894
0.51 -0.0186669
0.52 -0.0172925
0.53 -0.0146112
0.54 -0.0107199
0.55 -0.00604605
0.56 -0.000860693
0.57 0.00438224
0.58 0.00930584
0.59 0.0134836
0.6 0.0167014
0.61 0.0185092
0.62 0.0189784
0.63 0.0179376
0.64 0.0155165
0.65 0.0119318
0.66 0.00737285
0.67 0.00228623
0.68 -0.0029879
0.69 -0.00801771
0.7 -0.012432
0.71 -0.0158362
0.72 -0.0180938
0.73 -0.0188061
0.74 -0.0181456
0.75 -0.0160217
0.76 -0.0126494
0.77 -0.00830608
0.78 -0.00326452
0.79 0.00203032
0.8 0.00718632
0.81 0.0118134
0.82 0.015564
0.83 0.0180944
0.84 0.019351
0.85 0.0190063
0.86 0.0173239
0.87 0.0142973
0.88 0.0102146
0.89 0.00539853
0.9 0.000187871
0.91 -0.00499859
0.92 -0.00974279
0.93 -0.0137202
0.94 -0.0166318
0.95 -0.0182115
0.96 -0.018496
0.97 -0.0172636
0.98 -0.0148566
0.99 -0.0113688
1 -0.00715407
1.01 -0.00256729
1.02 0.00198873
1.03 0.0061542
1.04 0.0094965
1.05 0.0117897
1.06 0.0128084
1.07 0.0123956
1.08 0.0107049
1.09 0.00766306
1.1 0.00371049
1.11 -0.000916508
1.12 -0.00576668
1.13 -0.0104291
1.14 -0.0143766
1.15 -0.017309
1.16 -0.0187065
1.17 -0.0184372
1.18 -0.0163093
1.19 -0.0122304
1.2 -0.00649138
1.21 0.00092062
1.22 0.00940019
1.23 0.0186059
1.24 0.0279538
1.25 0.0369279
1.26 0.0448547
1.27 0.0513803
1.28 0.0558325
1.29 0.0580422
1.3 0.0577315
1.31 0.0547109
1.32 0.0492954
1.33 0.041286
1.34 0.0313828
1.35 0.019811
1.36 0.0071568
1.37 -0.0060373
1.38 -0.0191881
1.39 -0.0317887
1.4 -0.0432319
1.41 -0.0531829
1.42 -0.0612828
1.43 -0.0672075
1.44 -0.0710632
1.45 -0.0724701
1.46 -0.0718749
1.47 -0.0692405
1.48 -0.0648741
1.49 -0.0590941
1.5 -0.0520872
1.51 -0.0442917
1.52 -0.0359005
1.53 -0.0272319
1.54 -0.0184845
1.55 -0.00985245
1.56 -0.00144746
1.57 0.00657236
1.58 0.0141891
1.59 0.0213034
1.6 0.0278694
1.61 0.0338529
1.62 0.0391051
1.63 0.043631
1.64 0.0472075
1.65 0.0497836
1.66 0.0511962
1.67 0.0512435
1.68 0.0499452
1.69 0.0469478
1.7 0.0424421
1.71 0.0362698
1.72 0.028537
1.73 0.0194171
1.74 0.00897742
1.75 -0.00237373
1.76 -0.0144361
1.77 -0.0267892
1.78 -0.0390984
1.79 -0.0509631
1.8 -0.0621295
1.81 -0.0721468
1.82 -0.0809695
1.83 -0.0883448
1.84 -0.0942621
1.85 -0.0988192
1.86 -0.102017
1.87 -0.104223
1.88 -0.105579
1.89 -0.106468
1.9 -0.107165
1.91 -0.107978
1.92 -0.109109
1.93 -0.110807
1.94 -0.113065
1.95 -0.115916
1.96 -0.119204
1.97 -0.122704
1.98 -0.126072
1.99 -0.128957
2 -0.130822
2.01 -0.131282
2.02 -0.129876
2.03 -0.126076
2.04 -0.119816
2.05 -0.110374
2.06 -0.09807
2.07 -0.0825828
2.08 -0.0640715
2.09 -0.0428096
2.1 -0.0187769
2.11 0.00738366
2.12 0.0356084
2.13 0.0653617
2.14 0.0963833
2.15 0.128418
2.16 0.161171
2.17 0.194599
2.18 0.228526
2.19 0.262978
2.2 0.297955
2.21 0.333458
2.22 0.369544
2.23 0.406083
2.24 0.442981
2.25 0.479923
2.26 0.516521
2.27 0.552126
2.28 0.586191
2.29 0.617452
2.3 0.645347
2.31 0.668509
2.32 0.68591
2.33 0.696842
2.34 0.699539
2.35 0.694353
2.36 0.67965
2.37 0.656031
2.38 0.623355
2.39 0.581749
2.4 0.53281
2.41 0.476545
2.42 0.415412
2.43 0.350536
2.44 0.28393
2.45 0.217347
2.46 0.152857
2.47 0.0917782
2.48 0.0361368
2.49 -0.0133272
2.5 -0.0556825
2.51 -0.0901674
2.52 -0.117556
2.53 -0.137058
2.54 -0.150571
2.55 -0.158557
2.56 -0.162549
2.57 -0.164019
2.58 -0.164362
2.59 -0.16505
2.6 -0.167454
2.61 -0.172467
2.62 -0.180817
2.63 -0.19304
2.64 -0.208745
2.65 -0.228126
2.66 -0.249984
2.67 -0.273645
2.68 -0.297883
2.69 -0.321597
2.7 -0.343403
2.71 -0.362561
2.72 -0.377818
2.73 -0.388928
2.74 -0.395566
2.75 -0.397678
2.76 -0.396136
2.77 -0.391213
2.78 -0.384445
2.79 -0.376878
2.8 -0.369964
2.81 -0.364883
2.82 -0.363208
2.83 -0.365422
2.84 -0.372772
2.85 -0.38513
2.86 -0.402523
2.87 -0.424593
2.88 -0.450068
2.89 -0.47813
2.9 -0.50694
2.91 -0.534977
2.92 -0.560484
2.93 -0.582154
2.94 -0.598028
2.95 -0.607905
2.96 -0.610327
2.97 -0.605801
2.98 -0.594499
2.99 -0.577067
3 -0.555262
3.01 -0.530185
3.02 -0.50416
3.03 -0.479038
3.04 -0.4569
3.05 -0.439246
3.06 -0.428272
3.07 -0.424118
3.08 -0.428309
3.09 -0.440139
3.1 -0.459268
3.11 -0.484812
3.12 -0.51475
3.13 -0.547686
3.14 -0.581117
3.15 -0.612986
3.16 -0.641137
3.17 -0.664115
3.18 -0.679785
3.19 -0.688312
3.2 -0.688488
3.21 -0.681463
3.22 -0.668059
3.23 -0.649792
3.24 -0.629011
3.25 -0.608012
3.26 -0.589329
3.27 -0.575605
3.28 -0.569125
3.29 -0.57122
3.3 -0.584262
3.31 -0.607319
3.32 -0.641487
3.33 -0.684735
3.34 -0.735588
3.35 -0.791677
3.36 -0.849856
3.37 -0.906809
3.38 -0.959459
3.39 -1.00435
3.4 -1.03876
3.41 -1.06123
3.42 -1.06893
3.43 -1.06344
3.44 -1.04362
3.45 -1.01234
3.46 -0.971689
3.47 -0.92483
3.48 -0.875725
3.49 -0.828497
3.5 -0.786698
3.51 -0.754202
3.52 -0.733708
3.53 -0.726216
3.54 -0.73368
3.55 -0.753164
3.56 -0.783574
3.57 -0.819718
3.58 -0.856521
3.59 -0.886547
3.6 -0.90367
3.61 -0.896399
3.62 -0.860114
3.63 -0.78452
3.64 -0.663123
3.65 -0.493004
3.66 -0.264378
3.67 0.0165453
3.68 0.35591
3.69 0.745216
3.7 1.17991
3.71 1.65268
3.72 2.15017
3.73 2.66255
3.74 3.17414
3.75 3.67079
3.76 4.13714
3.77 4.56175
3.78 4.92499
3.79 5.22421
3.8 5.44108
3.81 5.57567
3.82 5.62271
3.83 5.57739
3.84 5.45111
3.85 5.23575
3.86 4.95155
3.87 4.60177
3.88 4.20029
3.89 3.76111
3.9 3.29516
3.91 2.81864
3.92 2.34377
3.93 1.88279
3.94 1.44587
3.95 1.04378
3.96 0.67896
3.97 0.362983
3.98 0.0912482
3.99 -0.131904
4 -0.30921
4.01 -0.445686
4.02 -0.541684
4.03 -0.60759
4.04 -0.645581
4.05 -0.664307
4.06 -0.668938
4.07 -0.664895
4.08 -0.657332
4.09 -0.650037
4.1 -0.645795
4.11 -0.646655
4.12 -0.653424
4.13 -0.665786
4.14 -0.68348
4.15 -0.70449
4.16 -0.727372
4.17 -0.749887
4.18 -0.770111
4.19 -0.785811
4.2 -0.795963
4.21 -0.79813
4.22 -0.792552
4.23 -0.778065
4.24 -0.754778
4.25 -0.723372
4.26 -0.683565
4.27 -0.637219
4.28 -0.58443
4.29 -0.526747
4.3 -0.464968
4.31 -0.399877
4.32 -0.332501
4.33 -0.263171
4.34 -0.192669
4.35 -0.121291
4.36 -0.0494442
4.37 0.0225315
4.38 0.0941992
4.39 0.16514
4.4 0.234608
4.41 0.301923
4.42 0.36617
4.43 0.426003
4.44 0.480805
4.45 0.528279
4.46 0.568193
4.47 0.598688
4.48 0.618808
4.49 0.628281
4.5 0.625216
4.51 0.611055
4.52 0.58447
4.53 0.547039
4.54 0.499415
4.55 0.442513
4.56 0.378674
4.57 0.308713
4.58 0.235355
4.59 0.16016
4.6 0.0851605
4.61 0.0118943
4.62 -0.0577527
4.63 -0.123143
4.64 -0.182823
4.65 -0.236751
4.66 -0.284697
4.67 -0.326588
4.68 -0.363478
4.69 -0.395307
4.7 -0.423623
4.71 -0.449008
4.72 -0.4725
4.73 -0.494948
4.74 -0.517025
4.75 -0.539262
4.76 -0.561992
4.77 -0.585253
4.78 -0.608926
4.79 -0.632674
4.8 -0.656072
4.81 -0.678425
4.82 -0.69929
4.83 -0.71798
4.84 -0.734007
4.85 -0.747169
4.86 -0.75689
4.87 -0.763603
4.88 -0.767078
4.89 -0.767929
4.9 -0.76657
4.91 -0.763566
4.92 -0.759692
4.93 -0.755586
4.94 -0.751938
4.95 -0.749355
4.96 -0.748325
4.97 -0.74907
4.98 -0.751997
4.99 -0.75683
5 -0.763681
5.01 -0.772116
5.02 -0.781835
5.03 -0.792445
5.04 -0.803475
5.05 -0.814538
5.06 -0.82528
5.07 -0.835401
5.08 -0.844695
5.09 -0.85309
5.1 -0.860401
5.11 -0.866733
5.12 -0.871906
5.13 -0.875904
5.14 -0.878516
5.15 -0.87929
5.16 -0.877949
5.17 -0.873323
5.18 -0.86495
5.19 -0.85142
5.2 -0.831467
5.21 -0.80419
5.22 -0.767145
5.23 -0.720401
5.24 -0.661486
5.25 -0.590486
5.26 -0.50675
5.27 -0.409621
5.28 -0.30095
5.29 -0.180014
5.3 -0.0501817
5.31 0.0871165
5.32 0.228738
5.33 0.371527
5.34 0.511536
5.35 0.645553
5.36 0.768772
5.37 0.878197
5.38 0.970397
5.39 1.04121
5.4 1.09072
5.41 1.11346
5.42 1.11227
5.43 1.08505
5.44 1.03316
5.45 0.959342
5.46 0.86369
5.47 0.751982
5.48 0.625793
5.49 0.490298
5.5 0.34913
5.51 0.206473
5.52 0.0659257
5.53 -0.0682164
5.54 -0.193861
5.55 -0.307927
5.56 -0.408686
5.57 -0.495805
5.58 -0.567101
5.59 -0.62482
5.6 -0.667877
5.61 -0.698583
5.62 -0.718075
5.63 -0.727568
5.64 -0.7296
5.65 -0.724723
5.66 -0.715303
5.67 -0.702099
5.68 -0.686139
5.69 -0.668091
5.7 -0.648013
5.71 -0.62617
5.72 -0.602092
5.73 -0.57557
5.74 -0.546164
5.75 -0.513279
5.76 -0.477019
5.77 -0.436703
5.78 -0.393033
5.79 -0.346143
5.8 -0.29687
5.81 -0.246251
5.82 -0.19556
5.83 -0.146179
5.84 -0.0999161
5.85 -0.058184
5.86 -0.0224763
5.87 0.00537694
5.88 0.0251892
5.89 0.0346957
5.9 0.0348689
5.91 0.024869
5.92 0.00523156
5.93 -0.0228864
5.94 -0.0593221
5.95 -0.101715
5.96 -0.149279
5.97 -0.19995
5.98 -0.252282
5.99 -0.304691
6 -0.355978
6.01 -0.404741
6.02 -0.450551
6.03 -0.492719
6.04 -0.531154
6.05 -0.566199
6.06 -0.59792
6.07 -0.627348
6.08 -0.654958
6.09 -0.681711
6.1 -0.708297
6.11 -0.735421
6.12 -0.763446
6.13 -0.792803
6.14 -0.823306
6.15 -0.8548
6.16 -0.88675
6.17 -0.91852
6.18 -0.949161
6.19 -0.977995
6.2 -1.00388
6.21 -1.02625
6.22 -1.04447
6.23 -1.05788
6.24 -1.06686
6.25 -1.0708
6.26 -1.07077
6.27 -1.06704
6.28 -1.06045
6.29 -1.05192
6.3 -1.0421
6.31 -1.03177
6.32 -1.02123
6.33 -1.01049
6.34 -0.999106
6.35 -0.985898
6.36 -0.969631
6.37 -0.947341
6.38 -0.917145
6.39 -0.875303
6.4 -0.818219
6.41 -0.743409
6.42 -0.644549
6.43 -0.521669
6.44 -0.36861
6.45 -0.18539
6.46 0.0295965
6.47 0.278301
6.48 0.556278
6.49 0.865844
6.5 1.19913
6.51 1.55332
6.52 1.92153
6.53 2.29654
6.54 2.67006
6.55 3.03418
6.56 3.37848
6.57 3.69535
6.58 3.97664
6.59 4.21192
6.6 4.40011
6.61 4.52739
6.62 4.59824
6.63 4.60597
6.64 4.55108
6.65 4.4383
6.66 4.26407
6.67 4.04122
6.68 3.76989
6.69 3.46149
6.7 3.12332
6.71 2.76362
6.72 2.39285
6.73 2.01921
6.74 1.65155
6.75 1.29785
6.76 0.965286
6.77 0.657793
6.78 0.383491
6.79 0.140746
6.8 -0.0646433
6.81 -0.235165
6.82 -0.371236
6.83 -0.473113
6.84 -0.54693
6.85 -0.591862
6.86 -0.615601
6.87 -0.620314
6.88 -0.610597
6.89 -0.590727
6.9 -0.563445
6.91 -0.532664
6.92 -0.500578
6.93 -0.46937
6.94 -0.440409
6.95 -0.414877
6.96 -0.392864
6.97 -0.375114
6.98 -0.360936
6.99 -0.350341
7 -0.342906
7.01 -0.338152
7.02 -0.33613
7.03 -0.33636
7.04 -0.339173
7.05 -0.344572
7.06 -0.352887
7.07 -0.36474
7.08 -0.380162
7.09 -0.400229
7.1 -0.424663
7.11 -0.45401
7.12 -0.488214
7.13 -0.526798
7.14 -0.569773
7.15 -0.615859
7.16 -0.664471
7.17 -0.714243
7.18 -0.764015
7.19 -0.81233
7.2 -0.858187
7.21 -0.89985
7.22 -0.936885
7.23 -0.968182
7.24 -0.993301
7.25 -1.01245
7.26 -1.02505
7.27 -1.03245
7.28 -1.03472
7.29 -1.03324
7.3 -1.02896
7.31 -1.02293
7.32 -1.0163
7.33 -1.00993
7.34 -1.00443
7.35 -1.00016
7.36 -0.997053
7.37 -0.994642
7.38 -0.992043
7.39 -0.988116
7.4 -0.981084
7.41 -0.969311
7.42 -0.95095
7.43 -0.923449
7.44 -0.886108
7.45 -0.835459
7.46 -0.771976
7.47 -0.693806
7.48 -0.60076
7.49 -0.493915
7.5 -0.372511
7.51 -0.239945
7.52 -0.0969391
7.53 0.0530206
7.54 0.207169
7.55 0.362014
7.56 0.514293
7.57 0.659575
7.58 0.795325
7.59 0.917659
7.6 1.02362
7.61 1.11197
7.62 1.17834
7.63 1.22455
7.64 1.24741
7.65 1.24868
7.66 1.22883
7.67 1.18804
7.68 1.13016
7.69 1.05479
7.7 0.966728
7.71 0.86757
7.72 0.760466
7.73 0.648421
7.74 0.53394
7.75 0.419824
7.76 0.308597
7.77 0.202277
7.78 0.102632
7.79 0.0117733
7.8 -0.0701268
7.81 -0.140548
7.82 -0.200371
7.83 -0.248422
7.84 -0.284719
7.85 -0.310088
7.86 -0.323561
7.87 -0.327333
7.88 -0.320999
7.89 -0.306341
7.9 -0.284393
7.91 -0.25623
7.92 -0.223865
7.93 -0.188399
7.94 -0.151922
7.95 -0.116027
7.96 -0.0825759
7.97 -0.0529413
7.98 -0.0294092
7.99 -0.0124807
8 -0.00421924
8.01 -0.00493845
8.02 -0.015248
8.03 -0.0359612
8.04 -0.0658264
8.05 -0.105771
8.06 -0.153606
8.07 -0.208797
8.08 -0.26971
8.09 -0.334528
8.1 -0.401751
8.11 -0.46936
8.12 -0.535632
8.13 -0.599037
8.14 -0.658319
8.15 -0.712086
8.16 -0.760308
8.17 -0.801709
8.18 -0.837213
8.19 -0.866709
8.2 -0.89093
8.21 -0.910924
8.22 -0.927185
8.23 -0.941084
8.24 -0.953121
8.25 -0.964
8.26 -0.973912
8.27 -0.98258
8.28 -0.989539
8.29 -0.993211
8.3 -0.992375
8.31 -0.984659
8.32 -0.967472
8.33 -0.938951
8.34 -0.894419
8.35 -0.833457
8.36 -0.751382
8.37 -0.647514
8.38 -0.520303
8.39 -0.367491
8.4 -0.191919
8.41 0.00899821
8.42 0.229952
8.43 0.469578
8.44 0.723467
8.45 0.986472
8.46 1.25354
8.47 1.51842
8.48 1.77434
8.49 2.01529
8.5 2.23542
8.51 2.42704
8.52 2.58861
8.53 2.71044
8.54 2.79443
8.55 2.83565
8.56 2.83346
8.57 2.79078
8.58 2.70407
8.59 2.58194
8.6 2.42378
8.61 2.23694
8.62 2.02618
8.63 1.7965
8.64 1.55536
8.65 1.3076
8.66 1.05983
8.67 0.817229
8.68 0.584944
8.69 0.366028
8.7 0.165987
8.71 -0.0154863
8.72 -0.174476
8.73 -0.31188
8.74 -0.427723
8.75 -0.521667
8.76 -0.597434
8.77 -0.654241
8.78 -0.696832
8.79 -0.726549
8.8 -0.74627
8.81 -0.758884
8.82 -0.766169
8.83 -0.770895
8.84 -0.774632
8.85 -0.779013
8.86 -0.785101
8.87 -0.793868
8.88 -0.805421
8.89 -0.820356
8.9 -0.838104
8.91 -0.858542
8.92 -0.881114
8.93 -0.905156
8.94 -0.930133
8.95 -0.955312
8.96 -0.980106
8.97 -1.004
8.98 -1.02658
8.99 -1.04739
9 -1.06644
9.01 -1.08327
9.02 -1.09813
9.03 -1.11087
9.04 -1.12156
9.05 -1.13039
9.06 -1.13716
9.07 -1.1422
9.08 -1.14524
9.09 -1.14635
9.1 -1.14536
9.11 -1.1419
9.12 -1.13596
9.13 -1.12673
9.14 -1.11425
9.15 -1.09784
9.16 -1.07708
9.17 -1.05188
9.18 -1.02127
9.19 -0.985779
9.2 -0.944664
9.21 -0.898353
9.22 -0.84702
9.23 -0.79079
9.24 -0.730729
9.25 -0.667081
9.26 -0.601264
9.27 -0.534194
9.28 -0.46723
9.29 -0.401568
9.3 -0.338963
9.31 -0.280303
9.32 -0.227436
9.33 -0.181215
9.34 -0.142613
9.35 -0.113003
9.36 -0.0918884
9.37 -0.0809249
9.38 -0.0787573
9.39 -0.0856709
9.4 -0.100891
9.41 -0.123046
9.42 -0.15172
9.43 -0.184713
9.44 -0.221042
9.45 -0.258876
9.46 -0.296814
9.47 -0.333278
9.48 -0.367288
9.49 -0.397288
9.5 -0.423016
9.51 -0.4437
9.52 -0.459179
9.53 -0.469901
9.54 -0.475702
9.55 -0.477898
9.56 -0.476932
9.57 -0.474067
9.58 -0.470299
9.59 -0.466775
9.6 -0.464387
9.61 -0.46431
9.62 -0.466965
9.63 -0.473038
9.64 -0.482816
9.65 -0.496113
9.66 -0.513215
9.67 -0.533258
9.68 -0.556092
9.69 -0.580899
9.7 -0.60708
9.71 -0.633999
9.72 -0.661034
9.73 -0.687636
9.74 -0.713453
9.75 -0.73815
9.76 -0.761519
9.77 -0.783529
9.78 -0.803873
9.79 -0.822637
9.8 -0.839358
9.81 -0.853711
9.82 -0.865053
9.83 -0.872076
9.84 -0.874041
9.85 -0.868224
9.86 -0.853516
9.87 -0.826955
9.88 -0.785688
9.89 -0.728111
9.9 -0.648721
9.91 -0.547909
9.92 -0.420452
9.93 -0.265999
9.94 -0.0831914
9.95 0.130529
9.96 0.37152
9.97 0.642781
9.98 0.938178
9.99 1.25616
10 1.59185
10.01 1.93927
10.02 2.29293
10.03 2.64541
10.04 2.98911
10.05 3.31681
10.06 3.62167
10.07 3.89437
10.08 4.1327
10.09 4.32502
10.1 4.4727
10.11 4.56953
10.12 4.61372
10.13 4.60833
10.14 4.5478
10.15 4.44214
10.16 4.28955
10.17 4.0982
10.18 3.87337
10.19 3.62004
10.2 3.34756
10.21 3.06055
10.22 2.76767
10.23 2.47469
10.24 2.188
10.25 1.9118
10.26 1.65237
10.27 1.41049
10.28 1.19063
10.29 0.992652
10.3 0.816822
10.31 0.663968
10.32 0.530357
10.33 0.416979
10.34 0.31898
10.35 0.234952
10.36 0.161941
10.37 0.096832
10.38 0.0378511
10.39 -0.0179896
10.4 -0.0722411
10.41 -0.126589
10.42 -0.182054
10.43 -0.239492
10.44 -0.298969
10.45 -0.360782
10.46 -0.424323
10.47 -0.489186
10.48 -0.554606
10.49 -0.619821
10.5 -0.683824
10.51 -0.745971
10.52 -0.8052
10.53 -0.860918
10.54 -0.912516
10.55 -0.959082
10.56 -1.00075
10.57 -1.03631
10.58 -1.06621
10.59 -1.08987
10.6 -1.10713
10.61 -1.11832
10.62 -1.12261
10.63 -1.12099
10.64 -1.1129
10.65 -1.09896
10.66 -1.07948
10.67 -1.05456
10.68 -1.02527
10.69 -0.991644
10.7 -0.95495
10.71 -0.915791
10.72 -0.87517
10.73 -0.834064
10.74 -0.793564
10.75 -0.754553
10.76 -0.718213
10.77 -0.685323
10.78 -0.656626
10.79 -0.633158
10.8 -0.614806
10.81 -0.602773
10.82 -0.596446
10.83 -0.596204
10.84 -0.601846
10.85 -0.612676
10.86 -0.628884
10.87 -0.649169
10.88 -0.673369
10.89 -0.700506
10.9 -0.729918
10.91 -0.760977
10.92 -0.792895
10.93 -0.825134
10.94 -0.857106
10.95 -0.888339
10.96 -0.918396
10.97 -0.947058
10.98 -0.973825
10.99 -0.99876
11 -1.02148
11.01 -1.042
11.02 -1.06027
11.03 -1.07609
11.04 -1.08974
11.05 -1.10094
11.06 -1.11007
11.07 -1.11714
11.08 -1.12234
11.09 -1.12602
11.1 -1.12828
11.11 -1.1296
11.12 -1.13018
11.13 -1.13036
11.14 -1.13035
11.15 -1.13031
11.16 -1.13022
11.17 -1.12991
11.18 -1.129
11.19 -1.12687
11.2 -1.12255
11.21 -1.11516
11.22 -1.10265
11.23 -1.08418
11.24 -1.05717
11.25 -1.02012
11.26 -0.971264
11.27 -0.907668
11.28 -0.829435
11.29 -0.732671
11.3 -0.618619
11.31 -0.485626
11.32 -0.333754
11.33 -0.16494
11.34 0.0215807
11.35 0.221272
11.36 0.432854
11.37 0.651945
11.38 0.874805
11.39 1.09673
11.4 1.31354
11.41 1.51908
11.42 1.70995
11.43 1.88083
11.44 2.02726
11.45 2.14777
11.46 2.2355
11.47 2.29321
11.48 2.3162
11.49 2.30654
11.5 2.26519
11.51 2.19192
11.52 2.09269
11.53 1.96704
11.54 1.82205
11.55 1.66048
11.56 1.48713
11.57 1.3068
11.58 1.12344
11.59 0.941276
11.6 0.764091
11.61 0.59472
11.62 0.435337
11.63 0.288564
11.64 0.153932
11.65 0.0338094
11.66 -0.073746
11.67 -0.168563
11.68 -0.251786
11.69 -0.325439
11.7 -0.389905
11.71 -0.447987
11.72 -0.500456
11.73 -0.549091
11.74 -0.594964
11.75 -0.638839
11.76 -0.681431
11.77 -0.722761
11.78 -0.762857
11.79 -0.801227
11.8 -0.83713
11.81 -0.869947
11.82 -0.898057
11.83 -0.921057
11.84 -0.93717
11.85 -0.945667
11.86 -0.945653
11.87 -0.935548
11.88 -0.915855
11.89 -0.884503
11.9 -0.842603
11.91 -0.789407
11.92 -0.725057
11.93 -0.650679
11.94 -0.565535
11.95 -0.471937
11.96 -0.369918
11.97 -0.261288
11.98 -0.147397
11.99 -0.0296561
12 0.0899099
12.01 0.209525
12.02 0.327203
12.03 0.440873
12.04 0.548297
12.05 0.648106
12.06 0.736991
12.07 0.814781
12.08 0.878524
12.09 0.92769
12.1 0.961439
12.11 0.977975
12.12 0.97906
12.13 0.962508
12.14 0.931105
12.15 0.884946
12.16 0.825597
12.17 0.755633
12.18 0.675938
12.19 0.590097
12.2 0.499812
12.21 0.407876
12.22 0.316423
12.23 0.227839
12.24 0.143442
12.25 0.0654744
12.26 -0.00581526
12.27 -0.0694662
12.28 -0.125332
12.29 -0.174254
12.3 -0.216045
12.31 -0.252703
12.32 -0.284894
12.33 -0.314346
12.34 -0.34238
12.35 -0.37037
12.36 -0.399348
12.37 -0.430391
12.38 -0.463731
12.39 -0.499573
12.4 -0.537537
