# xPDFsuite Configuration #
[PDF]
wavelength = 0.1432
dataformat = twotheta
inputfile = 1_1Pd_CeO2_cycle-00265.chi
backgroundfile = background-00000.chi
mode = xray
bgscale = 1.007
composition = CeO2
outputtype = gr
qmaxinst = 28.8974762299
qmin = 0.5
qmax = 27.9
rmax = 50.0
rmin = 0.0
rstep = 0.01
rpoly = 1.8657

[Misc]
inputdir = G:/SankarDec16/1Pd/Chi
savedir = D:/DATA/APS_CeO2/1Pd
backgroundfilefull = G:/SankarDec16/Background/background-00000.chi

#### start data
#S 1
#L r($\AA$)  G($\AA^{-2}$)
0 0
0.01 -0.00534751
0.02 -0.0102922
0.03 -0.0144192
0.04 -0.0174162
0.05 -0.0191093
0.06 -0.0192191
0.07 -0.0179316
0.08 -0.015157
0.09 -0.0112506
0.1 -0.00645814
0.11 -0.00115587
0.12 0.00424585
0.13 0.00928673
0.14 0.0136406
0.15 0.0169081
0.16 0.0188555
0.17 0.0193894
0.18 0.0183194
0.19 0.015919
0.2 0.0121993
0.21 0.00757416
0.22 0.00234973
0.23 -0.00305162
0.24 -0.00824372
0.25 -0.0127307
0.26 -0.0162787
0.27 -0.018523
0.28 -0.0193196
0.29 -0.0186602
0.3 -0.0164528
0.31 -0.0130456
0.32 -0.00854974
0.33 -0.00341884
0.34 0.00199561
0.35 0.00724487
0.36 0.0119855
0.37 0.0157098
0.38 0.0182872
0.39 0.0194054
0.4 0.0190172
0.41 0.0172001
0.42 0.0139649
0.43 0.00971825
0.44 0.00466626
0.45 -0.000719276
0.46 -0.00605827
0.47 -0.0108967
0.48 -0.0149507
0.49 -0.017725
0.5 -0.0191987
0.51 -0.0191273
0.52 -0.0175628
0.53 -0.0146651
0.54 -0.010548
0.55 -0.00565704
0.56 -0.000283775
0.57 0.00510411
0.58 0.0101163
0.59 0.014315
0.6 0.0174896
0.61 0.0191815
0.62 0.0194806
0.63 0.0182223
0.64 0.0155556
0.65 0.0117156
0.66 0.00691395
0.67 0.00161414
0.68 -0.00382066
0.69 -0.00894904
0.7 -0.0133892
0.71 -0.0167402
0.72 -0.0188754
0.73 -0.019394
0.74 -0.0184929
0.75 -0.0160945
0.76 -0.0124378
0.77 -0.0078208
0.78 -0.00254216
0.79 0.00293973
0.8 0.00820949
0.81 0.0128737
0.82 0.0165792
0.83 0.0189829
0.84 0.0200478
0.85 0.0194531
0.86 0.0174912
0.87 0.0141758
0.88 0.00982157
0.89 0.0047723
0.9 -0.000605449
0.91 -0.00588634
0.92 -0.010632
0.93 -0.0145242
0.94 -0.0172669
0.95 -0.018606
0.96 -0.018604
0.97 -0.0170613
0.98 -0.0143536
0.99 -0.0106073
1 -0.00620839
1.01 -0.00153418
1.02 0.00297712
1.03 0.00696922
1.04 0.00998635
1.05 0.0118223
1.06 0.012263
1.07 0.0111764
1.08 0.00875681
1.09 0.00497076
1.1 0.000307814
1.11 -0.00494331
1.12 -0.0102813
1.13 -0.0152588
1.14 -0.0192861
1.15 -0.0220648
1.16 -0.0230224
1.17 -0.0220462
1.18 -0.0189428
1.19 -0.0136317
1.2 -0.00645777
1.21 0.00257758
1.22 0.0127886
1.23 0.0237854
1.24 0.0349125
1.25 0.0455925
1.26 0.0550675
1.27 0.0629427
1.28 0.0684547
1.29 0.0714059
1.3 0.0714673
1.31 0.0683973
1.32 0.0625316
1.33 0.0535875
1.34 0.0423381
1.35 0.0289805
1.36 0.0141426
1.37 -0.00158141
1.38 -0.0175849
1.39 -0.0332582
1.4 -0.047942
1.41 -0.0611946
1.42 -0.0725662
1.43 -0.0816148
1.44 -0.0883632
1.45 -0.0922632
1.46 -0.093714
1.47 -0.092534
1.48 -0.088952
1.49 -0.0832462
1.5 -0.0754702
1.51 -0.0661483
1.52 -0.0553758
1.53 -0.0435907
1.54 -0.0310422
1.55 -0.0180215
1.56 -0.00482634
1.57 0.00825745
1.58 0.0209789
1.59 0.0330362
1.6 0.0441565
1.61 0.0541275
1.62 0.0625167
1.63 0.0692791
1.64 0.073927
1.65 0.0764266
1.66 0.076553
1.67 0.0740887
1.68 0.0692525
1.69 0.0616787
1.7 0.0519087
1.71 0.039956
1.72 0.02624
1.73 0.0112141
1.74 -0.00470143
1.75 -0.0208807
1.76 -0.036756
1.77 -0.051774
1.78 -0.065418
1.79 -0.0771365
1.8 -0.0868088
1.81 -0.0938211
1.82 -0.0984894
1.83 -0.100653
1.84 -0.100621
1.85 -0.0988051
1.86 -0.0955492
1.87 -0.0915591
1.88 -0.0873694
1.89 -0.083619
1.9 -0.0808471
1.91 -0.0796163
1.92 -0.0800875
1.93 -0.0827845
1.94 -0.0874001
1.95 -0.0939649
1.96 -0.102062
1.97 -0.111177
1.98 -0.120701
1.99 -0.129903
2 -0.137916
2.01 -0.144049
2.02 -0.147569
2.03 -0.147682
2.04 -0.144287
2.05 -0.1364
2.06 -0.124541
2.07 -0.108361
2.08 -0.08821
2.09 -0.0645842
2.1 -0.0376549
2.11 -0.00837265
2.12 0.022965
2.13 0.0555904
2.14 0.089065
2.15 0.122979
2.16 0.157043
2.17 0.191132
2.18 0.225252
2.19 0.259534
2.2 0.294207
2.21 0.329491
2.22 0.365741
2.23 0.403004
2.24 0.441483
2.25 0.480948
2.26 0.52111
2.27 0.561358
2.28 0.600949
2.29 0.63855
2.3 0.673203
2.31 0.703233
2.32 0.727169
2.33 0.743919
2.34 0.751141
2.35 0.748975
2.36 0.735215
2.37 0.710388
2.38 0.674168
2.39 0.626578
2.4 0.569579
2.41 0.503127
2.42 0.430387
2.43 0.352849
2.44 0.273195
2.45 0.193785
2.46 0.117466
2.47 0.0460237
2.48 -0.0177123
2.49 -0.0727227
2.5 -0.117704
2.51 -0.151589
2.52 -0.175483
2.53 -0.188304
2.54 -0.192767
2.55 -0.189606
2.56 -0.181089
2.57 -0.169401
2.58 -0.156738
2.59 -0.145269
2.6 -0.137235
2.61 -0.13402
2.62 -0.136863
2.63 -0.146767
2.64 -0.163139
2.65 -0.186622
2.66 -0.215262
2.67 -0.248218
2.68 -0.283571
2.69 -0.319505
2.7 -0.353884
2.71 -0.38518
2.72 -0.411272
2.73 -0.431321
2.74 -0.444425
2.75 -0.449979
2.76 -0.44896
2.77 -0.441107
2.78 -0.428633
2.79 -0.41267
2.8 -0.395304
2.81 -0.378395
2.82 -0.364202
2.83 -0.354027
2.84 -0.349938
2.85 -0.352445
2.86 -0.362172
2.87 -0.379344
2.88 -0.402654
2.89 -0.431852
2.9 -0.464511
2.91 -0.499079
2.92 -0.533245
2.93 -0.565076
2.94 -0.592017
2.95 -0.613074
2.96 -0.626052
2.97 -0.630828
2.98 -0.627012
2.99 -0.614692
3 -0.595611
3.01 -0.57034
3.02 -0.541692
3.03 -0.511521
3.04 -0.482378
3.05 -0.456301
3.06 -0.435984
3.07 -0.422265
3.08 -0.417282
3.09 -0.420873
3.1 -0.433168
3.11 -0.453737
3.12 -0.48057
3.13 -0.512679
3.14 -0.547156
3.15 -0.581915
3.16 -0.614407
3.17 -0.642745
3.18 -0.664386
3.19 -0.678977
3.2 -0.684856
3.21 -0.682813
3.22 -0.673381
3.23 -0.657837
3.24 -0.638604
3.25 -0.617853
3.26 -0.598482
3.27 -0.583313
3.28 -0.57501
3.29 -0.575254
3.3 -0.586822
3.31 -0.609032
3.32 -0.643318
3.33 -0.687706
3.34 -0.740757
3.35 -0.800018
3.36 -0.862026
3.37 -0.923173
3.38 -0.979894
3.39 -1.02825
3.4 -1.06498
3.41 -1.08827
3.42 -1.0947
3.43 -1.08589
3.44 -1.06034
3.45 -1.02124
3.46 -0.970923
3.47 -0.913022
3.48 -0.852249
3.49 -0.793555
3.5 -0.741366
3.51 -0.700579
3.52 -0.674828
3.53 -0.665712
3.54 -0.676328
3.55 -0.703498
3.56 -0.746869
3.57 -0.800596
3.58 -0.859208
3.59 -0.914503
3.6 -0.958965
3.61 -0.979854
3.62 -0.970855
3.63 -0.919936
3.64 -0.818837
3.65 -0.663384
3.66 -0.441552
3.67 -0.159538
3.68 0.190634
3.69 0.599936
3.7 1.06383
3.71 1.57462
3.72 2.11701
3.73 2.68048
3.74 3.24649
3.75 3.79895
3.76 4.31984
3.77 4.7955
3.78 5.20313
3.79 5.53886
3.8 5.78131
3.81 5.92999
3.82 5.97851
3.83 5.92113
3.84 5.77086
3.85 5.5185
3.86 5.18753
3.87 4.78219
3.88 4.319
3.89 3.8146
3.9 3.28259
3.91 2.74185
3.92 2.20759
3.93 1.69406
3.94 1.21341
3.95 0.778477
3.96 0.391473
3.97 0.0662343
3.98 -0.203844
3.99 -0.414127
4 -0.568891
4.01 -0.675074
4.02 -0.734327
4.03 -0.75989
4.04 -0.75577
4.05 -0.733004
4.06 -0.698652
4.07 -0.660183
4.08 -0.623543
4.09 -0.594573
4.1 -0.575566
4.11 -0.569319
4.12 -0.576153
4.13 -0.594803
4.14 -0.624598
4.15 -0.661591
4.16 -0.7034
4.17 -0.746036
4.18 -0.786264
4.19 -0.820392
4.2 -0.846545
4.21 -0.860868
4.22 -0.863548
4.23 -0.85277
4.24 -0.828725
4.25 -0.792543
4.26 -0.744042
4.27 -0.686249
4.28 -0.619752
4.29 -0.547207
4.3 -0.470227
4.31 -0.390509
4.32 -0.309676
4.33 -0.228924
4.34 -0.149149
4.35 -0.0710516
4.36 0.00497934
4.37 0.0788513
4.38 0.150189
4.39 0.219246
4.4 0.285568
4.41 0.349101
4.42 0.409376
4.43 0.465529
4.44 0.517228
4.45 0.562553
4.46 0.601255
4.47 0.631552
4.48 0.652331
4.49 0.663072
4.5 0.661603
4.51 0.648986
4.52 0.623492
4.53 0.586363
4.54 0.537947
4.55 0.478844
4.56 0.411414
4.57 0.336197
4.58 0.25623
4.59 0.173138
4.6 0.0892819
4.61 0.00657418
4.62 -0.0726995
4.63 -0.147465
4.64 -0.215783
4.65 -0.27726
4.66 -0.331327
4.67 -0.377559
4.68 -0.417045
4.69 -0.449362
4.7 -0.476399
4.71 -0.498719
4.72 -0.517641
4.73 -0.53436
4.74 -0.5498
4.75 -0.56496
4.76 -0.5805
4.77 -0.596823
4.78 -0.614099
4.79 -0.632286
4.8 -0.65103
4.81 -0.669905
4.82 -0.688329
4.83 -0.705665
4.84 -0.721296
4.85 -0.734839
4.86 -0.74561
4.87 -0.753769
4.88 -0.75894
4.89 -0.761532
4.9 -0.76182
4.91 -0.760233
4.92 -0.757501
4.93 -0.754174
4.94 -0.750992
4.95 -0.748569
4.96 -0.747462
4.97 -0.747973
4.98 -0.75059
4.99 -0.755125
5 -0.761772
5.01 -0.770162
5.02 -0.78004
5.03 -0.791065
5.04 -0.802756
5.05 -0.814777
5.06 -0.826732
5.07 -0.838339
5.08 -0.849382
5.09 -0.859773
5.1 -0.869357
5.11 -0.878208
5.12 -0.886179
5.13 -0.893231
5.14 -0.899144
5.15 -0.903442
5.16 -0.905772
5.17 -0.904884
5.18 -0.900177
5.19 -0.890069
5.2 -0.873074
5.21 -0.848094
5.22 -0.812307
5.23 -0.765657
5.24 -0.70524
5.25 -0.631021
5.26 -0.54214
5.27 -0.43771
5.28 -0.319772
5.29 -0.187352
5.3 -0.04431
5.31 0.107781
5.32 0.265298
5.33 0.424553
5.34 0.580974
5.35 0.730718
5.36 0.868152
5.37 0.989675
5.38 1.09121
5.39 1.16784
5.4 1.2196
5.41 1.24008
5.42 1.23264
5.43 1.1949
5.44 1.12859
5.45 1.03707
5.46 0.920753
5.47 0.786556
5.48 0.636741
5.49 0.477566
5.5 0.313565
5.51 0.149999
5.52 -0.00898252
5.53 -0.157871
5.54 -0.294562
5.55 -0.415341
5.56 -0.518443
5.57 -0.603868
5.58 -0.669325
5.59 -0.718115
5.6 -0.749465
5.61 -0.766738
5.62 -0.771861
5.63 -0.766976
5.64 -0.755375
5.65 -0.738567
5.66 -0.719277
5.67 -0.69885
5.68 -0.678508
5.69 -0.65879
5.7 -0.639869
5.71 -0.621278
5.72 -0.602267
5.73 -0.581811
5.74 -0.55881
5.75 -0.531874
5.76 -0.500524
5.77 -0.463211
5.78 -0.420423
5.79 -0.371805
5.8 -0.318094
5.81 -0.260525
5.82 -0.200356
5.83 -0.139719
5.84 -0.0807923
5.85 -0.0258121
5.86 0.0230362
5.87 0.0630742
5.88 0.0935696
5.89 0.111295
5.9 0.117064
5.91 0.109491
5.92 0.0889936
5.93 0.0569346
5.94 0.013354
5.95 -0.0385869
5.96 -0.0978606
5.97 -0.161572
5.98 -0.227642
5.99 -0.293736
6 -0.358053
6.01 -0.41841
6.02 -0.474102
6.03 -0.523965
6.04 -0.567751
6.05 -0.605912
6.06 -0.638392
6.07 -0.666797
6.08 -0.691764
6.09 -0.714848
6.1 -0.737176
6.11 -0.759945
6.12 -0.78391
6.13 -0.809931
6.14 -0.83795
6.15 -0.867989
6.16 -0.89947
6.17 -0.931578
6.18 -0.963188
6.19 -0.993235
6.2 -1.02025
6.21 -1.04328
6.22 -1.06142
6.23 -1.07371
6.24 -1.08052
6.25 -1.0811
6.26 -1.07684
6.27 -1.06823
6.28 -1.05661
6.29 -1.04339
6.3 -1.02995
6.31 -1.01751
6.32 -1.00719
6.33 -0.999315
6.34 -0.993776
6.35 -0.98972
6.36 -0.985479
6.37 -0.978182
6.38 -0.964942
6.39 -0.941361
6.4 -0.902685
6.41 -0.845321
6.42 -0.761326
6.43 -0.649814
6.44 -0.502846
6.45 -0.319683
6.46 -0.0978151
6.47 0.165721
6.48 0.465831
6.49 0.805834
6.5 1.17611
6.51 1.5734
6.52 1.98919
6.53 2.41441
6.54 2.83884
6.55 3.25241
6.56 3.64221
6.57 3.9987
6.58 4.31179
6.59 4.56879
6.6 4.76851
6.61 4.89452
6.62 4.95269
6.63 4.93563
6.64 4.84483
6.65 4.68679
6.66 4.45871
6.67 4.17656
6.68 3.8422
6.69 3.4699
6.7 3.06927
6.71 2.65127
6.72 2.22783
6.73 1.81014
6.74 1.40724
6.75 1.02873
6.76 0.682039
6.77 0.370416
6.78 0.102529
6.79 -0.125671
6.8 -0.308795
6.81 -0.451662
6.82 -0.556338
6.83 -0.624971
6.84 -0.66553
6.85 -0.679047
6.86 -0.674349
6.87 -0.654884
6.88 -0.625952
6.89 -0.591848
6.9 -0.555871
6.91 -0.520793
6.92 -0.488638
6.93 -0.460292
6.94 -0.436141
6.95 -0.416199
6.96 -0.399472
6.97 -0.385537
6.98 -0.373103
6.99 -0.36148
7 -0.34999
7.01 -0.338348
7.02 -0.326617
7.03 -0.315257
7.04 -0.305196
7.05 -0.297535
7.06 -0.293573
7.07 -0.295134
7.08 -0.302902
7.09 -0.319295
7.1 -0.34408
7.11 -0.37843
7.12 -0.422246
7.13 -0.474533
7.14 -0.535147
7.15 -0.601467
7.16 -0.672138
7.17 -0.744396
7.18 -0.815892
7.19 -0.883716
7.2 -0.946046
7.21 -0.999529
7.22 -1.0436
7.23 -1.07632
7.24 -1.09717
7.25 -1.10685
7.26 -1.10474
7.27 -1.09367
7.28 -1.07437
7.29 -1.04975
7.3 -1.02203
7.31 -0.993812
7.32 -0.967297
7.33 -0.945086
7.34 -0.928197
7.35 -0.918021
7.36 -0.91482
7.37 -0.917813
7.38 -0.926445
7.39 -0.93816
7.4 -0.950761
7.41 -0.961079
7.42 -0.966031
7.43 -0.96153
7.44 -0.945615
7.45 -0.913038
7.46 -0.863532
7.47 -0.793996
7.48 -0.703573
7.49 -0.593368
7.5 -0.461846
7.51 -0.31364
7.52 -0.149447
7.53 0.0258611
7.54 0.208464
7.55 0.393561
7.56 0.576414
7.57 0.751032
7.58 0.913681
7.59 1.05909
7.6 1.1832
7.61 1.28435
7.62 1.35689
7.63 1.40332
7.64 1.41975
7.65 1.40883
7.66 1.37152
7.67 1.30863
7.68 1.22541
7.69 1.12216
7.7 1.00515
7.71 0.876984
7.72 0.741983
7.73 0.603958
7.74 0.466595
7.75 0.332886
7.76 0.206244
7.77 0.0886526
7.78 -0.0180217
7.79 -0.111539
7.8 -0.192426
7.81 -0.257979
7.82 -0.310051
7.83 -0.347744
7.84 -0.371697
7.85 -0.383339
7.86 -0.382117
7.87 -0.370808
7.88 -0.349388
7.89 -0.320006
7.9 -0.283968
7.91 -0.242644
7.92 -0.198107
7.93 -0.151774
7.94 -0.105666
7.95 -0.0615536
7.96 -0.0213635
7.97 0.0135624
7.98 0.0406817
7.99 0.0596729
8 0.0682287
8.01 0.0661305
8.02 0.0527484
8.03 0.027198
8.04 -0.00901866
8.05 -0.0569487
8.06 -0.114019
8.07 -0.179576
8.08 -0.251673
8.09 -0.328154
8.1 -0.407171
8.11 -0.486327
8.12 -0.563473
8.13 -0.636749
8.14 -0.704588
8.15 -0.765227
8.16 -0.818646
8.17 -0.863181
8.18 -0.900024
8.19 -0.929026
8.2 -0.951145
8.21 -0.967781
8.22 -0.979671
8.23 -0.988704
8.24 -0.99576
8.25 -1.00199
8.26 -1.00794
8.27 -1.01372
8.28 -1.01897
8.29 -1.02242
8.3 -1.02265
8.31 -1.01723
8.32 -1.00328
8.33 -0.978509
8.34 -0.937751
8.35 -0.880042
8.36 -0.800005
8.37 -0.696412
8.38 -0.567173
8.39 -0.40935
8.4 -0.225776
8.41 -0.0131349
8.42 0.222815
8.43 0.480802
8.44 0.756001
8.45 1.04259
8.46 1.33496
8.47 1.62579
8.48 1.90733
8.49 2.17249
8.5 2.41438
8.51 2.62399
8.52 2.79931
8.53 2.92902
8.54 3.01517
8.55 3.05201
8.56 3.03878
8.57 2.97891
8.58 2.86851
8.59 2.71772
8.6 2.5262
8.61 2.3028
8.62 2.05345
8.63 1.78449
8.64 1.50473
8.65 1.22064
8.66 0.939789
8.67 0.668688
8.68 0.41344
8.69 0.177382
8.7 -0.0327431
8.71 -0.218085
8.72 -0.374102
8.73 -0.50262
8.74 -0.604258
8.75 -0.679334
8.76 -0.733018
8.77 -0.765279
8.78 -0.782362
8.79 -0.786666
8.8 -0.782259
8.81 -0.772832
8.82 -0.761369
8.83 -0.750765
8.84 -0.743424
8.85 -0.740846
8.86 -0.744048
8.87 -0.753938
8.88 -0.769764
8.89 -0.791952
8.9 -0.818829
8.91 -0.849664
8.92 -0.883042
8.93 -0.917595
8.94 -0.951982
8.95 -0.985092
8.96 -1.01572
8.97 -1.04324
8.98 -1.06715
8.99 -1.08694
9 -1.10306
9.01 -1.11516
9.02 -1.12415
9.03 -1.13032
9.04 -1.13431
9.05 -1.13678
9.06 -1.13813
9.07 -1.13891
9.08 -1.1393
9.09 -1.13939
9.1 -1.13904
9.11 -1.13784
9.12 -1.13537
9.13 -1.13063
9.14 -1.12307
9.15 -1.11158
9.16 -1.09517
9.17 -1.07336
9.18 -1.04452
9.19 -1.00908
9.2 -0.965812
9.21 -0.915188
9.22 -0.857395
9.23 -0.792614
9.24 -0.722419
9.25 -0.647276
9.26 -0.569304
9.27 -0.48995
9.28 -0.411255
9.29 -0.33495
9.3 -0.263613
9.31 -0.198362
9.32 -0.14174
9.33 -0.0947014
9.34 -0.0583572
9.35 -0.0342504
9.36 -0.0213684
9.37 -0.0214456
9.38 -0.0323098
9.39 -0.0538462
9.4 -0.0845753
9.41 -0.122453
9.42 -0.166298
9.43 -0.213355
9.44 -0.261887
9.45 -0.30966
9.46 -0.354911
9.47 -0.395616
9.48 -0.431041
9.49 -0.459225
9.5 -0.480504
9.51 -0.49422
9.52 -0.500682
9.53 -0.500914
9.54 -0.495185
9.55 -0.485497
9.56 -0.472818
9.57 -0.458938
9.58 -0.445267
9.59 -0.433422
9.6 -0.424352
9.61 -0.419656
9.62 -0.419528
9.63 -0.424719
9.64 -0.435336
9.65 -0.450876
9.66 -0.471498
9.67 -0.495869
9.68 -0.52363
9.69 -0.553629
9.7 -0.585048
9.71 -0.617061
9.72 -0.648967
9.73 -0.680152
9.74 -0.710354
9.75 -0.739336
9.76 -0.767074
9.77 -0.793715
9.78 -0.819229
9.79 -0.843816
9.8 -0.867253
9.81 -0.889248
9.82 -0.909162
9.83 -0.925632
9.84 -0.93763
9.85 -0.942155
9.86 -0.937621
9.87 -0.920531
9.88 -0.88737
9.89 -0.836029
9.9 -0.759982
9.91 -0.659403
9.92 -0.528084
9.93 -0.365453
9.94 -0.169832
9.95 0.0618109
9.96 0.32523
9.97 0.623866
9.98 0.950478
9.99 1.30312
10 1.67591
10.01 2.06177
10.02 2.45399
10.03 2.8439
10.04 3.22238
10.05 3.58099
10.06 3.91174
10.07 4.20376
10.08 4.4547
10.09 4.65111
10.1 4.79498
10.11 4.87946
10.12 4.90296
10.13 4.86955
10.14 4.77355
10.15 4.627
10.16 4.42873
10.17 4.18874
10.18 3.91376
10.19 3.61045
10.2 3.28956
10.21 2.95763
10.22 2.6242
10.23 2.29647
10.24 1.98174
10.25 1.68433
10.26 1.4118
10.27 1.16381
10.28 0.945381
10.29 0.755277
10.3 0.593031
10.31 0.458733
10.32 0.347076
10.33 0.258262
10.34 0.185895
10.35 0.127517
10.36 0.0790109
10.37 0.036501
10.38 -0.00290436
10.39 -0.0422875
10.4 -0.0839123
10.41 -0.129318
10.42 -0.179424
10.43 -0.234995
10.44 -0.295301
10.45 -0.360447
10.46 -0.428877
10.47 -0.49966
10.48 -0.571328
10.49 -0.64257
10.5 -0.711782
10.51 -0.77807
10.52 -0.839986
10.53 -0.89692
10.54 -0.948282
10.55 -0.993229
10.56 -1.03227
10.57 -1.06439
10.58 -1.09051
10.59 -1.11035
10.6 -1.12413
10.61 -1.13245
10.62 -1.13476
10.63 -1.13207
10.64 -1.1239
10.65 -1.11073
10.66 -1.09269
10.67 -1.06961
10.68 -1.04222
10.69 -1.01013
10.7 -0.97432
10.71 -0.935007
10.72 -0.892899
10.73 -0.848895
10.74 -0.803794
10.75 -0.758752
10.76 -0.714939
10.77 -0.673518
10.78 -0.635587
10.79 -0.602653
10.8 -0.575098
10.81 -0.554765
10.82 -0.54145
10.83 -0.536075
10.84 -0.538858
10.85 -0.549199
10.86 -0.567777
10.87 -0.592882
10.88 -0.624487
10.89 -0.661123
10.9 -0.701716
10.91 -0.745141
10.92 -0.789912
10.93 -0.834837
10.94 -0.87869
10.95 -0.920354
10.96 -0.958815
10.97 -0.993616
10.98 -1.02362
10.99 -1.04919
11 -1.06967
11.01 -1.08551
11.02 -1.09697
11.03 -1.10429
11.04 -1.10849
11.05 -1.10985
11.06 -1.10949
11.07 -1.10807
11.08 -1.10645
11.09 -1.10528
11.1 -1.10538
11.11 -1.10705
11.12 -1.11085
11.13 -1.11679
11.14 -1.12484
11.15 -1.13479
11.16 -1.14593
11.17 -1.15757
11.18 -1.16855
11.19 -1.17756
11.2 -1.1829
11.21 -1.18325
11.22 -1.17569
11.23 -1.15941
11.24 -1.1312
11.25 -1.0897
11.26 -1.03315
11.27 -0.958635
11.28 -0.866883
11.29 -0.754048
11.3 -0.622178
11.31 -0.470027
11.32 -0.29827
11.33 -0.1094
11.34 0.0967554
11.35 0.315247
11.36 0.544252
11.37 0.779088
11.38 1.01575
11.39 1.24913
11.4 1.47517
11.41 1.68723
11.42 1.88215
11.43 2.05443
11.44 2.19958
11.45 2.31631
11.46 2.39742
11.47 2.44609
11.48 2.45737
11.49 2.43359
11.5 2.37581
11.51 2.28381
11.52 2.16404
11.53 2.01606
11.54 1.84753
11.55 1.66158
11.56 1.46356
11.57 1.25884
11.58 1.0521
11.59 0.848096
11.6 0.651439
11.61 0.465479
11.62 0.292889
11.63 0.137035
11.64 -0.00272733
11.65 -0.123228
11.66 -0.227006
11.67 -0.313818
11.68 -0.385227
11.69 -0.444035
11.7 -0.491024
11.71 -0.530184
11.72 -0.56306
11.73 -0.592492
11.74 -0.620431
11.75 -0.648724
11.76 -0.678518
11.77 -0.710937
11.78 -0.745938
11.79 -0.783443
11.8 -0.82264
11.81 -0.862344
11.82 -0.90083
11.83 -0.936495
11.84 -0.966924
11.85 -0.990227
11.86 -1.00452
11.87 -1.00703
11.88 -0.997541
11.89 -0.972673
11.9 -0.933316
11.91 -0.878038
11.92 -0.806753
11.93 -0.720985
11.94 -0.61973
11.95 -0.506516
11.96 -0.381752
11.97 -0.248447
11.98 -0.108957
11.99 0.0341053
12 0.177713
12.01 0.318713
12.02 0.454494
12.03 0.582037
12.04 0.69848
12.05 0.802505
12.06 0.890024
12.07 0.961818
12.08 1.01478
12.09 1.04931
12.1 1.06527
12.11 1.06165
12.12 1.04131
12.13 1.00292
12.14 0.950224
12.15 0.884134
12.16 0.806969
12.17 0.721633
12.18 0.62978
12.19 0.534713
12.2 0.438495
12.21 0.343557
12.22 0.251751
12.23 0.165206
12.24 0.0845418
12.25 0.0117084
12.26 -0.0537243
12.27 -0.111207
12.28 -0.161051
12.29 -0.204401
12.3 -0.241428
12.31 -0.274179
12.32 -0.303497
12.33 -0.331044
12.34 -0.35807
12.35 -0.38588
12.36 -0.415275
12.37 -0.447247
12.38 -0.48181
12.39 -0.519058
12.4 -0.558489
