# xPDFsuite Configuration #
[PDF]
wavelength = 0.1432
dataformat = twotheta
inputfile = 1_1Pd_CeO2_cycle-00235.chi
backgroundfile = background-00000.chi
mode = xray
bgscale = 1.007
composition = CeO2
outputtype = gr
qmaxinst = 28.8974762299
qmin = 0.5
qmax = 27.9
rmax = 50.0
rmin = 0.0
rstep = 0.01
rpoly = 1.8657

[Misc]
inputdir = G:/SankarDec16/1Pd/Chi
savedir = D:/DATA/APS_CeO2/1Pd
backgroundfilefull = G:/SankarDec16/Background/background-00000.chi

#### start data
#S 1
#L r($\AA$)  G($\AA^{-2}$)
0 0
0.01 -0.00698061
0.02 -0.0134357
0.03 -0.0188241
0.04 -0.0227383
0.05 -0.0249512
0.06 -0.025098
0.07 -0.0234214
0.08 -0.0198036
0.09 -0.0147079
0.1 -0.00845457
0.11 -0.00153409
0.12 0.00551808
0.13 0.0121017
0.14 0.0177907
0.15 0.0220639
0.16 0.0246155
0.17 0.0253229
0.18 0.0239368
0.19 0.0208134
0.2 0.0159656
0.21 0.00993333
0.22 0.00311505
0.23 -0.00393854
0.24 -0.0107231
0.25 -0.016592
0.26 -0.0212385
0.27 -0.0241862
0.28 -0.0252456
0.29 -0.0244047
0.3 -0.0215412
0.31 -0.0171088
0.32 -0.0112503
0.33 -0.00455741
0.34 0.0025121
0.35 0.00937287
0.36 0.0155757
0.37 0.0204579
0.38 0.0238466
0.39 0.0253332
0.4 0.0248534
0.41 0.0225065
0.42 0.018304
0.43 0.0127754
0.44 0.00618736
0.45 -0.000844508
0.46 -0.00782459
0.47 -0.0141601
0.48 -0.0194785
0.49 -0.0231327
0.5 -0.0250919
0.51 -0.0250349
0.52 -0.0230262
0.53 -0.0192723
0.54 -0.0139183
0.55 -0.00754516
0.56 -0.000530719
0.57 0.00651383
0.58 0.0130788
0.59 0.0185917
0.6 0.0227747
0.61 0.025027
0.62 0.025462
0.63 0.0238615
0.64 0.0204166
0.65 0.0154313
0.66 0.0091785
0.67 0.00226311
0.68 -0.00484312
0.69 -0.0115622
0.7 -0.0173946
0.71 -0.0218149
0.72 -0.0246539
0.73 -0.0253852
0.74 -0.0242617
0.75 -0.0211785
0.76 -0.0164441
0.77 -0.0104459
0.78 -0.00357087
0.79 0.00358104
0.8 0.0104681
0.81 0.0165734
0.82 0.021433
0.83 0.0245949
0.84 0.026007
0.85 0.0252452
0.86 0.0226888
0.87 0.0183521
0.88 0.0126456
0.89 0.00601913
0.9 -0.00104657
0.91 -0.00799003
0.92 -0.0142316
0.93 -0.0193464
0.94 -0.0229373
0.95 -0.0246587
0.96 -0.0245846
0.97 -0.0224338
0.98 -0.0186966
0.99 -0.0135238
1 -0.00741721
1.01 -0.000872637
1.02 0.00554065
1.03 0.0113374
1.04 0.0159139
1.05 0.0189735
1.06 0.0202111
1.07 0.0194184
1.08 0.0168197
1.09 0.0123134
1.1 0.00651556
1.11 -0.000253221
1.12 -0.00737608
1.13 -0.014294
1.14 -0.0203013
1.15 -0.0249893
1.16 -0.0276692
1.17 -0.0281635
1.18 -0.0262204
1.19 -0.0217203
1.2 -0.0150459
1.21 -0.00618083
1.22 0.00408565
1.23 0.0153159
1.24 0.0267627
1.25 0.0377721
1.26 0.0475061
1.27 0.0555286
1.28 0.0610287
1.29 0.0638227
1.3 0.0636056
1.31 0.0601979
1.32 0.0540182
1.33 0.0449103
1.34 0.0337421
1.35 0.0208527
1.36 0.00697655
1.37 -0.00722974
1.38 -0.0210348
1.39 -0.0338991
1.4 -0.0451091
1.41 -0.0543638
1.42 -0.0613173
1.43 -0.0657009
1.44 -0.0677462
1.45 -0.0671659
1.46 -0.0645678
1.47 -0.0600521
1.48 -0.0540675
1.49 -0.0470311
1.5 -0.0392755
1.51 -0.0312323
1.52 -0.0231919
1.53 -0.0154062
1.54 -0.00804425
1.55 -0.00123145
1.56 0.00505602
1.57 0.0107463
1.58 0.0159784
1.59 0.0207696
1.6 0.0251933
1.61 0.0292929
1.62 0.0330247
1.63 0.0363827
1.64 0.0392019
1.65 0.0413732
1.66 0.0427019
1.67 0.0429297
1.68 0.0419855
1.69 0.0394607
1.7 0.0354614
1.71 0.029779
1.72 0.022481
1.73 0.0137299
1.74 0.00359593
1.75 -0.00747604
1.76 -0.0192389
1.77 -0.0312135
1.78 -0.0430047
1.79 -0.0541447
1.8 -0.0643624
1.81 -0.0731451
1.82 -0.0804977
1.83 -0.0861837
1.84 -0.0902761
1.85 -0.0929712
1.86 -0.0944094
1.87 -0.0950794
1.88 -0.0953105
1.89 -0.0955938
1.9 -0.0963321
1.91 -0.0979574
1.92 -0.100637
1.93 -0.104745
1.94 -0.110091
1.95 -0.116663
1.96 -0.124115
1.97 -0.132016
1.98 -0.139785
1.99 -0.146838
2 -0.152349
2.01 -0.155752
2.02 -0.156393
2.03 -0.15357
2.04 -0.147268
2.05 -0.136601
2.06 -0.122151
2.07 -0.103663
2.08 -0.0815568
2.09 -0.0563728
2.1 -0.0283896
2.11 0.00146633
2.12 0.0328015
2.13 0.0648902
2.14 0.0972919
2.15 0.129617
2.16 0.161683
2.17 0.193397
2.18 0.224929
2.19 0.256521
2.2 0.288561
2.21 0.32141
2.22 0.355619
2.23 0.39132
2.24 0.428914
2.25 0.468211
2.26 0.508997
2.27 0.550707
2.28 0.592489
2.29 0.633044
2.3 0.671177
2.31 0.7051
2.32 0.733114
2.33 0.753918
2.34 0.7649
2.35 0.766023
2.36 0.754801
2.37 0.731644
2.38 0.696085
2.39 0.648029
2.4 0.589542
2.41 0.52047
2.42 0.444264
2.43 0.362512
2.44 0.27816
2.45 0.19383
2.46 0.112669
2.47 0.0367171
2.48 -0.0308662
2.49 -0.0888813
2.5 -0.135833
2.51 -0.170484
2.52 -0.194018
2.53 -0.205195
2.54 -0.207023
2.55 -0.200312
2.56 -0.187603
2.57 -0.17136
2.58 -0.154079
2.59 -0.138223
2.6 -0.12637
2.61 -0.120115
2.62 -0.120906
2.63 -0.12993
2.64 -0.14653
2.65 -0.171515
2.66 -0.202643
2.67 -0.238997
2.68 -0.278385
2.69 -0.318712
2.7 -0.357539
2.71 -0.393045
2.72 -0.422775
2.73 -0.445683
2.74 -0.46067
2.75 -0.466953
2.76 -0.465587
2.77 -0.456166
2.78 -0.441194
2.79 -0.421898
2.8 -0.400643
2.81 -0.379567
2.82 -0.361241
2.83 -0.347238
2.84 -0.339957
2.85 -0.340085
2.86 -0.348418
2.87 -0.365327
2.88 -0.389398
2.89 -0.420476
2.9 -0.455826
2.91 -0.493763
2.92 -0.531674
2.93 -0.56734
2.94 -0.597869
2.95 -0.622024
2.96 -0.637271
2.97 -0.643352
2.98 -0.639729
2.99 -0.626385
3 -0.605222
3.01 -0.576763
3.02 -0.544178
3.03 -0.509507
3.04 -0.475646
3.05 -0.444947
3.06 -0.420498
3.07 -0.403364
3.08 -0.396064
3.09 -0.398548
3.1 -0.411087
3.11 -0.433341
3.12 -0.463096
3.13 -0.499398
3.14 -0.538919
3.15 -0.579352
3.16 -0.617752
3.17 -0.651876
3.18 -0.678736
3.19 -0.69772
3.2 -0.706736
3.21 -0.70644
3.22 -0.697196
3.23 -0.680158
3.24 -0.657967
3.25 -0.632707
3.26 -0.607737
3.27 -0.58608
3.28 -0.570814
3.29 -0.564001
3.3 -0.568868
3.31 -0.585048
3.32 -0.614425
3.33 -0.65522
3.34 -0.706208
3.35 -0.765121
3.36 -0.828335
3.37 -0.892413
3.38 -0.953374
3.39 -1.00716
3.4 -1.05015
3.41 -1.08018
3.42 -1.09349
3.43 -1.09132
3.44 -1.0718
3.45 -1.03789
3.46 -0.99168
3.47 -0.936588
3.48 -0.877388
3.49 -0.818815
3.5 -0.765577
3.51 -0.722596
3.52 -0.693734
3.53 -0.68084
3.54 -0.687216
3.55 -0.709986
3.56 -0.749032
3.57 -0.798732
3.58 -0.853797
3.59 -0.906205
3.6 -0.94846
3.61 -0.967996
3.62 -0.958378
3.63 -0.907607
3.64 -0.807329
3.65 -0.653253
3.66 -0.433291
3.67 -0.153462
3.68 0.19429
3.69 0.601072
3.7 1.06244
3.71 1.57079
3.72 2.11089
3.73 2.6723
3.74 3.23651
3.75 3.78748
3.76 4.30723
3.77 4.7821
3.78 5.18937
3.79 5.52516
3.8 5.76817
3.81 5.9179
3.82 5.96799
3.83 5.91273
3.84 5.76508
3.85 5.51587
3.86 5.18848
3.87 4.78707
3.88 4.32806
3.89 3.82791
3.9 3.30005
3.91 2.7632
3.92 2.23229
3.93 1.72144
3.94 1.24258
3.95 0.80835
3.96 0.42095
3.97 0.093956
3.98 -0.179051
3.99 -0.393485
4 -0.553458
4.01 -0.66568
4.02 -0.73161
4.03 -0.764115
4.04 -0.766887
4.05 -0.750598
4.06 -0.721979
4.07 -0.688109
4.08 -0.654805
4.09 -0.627462
4.1 -0.608489
4.11 -0.600511
4.12 -0.603956
4.13 -0.617783
4.14 -0.64144
4.15 -0.671462
4.16 -0.705764
4.17 -0.74084
4.18 -0.773863
4.19 -0.801625
4.2 -0.822507
4.21 -0.833199
4.22 -0.833883
4.23 -0.823018
4.24 -0.800778
4.25 -0.768119
4.26 -0.724836
4.27 -0.673453
4.28 -0.614329
4.29 -0.549594
4.3 -0.480441
4.31 -0.40806
4.32 -0.333737
4.33 -0.258099
4.34 -0.181942
4.35 -0.105636
4.36 -0.0295035
4.37 0.0462578
4.38 0.121337
4.39 0.195527
4.4 0.268226
4.41 0.338882
4.42 0.406643
4.43 0.470174
4.44 0.528774
4.45 0.580003
4.46 0.623436
4.47 0.656951
4.48 0.679313
4.49 0.690039
4.5 0.686838
4.51 0.671143
4.52 0.641296
4.53 0.598959
4.54 0.54479
4.55 0.479772
4.56 0.406609
4.57 0.326255
4.58 0.24195
4.59 0.155605
4.6 0.0697209
4.61 -0.0137927
4.62 -0.0925275
4.63 -0.16568
4.64 -0.231343
4.65 -0.289438
4.66 -0.339624
4.67 -0.381758
4.68 -0.417195
4.69 -0.445805
4.7 -0.469639
4.71 -0.489461
4.72 -0.506687
4.73 -0.522505
4.74 -0.537908
4.75 -0.553704
4.76 -0.570505
4.77 -0.588493
4.78 -0.607671
4.79 -0.627798
4.8 -0.648353
4.81 -0.668716
4.82 -0.688232
4.83 -0.706159
4.84 -0.721864
4.85 -0.735013
4.86 -0.744946
4.87 -0.751991
4.88 -0.755877
4.89 -0.757191
4.9 -0.756355
4.91 -0.753972
4.92 -0.75085
4.93 -0.747709
4.94 -0.745256
4.95 -0.744154
4.96 -0.744898
4.97 -0.747681
4.98 -0.752888
4.99 -0.760138
5 -0.769451
5.01 -0.780265
5.02 -0.792155
5.03 -0.804582
5.04 -0.817011
5.05 -0.828897
5.06 -0.839927
5.07 -0.849762
5.08 -0.858268
5.09 -0.865497
5.1 -0.871388
5.11 -0.876259
5.12 -0.880137
5.13 -0.883208
5.14 -0.885445
5.15 -0.886595
5.16 -0.886392
5.17 -0.883825
5.18 -0.878252
5.19 -0.868187
5.2 -0.852109
5.21 -0.828817
5.22 -0.79546
5.23 -0.751755
5.24 -0.694695
5.25 -0.624029
5.26 -0.53873
5.27 -0.437721
5.28 -0.32292
5.29 -0.193151
5.3 -0.0522413
5.31 0.0983481
5.32 0.255018
5.33 0.414046
5.34 0.57089
5.35 0.72156
5.36 0.860395
5.37 0.983644
5.38 1.08713
5.39 1.16579
5.4 1.21956
5.41 1.2419
5.42 1.23609
5.43 1.19965
5.44 1.13425
5.45 1.04325
5.46 0.926988
5.47 0.792456
5.48 0.641897
5.49 0.481653
5.5 0.316318
5.51 0.151224
5.52 -0.00937497
5.53 -0.159882
5.54 -0.298094
5.55 -0.420202
5.56 -0.52435
5.57 -0.610484
5.58 -0.676207
5.59 -0.724837
5.6 -0.755526
5.61 -0.771681
5.62 -0.775247
5.63 -0.768405
5.64 -0.754557
5.65 -0.735277
5.66 -0.713441
5.67 -0.690512
5.68 -0.667867
5.69 -0.646162
5.7 -0.625763
5.71 -0.606249
5.72 -0.587049
5.73 -0.567149
5.74 -0.545495
5.75 -0.520729
5.76 -0.492242
5.77 -0.4585
5.78 -0.419761
5.79 -0.375549
5.8 -0.326383
5.81 -0.2733
5.82 -0.217297
5.83 -0.160346
5.84 -0.104354
5.85 -0.0514429
5.86 -0.0036692
5.87 0.0364236
5.88 0.0680011
5.89 0.0879605
5.9 0.0968582
5.91 0.0932298
5.92 0.0772631
5.93 0.0500732
5.94 0.0114446
5.95 -0.0357246
5.96 -0.0906974
5.97 -0.15078
5.98 -0.214077
5.99 -0.278445
6 -0.342037
6.01 -0.402835
6.02 -0.459904
6.03 -0.512029
6.04 -0.558738
6.05 -0.600233
6.06 -0.636206
6.07 -0.667977
6.08 -0.695889
6.09 -0.721277
6.1 -0.745076
6.11 -0.768289
6.12 -0.791717
6.13 -0.816069
6.14 -0.841527
6.15 -0.868193
6.16 -0.895742
6.17 -0.923631
6.18 -0.951042
6.19 -0.977202
6.2 -1.00098
6.21 -1.02167
6.22 -1.03855
6.23 -1.05089
6.24 -1.05897
6.25 -1.06221
6.26 -1.06171
6.27 -1.05786
6.28 -1.05171
6.29 -1.04433
6.3 -1.03678
6.31 -1.02992
6.32 -1.02449
6.33 -1.02056
6.34 -1.01779
6.35 -1.01507
6.36 -1.01083
6.37 -1.002
6.38 -0.986
6.39 -0.958541
6.4 -0.915172
6.41 -0.852641
6.42 -0.763352
6.43 -0.646783
6.44 -0.495385
6.45 -0.308682
6.46 -0.084398
6.47 0.180199
6.48 0.480101
6.49 0.818456
6.5 1.18597
6.51 1.57951
6.52 1.99086
6.53 2.41133
6.54 2.83105
6.55 3.2403
6.56 3.62656
6.57 3.98053
6.58 4.29233
6.59 4.54948
6.6 4.75066
6.61 4.87955
6.62 4.94167
6.63 4.92946
6.64 4.84406
6.65 4.69158
6.66 4.46881
6.67 4.19139
6.68 3.86075
6.69 3.49096
6.7 3.0914
6.71 2.67287
6.72 2.24748
6.73 1.82631
6.74 1.41882
6.75 1.03481
6.76 0.682132
6.77 0.364424
6.78 0.0908252
6.79 -0.142382
6.8 -0.329349
6.81 -0.474686
6.82 -0.580269
6.83 -0.648068
6.84 -0.686268
6.85 -0.69581
6.86 -0.685991
6.87 -0.660495
6.88 -0.625071
6.89 -0.584441
6.9 -0.542412
6.91 -0.502095
6.92 -0.466011
6.93 -0.435248
6.94 -0.410387
6.95 -0.391623
6.96 -0.377719
6.97 -0.368339
6.98 -0.361685
6.99 -0.356811
7 -0.352558
7.01 -0.348186
7.02 -0.343214
7.03 -0.337739
7.04 -0.33216
7.05 -0.327355
7.06 -0.324407
7.07 -0.324935
7.08 -0.32987
7.09 -0.341506
7.1 -0.360137
7.11 -0.38718
7.12 -0.423026
7.13 -0.467152
7.14 -0.519959
7.15 -0.57923
7.16 -0.644151
7.17 -0.712226
7.18 -0.781353
7.19 -0.848876
7.2 -0.912765
7.21 -0.969849
7.22 -1.01907
7.23 -1.05829
7.24 -1.08655
7.25 -1.10409
7.26 -1.10979
7.27 -1.10607
7.28 -1.09313
7.29 -1.07358
7.3 -1.04938
7.31 -1.02283
7.32 -0.996265
7.33 -0.972068
7.34 -0.951668
7.35 -0.936579
7.36 -0.927437
7.37 -0.923872
7.38 -0.925734
7.39 -0.9309
7.4 -0.937627
7.41 -0.943076
7.42 -0.944451
7.43 -0.937985
7.44 -0.921654
7.45 -0.890499
7.46 -0.84394
7.47 -0.778842
7.48 -0.69407
7.49 -0.590388
7.5 -0.465974
7.51 -0.325025
7.52 -0.167863
7.53 0.000999565
7.54 0.178057
7.55 0.358868
7.56 0.538757
7.57 0.712113
7.58 0.875044
7.59 1.02239
7.6 1.15
7.61 1.25598
7.62 1.33462
7.63 1.388
7.64 1.41205
7.65 1.40905
7.66 1.37966
7.67 1.32438
7.68 1.24818
7.69 1.15101
7.7 1.03903
7.71 0.914585
7.72 0.781871
7.73 0.644713
7.74 0.506592
7.75 0.370757
7.76 0.240544
7.77 0.118191
7.78 0.00573539
7.79 -0.0943849
7.8 -0.182371
7.81 -0.255282
7.82 -0.314643
7.83 -0.359267
7.84 -0.389495
7.85 -0.406567
7.86 -0.409576
7.87 -0.401306
7.88 -0.381469
7.89 -0.352281
7.9 -0.315063
7.91 -0.271219
7.92 -0.223115
7.93 -0.172252
7.94 -0.121052
7.95 -0.0715432
7.96 -0.0260109
7.97 0.0139093
7.98 0.0452784
7.99 0.0676219
8 0.0783013
8.01 0.0770454
8.02 0.0631669
8.03 0.0357483
8.04 -0.00344086
8.05 -0.0553828
8.06 -0.117073
8.07 -0.187559
8.08 -0.264468
8.09 -0.345284
8.1 -0.427649
8.11 -0.508967
8.12 -0.586649
8.13 -0.658752
8.14 -0.723624
8.15 -0.779438
8.16 -0.826523
8.17 -0.863285
8.18 -0.891498
8.19 -0.911407
8.2 -0.924559
8.21 -0.932859
8.22 -0.937759
8.23 -0.941454
8.24 -0.94548
8.25 -0.951149
8.26 -0.959194
8.27 -0.969913
8.28 -0.982495
8.29 -0.99573
8.3 -1.00741
8.31 -1.01469
8.32 -1.01392
8.33 -1.00214
8.34 -0.973292
8.35 -0.925885
8.36 -0.853691
8.37 -0.755129
8.38 -0.627767
8.39 -0.468296
8.4 -0.279963
8.41 -0.0592047
8.42 0.187354
8.43 0.458058
8.44 0.747274
8.45 1.04836
8.46 1.3548
8.47 1.65852
8.48 1.95082
8.49 2.22406
8.5 2.47086
8.51 2.6817
8.52 2.85487
8.53 2.97866
8.54 3.05596
8.55 3.08131
8.56 3.05476
8.57 2.98061
8.58 2.85585
8.59 2.69151
8.6 2.48826
8.61 2.2556
8.62 2.00003
8.63 1.72856
8.64 1.44977
8.65 1.17063
8.66 0.897929
8.67 0.637937
8.68 0.396001
8.69 0.174583
8.7 -0.0204409
8.71 -0.191185
8.72 -0.334119
8.73 -0.451827
8.74 -0.545583
8.75 -0.616448
8.76 -0.66945
8.77 -0.705192
8.78 -0.729194
8.79 -0.743709
8.8 -0.752118
8.81 -0.757258
8.82 -0.761332
8.83 -0.766209
8.84 -0.773324
8.85 -0.783342
8.86 -0.796576
8.87 -0.813127
8.88 -0.832264
8.89 -0.853689
8.9 -0.876326
8.91 -0.899471
8.92 -0.922265
8.93 -0.944112
8.94 -0.964282
8.95 -0.982682
8.96 -0.998945
8.97 -1.01327
8.98 -1.02585
8.99 -1.03696
9 -1.04715
9.01 -1.05677
9.02 -1.06633
9.03 -1.07616
9.04 -1.08651
9.05 -1.09743
9.06 -1.10888
9.07 -1.12054
9.08 -1.13195
9.09 -1.14248
9.1 -1.15144
9.11 -1.15776
9.12 -1.16091
9.13 -1.15935
9.14 -1.1528
9.15 -1.14013
9.16 -1.12066
9.17 -1.09435
9.18 -1.05997
9.19 -1.01858
9.2 -0.969451
9.21 -0.913578
9.22 -0.851548
9.23 -0.783977
9.24 -0.712468
9.25 -0.637807
9.26 -0.561817
9.27 -0.48586
9.28 -0.411638
9.29 -0.340456
9.3 -0.274467
9.31 -0.214313
9.32 -0.162043
9.33 -0.118247
9.34 -0.0837432
9.35 -0.0597585
9.36 -0.0453953
9.37 -0.0421837
9.38 -0.0483594
9.39 -0.0639863
9.4 -0.0880064
9.41 -0.118828
9.42 -0.155773
9.43 -0.196517
9.44 -0.239846
9.45 -0.283838
9.46 -0.326983
9.47 -0.367537
9.48 -0.404575
9.49 -0.436305
9.5 -0.46259
9.51 -0.482556
9.52 -0.496052
9.53 -0.503633
9.54 -0.505048
9.55 -0.501875
9.56 -0.494563
9.57 -0.484614
9.58 -0.473208
9.59 -0.461709
9.6 -0.45128
9.61 -0.443383
9.62 -0.438691
9.63 -0.438186
9.64 -0.442433
9.65 -0.451383
9.66 -0.465705
9.67 -0.484451
9.68 -0.507747
9.69 -0.534686
9.7 -0.56464
9.71 -0.596977
9.72 -0.630761
9.73 -0.665446
9.74 -0.700287
9.75 -0.734777
9.76 -0.768423
9.77 -0.80093
9.78 -0.831732
9.79 -0.860702
9.8 -0.887129
9.81 -0.91053
9.82 -0.930113
9.83 -0.944366
9.84 -0.952552
9.85 -0.951656
9.86 -0.940621
9.87 -0.916276
9.88 -0.875627
9.89 -0.817036
9.9 -0.734583
9.91 -0.628766
9.92 -0.493924
9.93 -0.329677
9.94 -0.13451
9.95 0.0944287
9.96 0.35323
9.97 0.645281
9.98 0.963937
9.99 1.30758
10 1.67092
10.01 2.04736
10.02 2.43087
10.03 2.81318
10.04 3.18576
10.05 3.54046
10.06 3.86949
10.07 4.16226
10.08 4.41614
10.09 4.6178
10.1 4.76867
10.11 4.8616
10.12 4.89447
10.13 4.87079
10.14 4.78429
10.15 4.64649
10.16 4.45564
10.17 4.22136
10.18 3.95011
10.19 3.64818
10.2 3.32655
10.21 2.99151
10.22 2.65312
10.23 2.31877
10.24 1.99625
10.25 1.69038
10.26 1.40929
10.27 1.15315
10.28 0.927557
10.29 0.731689
10.3 0.565403
10.31 0.429173
10.32 0.317558
10.33 0.231048
10.34 0.162801
10.35 0.110209
10.36 0.0687233
10.37 0.033959
10.38 0.00251924
10.39 -0.029233
10.4 -0.0641492
10.41 -0.104214
10.42 -0.150722
10.43 -0.204882
10.44 -0.265875
10.45 -0.334175
10.46 -0.407801
10.47 -0.48572
10.48 -0.566049
10.49 -0.646944
10.5 -0.726297
10.51 -0.802569
10.52 -0.873668
10.53 -0.938423
10.54 -0.995766
10.55 -1.04426
10.56 -1.08441
10.57 -1.11464
10.58 -1.13624
10.59 -1.14892
10.6 -1.15322
10.61 -1.15029
10.62 -1.13999
10.63 -1.12411
10.64 -1.10283
10.65 -1.07734
10.66 -1.04837
10.67 -1.01652
10.68 -0.982724
10.69 -0.947365
10.7 -0.911217
10.71 -0.874741
10.72 -0.83849
10.73 -0.80289
10.74 -0.768585
10.75 -0.735851
10.76 -0.705369
10.77 -0.677492
10.78 -0.652648
10.79 -0.631537
10.8 -0.614121
10.81 -0.601399
10.82 -0.593105
10.83 -0.589771
10.84 -0.591564
10.85 -0.598193
10.86 -0.610284
10.87 -0.626926
10.88 -0.648413
10.89 -0.674048
10.9 -0.703388
10.91 -0.736056
10.92 -0.771099
10.93 -0.808115
10.94 -0.846109
10.95 -0.884403
10.96 -0.922148
10.97 -0.958694
10.98 -0.993044
10.99 -1.02487
11 -1.05329
11.01 -1.07801
11.02 -1.09875
11.03 -1.11501
11.04 -1.12726
11.05 -1.13503
11.06 -1.13915
11.07 -1.13984
11.08 -1.13773
11.09 -1.13365
11.1 -1.12824
11.11 -1.12248
11.12 -1.11714
11.13 -1.11297
11.14 -1.11051
11.15 -1.11033
11.16 -1.11228
11.17 -1.11651
11.18 -1.1222
11.19 -1.12854
11.2 -1.13413
11.21 -1.1375
11.22 -1.13602
11.23 -1.12815
11.24 -1.11055
11.25 -1.08108
11.26 -1.03737
11.27 -0.975728
11.28 -0.8962
11.29 -0.794046
11.3 -0.670868
11.31 -0.524793
11.32 -0.356097
11.33 -0.167308
11.34 0.0421755
11.35 0.266752
11.36 0.50457
11.37 0.750243
11.38 0.999175
11.39 1.24557
11.4 1.4846
11.41 1.7088
11.42 1.91443
11.43 2.09533
11.44 2.2465
11.45 2.36657
11.46 2.44779
11.47 2.49386
11.48 2.49971
11.49 2.46825
11.5 2.40101
11.51 2.29834
11.52 2.1674
11.53 2.00843
11.54 1.82971
11.55 1.63498
11.56 1.43009
11.57 1.22059
11.58 1.0117
11.59 0.807824
11.6 0.613742
11.61 0.432386
11.62 0.266076
11.63 0.117772
11.64 -0.013788
11.65 -0.125934
11.66 -0.221756
11.67 -0.301496
11.68 -0.367155
11.69 -0.421711
11.7 -0.466366
11.71 -0.504889
11.72 -0.538959
11.73 -0.571104
11.74 -0.603006
11.75 -0.636198
11.76 -0.671353
11.77 -0.709205
11.78 -0.749294
11.79 -0.791172
11.8 -0.833707
11.81 -0.875594
11.82 -0.914815
11.83 -0.949961
11.84 -0.978553
11.85 -0.99897
11.86 -1.00957
11.87 -1.00784
11.88 -0.993949
11.89 -0.964849
11.9 -0.921724
11.91 -0.863432
11.92 -0.790115
11.93 -0.70335
11.94 -0.602341
11.95 -0.490411
11.96 -0.367986
11.97 -0.237827
11.98 -0.102074
11.99 0.0369066
12 0.176377
12.01 0.313469
12.02 0.445783
12.03 0.570518
12.04 0.684968
12.05 0.78783
12.06 0.87515
12.07 0.947529
12.08 1.00185
12.09 1.0383
12.1 1.05659
12.11 1.05551
12.12 1.03773
12.13 1.00174
12.14 0.951156
12.15 0.886775
12.16 0.810861
12.17 0.726348
12.18 0.634872
12.19 0.539879
12.2 0.443506
12.21 0.348329
12.22 0.256319
12.23 0.169739
12.24 0.0892742
12.25 0.0169741
12.26 -0.0476146
12.27 -0.103951
12.28 -0.152422
12.29 -0.194289
12.3 -0.229867
12.31 -0.261351
12.32 -0.28977
12.33 -0.316924
12.34 -0.344174
12.35 -0.37297
12.36 -0.404058
12.37 -0.438526
12.38 -0.476212
12.39 -0.517126
12.4 -0.560572
