# xPDFsuite Configuration #
[PDF]
wavelength = 0.1432
dataformat = twotheta
inputfile = 1_1Pd_CeO2_cycle-00137.chi
backgroundfile = background-00000.chi
mode = xray
bgscale = 1.007
composition = CeO2
outputtype = gr
qmaxinst = 28.8974762299
qmin = 0.5
qmax = 27.9
rmax = 50.0
rmin = 0.0
rstep = 0.01
rpoly = 1.8657

[Misc]
inputdir = G:/SankarDec16/1Pd/Chi
savedir = D:/DATA/APS_CeO2/1Pd
backgroundfilefull = G:/SankarDec16/Background/background-00000.chi

#### start data
#S 1
#L r($\AA$)  G($\AA^{-2}$)
0 0
0.01 -0.00677777
0.02 -0.0130443
0.03 -0.0182731
0.04 -0.0220679
0.05 -0.0242083
0.06 -0.0243401
0.07 -0.0226998
0.08 -0.0191744
0.09 -0.0142151
0.1 -0.00813445
0.11 -0.00141061
0.12 0.00543575
0.13 0.0118198
0.14 0.0173286
0.15 0.0214556
0.16 0.0239054
0.17 0.0245607
0.18 0.0231815
0.19 0.0201165
0.2 0.0153815
0.21 0.00950317
0.22 0.00287111
0.23 -0.00397762
0.24 -0.0105535
0.25 -0.0162265
0.26 -0.0207019
0.27 -0.0235181
0.28 -0.0244947
0.29 -0.0236235
0.3 -0.0207907
0.31 -0.0164405
0.32 -0.010717
0.33 -0.00419715
0.34 0.00267142
0.35 0.0093183
0.36 0.0153091
0.37 0.0199993
0.38 0.0232266
0.39 0.0245972
0.4 0.0240547
0.41 0.021701
0.42 0.0175542
0.43 0.0121328
0.44 0.00570268
0.45 -0.00113659
0.46 -0.00790123
0.47 -0.0140147
0.48 -0.0191195
0.49 -0.0225876
0.5 -0.0243979
0.51 -0.0242436
0.52 -0.0221957
0.53 -0.0184617
0.54 -0.0131916
0.55 -0.00695327
0.56 -0.000121693
0.57 0.00670962
0.58 0.0130444
0.59 0.0183279
0.6 0.0222971
0.61 0.0243719
0.62 0.0246734
0.63 0.0229977
0.64 0.0195405
0.65 0.014605
0.66 0.00846704
0.67 0.00171618
0.68 -0.00518118
0.69 -0.0116663
0.7 -0.0172548
0.71 -0.0214402
0.72 -0.0240679
0.73 -0.0246334
0.74 -0.023395
0.75 -0.0202614
0.76 -0.0155437
0.77 -0.00962595
0.78 -0.00289565
0.79 0.00406494
0.8 0.0107224
0.81 0.0165803
0.82 0.0211917
0.83 0.0241246
0.84 0.0253403
0.85 0.0244371
0.86 0.0217966
0.87 0.0174448
0.88 0.0117912
0.89 0.0052788
0.9 -0.00161602
0.91 -0.00835233
0.92 -0.0143643
0.93 -0.01925
0.94 -0.0226319
0.95 -0.0241874
0.96 -0.0240024
0.97 -0.0218213
0.98 -0.0181313
0.99 -0.0130941
1 -0.00720508
1.01 -0.000948015
1.02 0.00511876
1.03 0.0105377
1.04 0.0147283
1.05 0.017424
1.06 0.0183488
1.07 0.017328
1.08 0.0146013
1.09 0.0101103
1.1 0.00446621
1.11 -0.00198694
1.12 -0.00863473
1.13 -0.0149293
1.14 -0.0201645
1.15 -0.0239702
1.16 -0.0256712
1.17 -0.0251327
1.18 -0.0221355
1.19 -0.0166025
1.2 -0.00894961
1.21 0.000785314
1.22 0.011793
1.23 0.0235901
1.24 0.0354034
1.25 0.0465649
1.26 0.0561929
1.27 0.0638726
1.28 0.0687536
1.29 0.0706768
1.3 0.0693354
1.31 0.0645535
1.32 0.0567897
1.33 0.0458779
1.34 0.032747
1.35 0.0177541
1.36 0.00168121
1.37 -0.0147697
1.38 -0.0308138
1.39 -0.0458597
1.4 -0.0591215
1.41 -0.0702444
1.42 -0.0788166
1.43 -0.0844892
1.44 -0.0874724
1.45 -0.0873544
1.46 -0.0847688
1.47 -0.0797372
1.48 -0.0727035
1.49 -0.0641043
1.5 -0.0542377
1.51 -0.0436424
1.52 -0.0326118
1.53 -0.0215219
1.54 -0.0106273
1.55 -0.000173581
1.56 0.0097386
1.57 0.0188805
1.58 0.0272849
1.59 0.0348155
1.6 0.0414354
1.61 0.0471227
1.62 0.051689
1.63 0.0551887
1.64 0.0573554
1.65 0.0581847
1.66 0.057526
1.67 0.0552089
1.68 0.0513346
1.69 0.0456047
1.7 0.0383344
1.71 0.029483
1.72 0.0193029
1.73 0.00809358
1.74 -0.0038694
1.75 -0.0161194
1.76 -0.0282439
1.77 -0.039809
1.78 -0.050416
1.79 -0.0596396
1.8 -0.0673781
1.81 -0.0731885
1.82 -0.0773228
1.83 -0.0797131
1.84 -0.0806545
1.85 -0.0805209
1.86 -0.0796981
1.87 -0.0787481
1.88 -0.0782136
1.89 -0.0785813
1.9 -0.0802935
1.91 -0.0837742
1.92 -0.0890214
1.93 -0.0963705
1.94 -0.10535
1.95 -0.115774
1.96 -0.127041
1.97 -0.138503
1.98 -0.149292
1.99 -0.158702
2 -0.165644
2.01 -0.169516
2.02 -0.169589
2.03 -0.165129
2.04 -0.156294
2.05 -0.1422
2.06 -0.123748
2.07 -0.100859
2.08 -0.0742495
2.09 -0.0447224
2.1 -0.012891
2.11 0.0201375
2.12 0.0536396
2.13 0.086801
2.14 0.119049
2.15 0.149903
2.16 0.179345
2.17 0.207207
2.18 0.23402
2.19 0.260174
2.2 0.286384
2.21 0.313316
2.22 0.341882
2.23 0.372479
2.24 0.405892
2.25 0.442101
2.26 0.481096
2.27 0.522492
2.28 0.565316
2.29 0.608453
2.3 0.650353
2.31 0.689146
2.32 0.722821
2.33 0.749761
2.34 0.767025
2.35 0.774231
2.36 0.76851
2.37 0.750014
2.38 0.718012
2.39 0.672156
2.4 0.614543
2.41 0.544747
2.42 0.4665
2.43 0.381383
2.44 0.292586
2.45 0.203006
2.46 0.116032
2.47 0.0340796
2.48 -0.0393782
2.49 -0.102831
2.5 -0.154511
2.51 -0.192893
2.52 -0.219105
2.53 -0.231602
2.54 -0.233554
2.55 -0.225691
2.56 -0.210694
2.57 -0.191218
2.58 -0.169887
2.59 -0.149489
2.6 -0.132801
2.61 -0.121705
2.62 -0.117872
2.63 -0.122731
2.64 -0.135733
2.65 -0.157929
2.66 -0.187031
2.67 -0.222219
2.68 -0.261251
2.69 -0.301935
2.7 -0.341793
2.71 -0.378797
2.72 -0.410404
2.73 -0.435389
2.74 -0.452527
2.75 -0.460907
2.76 -0.461503
2.77 -0.453809
2.78 -0.440329
2.79 -0.422258
2.8 -0.40199
2.81 -0.381707
2.82 -0.364017
2.83 -0.350566
2.84 -0.343799
2.85 -0.344451
2.86 -0.353345
2.87 -0.370858
2.88 -0.395559
2.89 -0.427256
2.9 -0.463155
2.91 -0.501496
2.92 -0.539586
2.93 -0.575142
2.94 -0.605164
2.95 -0.628415
2.96 -0.642282
2.97 -0.646553
2.98 -0.640718
2.99 -0.624826
3 -0.600911
3.01 -0.569616
3.02 -0.534283
3.03 -0.497128
3.04 -0.461225
3.05 -0.429054
3.06 -0.403922
3.07 -0.386891
3.08 -0.380649
3.09 -0.385075
3.1 -0.400421
3.11 -0.426274
3.12 -0.46021
3.13 -0.501158
3.14 -0.545499
3.15 -0.590708
3.16 -0.633571
3.17 -0.671639
3.18 -0.701621
3.19 -0.722842
3.2 -0.732954
3.21 -0.732638
3.22 -0.722225
3.23 -0.702882
3.24 -0.677468
3.25 -0.648109
3.26 -0.618501
3.27 -0.591857
3.28 -0.571544
3.29 -0.559864
3.3 -0.560343
3.31 -0.572749
3.32 -0.59923
3.33 -0.638049
3.34 -0.688055
3.35 -0.74702
3.36 -0.811155
3.37 -0.877043
3.38 -0.940418
3.39 -0.997089
3.4 -1.04321
3.41 -1.07643
3.42 -1.09275
3.43 -1.09329
3.44 -1.076
3.45 -1.04379
3.46 -0.998715
3.47 -0.944177
3.48 -0.885066
3.49 -0.82615
3.5 -0.772325
3.51 -0.728633
3.52 -0.699098
3.53 -0.685689
3.54 -0.691858
3.55 -0.71476
3.56 -0.754363
3.57 -0.804997
3.58 -0.861329
3.59 -0.915238
3.6 -0.959083
3.61 -0.980127
3.62 -0.971774
3.63 -0.921834
3.64 -0.8218
3.65 -0.667294
3.66 -0.446064
3.67 -0.16422
3.68 0.186357
3.69 0.5966
3.7 1.06192
3.71 1.57452
3.72 2.1189
3.73 2.68431
3.74 3.25201
3.75 3.80567
3.76 4.32704
3.77 4.80239
3.78 5.20873
3.79 5.54231
3.8 5.78175
3.81 5.92679
3.82 5.97128
3.83 5.90977
3.84 5.75561
3.85 5.50004
3.86 5.1668
3.87 4.76048
3.88 4.29784
3.89 3.79556
3.9 3.26747
3.91 2.73215
3.92 2.20477
3.93 1.69915
3.94 1.22707
3.95 0.800875
3.96 0.42228
3.97 0.104467
3.98 -0.159528
3.99 -0.365623
4 -0.518432
4.01 -0.624997
4.02 -0.687347
4.03 -0.718311
4.04 -0.721988
4.05 -0.708852
4.06 -0.685559
4.07 -0.659013
4.08 -0.634504
4.09 -0.617167
4.1 -0.608732
4.11 -0.611331
4.12 -0.624794
4.13 -0.647622
4.14 -0.678603
4.15 -0.714125
4.16 -0.751551
4.17 -0.787404
4.18 -0.818774
4.19 -0.842446
4.2 -0.85725
4.21 -0.85991
4.22 -0.851305
4.23 -0.830258
4.24 -0.797533
4.25 -0.754591
4.26 -0.70184
4.27 -0.642144
4.28 -0.576434
4.29 -0.507012
4.3 -0.435291
4.31 -0.362647
4.32 -0.290098
4.33 -0.218443
4.34 -0.147919
4.35 -0.0787183
4.36 -0.0107046
4.37 0.0563691
4.38 0.122639
4.39 0.188327
4.4 0.2533
4.41 0.317302
4.42 0.379763
4.43 0.439626
4.44 0.496117
4.45 0.547075
4.46 0.591741
4.47 0.627982
4.48 0.654293
4.49 0.669892
4.5 0.672252
4.51 0.662418
4.52 0.638448
4.53 0.601702
4.54 0.552595
4.55 0.491857
4.56 0.422137
4.57 0.344141
4.58 0.261233
4.59 0.175263
4.6 0.0888344
4.61 0.0040097
4.62 -0.076722
4.63 -0.152306
4.64 -0.220703
4.65 -0.28163
4.66 -0.334594
4.67 -0.379292
4.68 -0.417001
4.69 -0.447449
4.7 -0.472704
4.71 -0.493481
4.72 -0.511225
4.73 -0.527189
4.74 -0.542396
4.75 -0.557777
4.76 -0.574007
4.77 -0.591374
4.78 -0.609956
4.79 -0.629593
4.8 -0.649803
4.81 -0.67003
4.82 -0.689605
4.83 -0.707797
4.84 -0.72394
4.85 -0.737655
4.86 -0.748232
4.87 -0.755924
4.88 -0.76039
4.89 -0.76215
4.9 -0.761561
4.91 -0.759156
4.92 -0.755734
4.93 -0.751943
4.94 -0.748534
4.95 -0.74616
4.96 -0.745361
4.97 -0.746397
4.98 -0.749715
4.99 -0.755037
5 -0.762486
5.01 -0.771607
5.02 -0.782077
5.03 -0.793487
5.04 -0.805343
5.05 -0.817262
5.06 -0.828901
5.07 -0.839999
5.08 -0.850409
5.09 -0.860121
5.1 -0.86907
5.11 -0.877407
5.12 -0.885079
5.13 -0.892091
5.14 -0.89826
5.15 -0.90313
5.16 -0.906294
5.17 -0.90648
5.18 -0.90297
5.19 -0.894087
5.2 -0.878217
5.21 -0.854151
5.22 -0.818909
5.23 -0.772388
5.24 -0.711553
5.25 -0.636373
5.26 -0.545982
5.27 -0.43952
5.28 -0.319166
5.29 -0.184025
5.3 -0.0381621
5.31 0.116679
5.32 0.276668
5.33 0.437961
5.34 0.595735
5.35 0.746109
5.36 0.883253
5.37 1.00359
5.38 1.10305
5.39 1.17673
5.4 1.2249
5.41 1.24122
5.42 1.22934
5.43 1.1871
5.44 1.11651
5.45 1.02114
5.46 0.901725
5.47 0.765263
5.48 0.614281
5.49 0.455042
5.5 0.292122
5.51 0.130795
5.52 -0.0249999
5.53 -0.169774
5.54 -0.30175
5.55 -0.417393
5.56 -0.515217
5.57 -0.595459
5.58 -0.656117
5.59 -0.700641
5.6 -0.728513
5.61 -0.743166
5.62 -0.746608
5.63 -0.741051
5.64 -0.729653
5.65 -0.713982
5.66 -0.696521
5.67 -0.678534
5.68 -0.661065
5.69 -0.644486
5.7 -0.62883
5.71 -0.613487
5.72 -0.597591
5.73 -0.580045
5.74 -0.559705
5.75 -0.535144
5.76 -0.505922
5.77 -0.470478
5.78 -0.429374
5.79 -0.382276
5.8 -0.329963
5.81 -0.273698
5.82 -0.214734
5.83 -0.1552
5.84 -0.0972245
5.85 -0.0429972
5.86 0.00536274
5.87 0.0452733
5.88 0.0760292
5.89 0.0945356
5.9 0.101575
5.91 0.09581
5.92 0.0776245
5.93 0.0482963
5.94 0.00780021
5.95 -0.0408804
5.96 -0.0968687
5.97 -0.157464
5.98 -0.220769
5.99 -0.284671
6 -0.347456
6.01 -0.407191
6.02 -0.463124
6.03 -0.514184
6.04 -0.56006
6.05 -0.601061
6.06 -0.637034
6.07 -0.669289
6.08 -0.69824
6.09 -0.725139
6.1 -0.750845
6.11 -0.776231
6.12 -0.801923
6.13 -0.82843
6.14 -0.855755
6.15 -0.883794
6.16 -0.912049
6.17 -0.939897
6.18 -0.96634
6.19 -0.990704
6.2 -1.0118
6.21 -1.02908
6.22 -1.04197
6.23 -1.04991
6.24 -1.05346
6.25 -1.05229
6.26 -1.04773
6.27 -1.04041
6.28 -1.0316
6.29 -1.02247
6.3 -1.01425
6.31 -1.00772
6.32 -1.00366
6.33 -1.00194
6.34 -1.00208
6.35 -1.00276
6.36 -1.00212
6.37 -0.996846
6.38 -0.984116
6.39 -0.95939
6.4 -0.91804
6.41 -0.856743
6.42 -0.767752
6.43 -0.650693
6.44 -0.498013
6.45 -0.30947
6.46 -0.0829782
6.47 0.183933
6.48 0.486006
6.49 0.826069
6.5 1.19466
6.51 1.58842
6.52 1.99902
6.53 2.41777
6.54 2.83475
6.55 3.2405
6.56 3.62264
6.57 3.97218
6.58 4.27957
6.59 4.53271
6.6 4.73058
6.61 4.85733
6.62 4.9186
6.63 4.90712
6.64 4.82411
6.65 4.67559
6.66 4.45841
6.67 4.18774
6.68 3.86484
6.69 3.50322
6.7 3.11185
6.71 2.70094
6.72 2.2822
6.73 1.86604
6.74 1.46174
6.75 1.07868
6.76 0.724565
6.77 0.403145
6.78 0.123422
6.79 -0.117737
6.8 -0.314295
6.81 -0.470202
6.82 -0.586787
6.83 -0.665336
6.84 -0.713484
6.85 -0.731368
6.86 -0.727988
6.87 -0.706486
6.88 -0.672371
6.89 -0.630429
6.9 -0.584233
6.91 -0.537525
6.92 -0.492963
6.93 -0.452362
6.94 -0.416888
6.95 -0.387471
6.96 -0.363517
6.97 -0.345547
6.98 -0.332149
6.99 -0.322977
7 -0.317167
7.01 -0.31394
7.02 -0.313078
7.03 -0.314031
7.04 -0.317043
7.05 -0.322219
7.06 -0.330005
7.07 -0.341208
7.08 -0.356061
7.09 -0.375898
7.1 -0.400595
7.11 -0.430896
7.12 -0.466859
7.13 -0.508009
7.14 -0.554441
7.15 -0.604676
7.16 -0.658069
7.17 -0.713006
7.18 -0.768119
7.19 -0.821686
7.2 -0.872493
7.21 -0.918501
7.22 -0.959164
7.23 -0.993176
7.24 -1.02002
7.25 -1.03992
7.26 -1.05225
7.27 -1.05858
7.28 -1.05905
7.29 -1.05528
7.3 -1.04843
7.31 -1.0398
7.32 -1.03072
7.33 -1.02232
7.34 -1.0153
7.35 -1.01018
7.36 -1.00693
7.37 -1.00505
7.38 -1.00367
7.39 -1.00142
7.4 -0.996421
7.41 -0.986792
7.42 -0.970471
7.43 -0.944633
7.44 -0.908407
7.45 -0.857993
7.46 -0.793798
7.47 -0.713761
7.48 -0.617609
7.49 -0.506457
7.5 -0.379418
7.51 -0.240142
7.52 -0.0893469
7.53 0.0692207
7.54 0.232607
7.55 0.397087
7.56 0.559125
7.57 0.714008
7.58 0.858953
7.59 0.989791
7.6 1.1033
7.61 1.19808
7.62 1.26939
7.63 1.31907
7.64 1.34357
7.65 1.34465
7.66 1.32268
7.67 1.27767
7.68 1.21366
7.69 1.12999
7.7 1.0318
7.71 0.920666
7.72 0.799956
7.73 0.672983
7.74 0.542423
7.75 0.411576
7.76 0.283308
7.77 0.160139
7.78 0.0443026
7.79 -0.0614772
7.8 -0.156694
7.81 -0.238
7.82 -0.306134
7.83 -0.359335
7.84 -0.397318
7.85 -0.420924
7.86 -0.428656
7.87 -0.423311
7.88 -0.404276
7.89 -0.37397
7.9 -0.333877
7.91 -0.285635
7.92 -0.23213
7.93 -0.175202
7.94 -0.117834
7.95 -0.0624885
7.96 -0.0118964
7.97 0.0320451
7.98 0.065983
7.99 0.0895133
8 0.0998014
8.01 0.0967867
8.02 0.0799508
8.03 0.0486105
8.04 0.00493744
8.05 -0.0517412
8.06 -0.11803
8.07 -0.192647
8.08 -0.272924
8.09 -0.356202
8.1 -0.439872
8.11 -0.521472
8.12 -0.598351
8.13 -0.668804
8.14 -0.731374
8.15 -0.784498
8.16 -0.828813
8.17 -0.863043
8.18 -0.889198
8.19 -0.907778
8.2 -0.920492
8.21 -0.929263
8.22 -0.935657
8.23 -0.94164
8.24 -0.948674
8.25 -0.957774
8.26 -0.969414
8.27 -0.983561
8.28 -0.999144
8.29 -1.01457
8.3 -1.02751
8.31 -1.03487
8.32 -1.03292
8.33 -1.01878
8.34 -0.986339
8.35 -0.934439
8.36 -0.856994
8.37 -0.752792
8.38 -0.619713
8.39 -0.454833
8.4 -0.261664
8.41 -0.0370692
8.42 0.212225
8.43 0.484325
8.44 0.773535
8.45 1.07331
8.46 1.3771
8.47 1.67718
8.48 1.965
8.49 2.23331
8.5 2.47503
8.51 2.681
8.52 2.84977
8.53 2.97
8.54 3.04466
8.55 3.0685
8.56 3.0416
8.57 2.96813
8.58 2.84509
8.59 2.68318
8.6 2.48289
8.61 2.2534
8.62 2.00093
8.63 1.73218
8.64 1.45555
8.65 1.1777
8.66 0.905433
8.67 0.644896
8.68 0.401491
8.69 0.177843
8.7 -0.0200611
8.71 -0.194019
8.72 -0.340259
8.73 -0.461061
8.74 -0.557442
8.75 -0.630165
8.76 -0.684172
8.77 -0.719791
8.78 -0.74265
8.79 -0.75497
8.8 -0.760275
8.81 -0.761638
8.82 -0.761471
8.83 -0.761995
8.84 -0.76496
8.85 -0.771347
8.86 -0.781733
8.87 -0.796531
8.88 -0.815035
8.89 -0.837222
8.9 -0.861822
8.91 -0.888119
8.92 -0.915041
8.93 -0.941697
8.94 -0.967086
8.95 -0.990724
8.96 -1.01188
8.97 -1.03042
8.98 -1.04626
8.99 -1.05937
9 -1.07028
9.01 -1.07911
9.02 -1.08658
9.03 -1.09308
9.04 -1.09911
9.05 -1.10504
9.06 -1.11115
9.07 -1.1175
9.08 -1.12404
9.09 -1.13045
9.1 -1.13628
9.11 -1.1408
9.12 -1.14341
9.13 -1.1428
9.14 -1.13841
9.15 -1.12903
9.16 -1.11369
9.17 -1.092
9.18 -1.06239
9.19 -1.02552
9.2 -0.980292
9.21 -0.927391
9.22 -0.867175
9.23 -0.800006
9.24 -0.727583
9.25 -0.650523
9.26 -0.570981
9.27 -0.490465
9.28 -0.411017
9.29 -0.334314
9.3 -0.262916
9.31 -0.197821
9.32 -0.141505
9.33 -0.0948147
9.34 -0.0587747
9.35 -0.0348363
9.36 -0.0219437
9.37 -0.0217545
9.38 -0.0321096
9.39 -0.0528816
9.4 -0.082623
9.41 -0.119348
9.42 -0.16193
9.43 -0.207705
9.44 -0.255023
9.45 -0.301741
9.46 -0.346171
9.47 -0.386393
9.48 -0.421692
9.49 -0.450213
9.5 -0.472258
9.51 -0.487201
9.52 -0.495326
9.53 -0.497592
9.54 -0.494243
9.55 -0.487156
9.56 -0.477228
9.57 -0.466127
9.58 -0.45516
9.59 -0.445812
9.6 -0.438959
9.61 -0.436048
9.62 -0.437244
9.63 -0.443204
9.64 -0.453994
9.65 -0.469133
9.66 -0.488713
9.67 -0.511526
9.68 -0.537208
9.69 -0.564729
9.7 -0.593365
9.71 -0.622397
9.72 -0.651257
9.73 -0.679459
9.74 -0.70685
9.75 -0.733308
9.76 -0.758904
9.77 -0.783821
9.78 -0.80813
9.79 -0.83197
9.8 -0.855158
9.81 -0.877318
9.82 -0.897748
9.83 -0.91501
9.84 -0.927951
9.85 -0.933482
9.86 -0.929902
9.87 -0.913628
9.88 -0.881068
9.89 -0.830086
9.9 -0.754106
9.91 -0.65336
9.92 -0.521664
9.93 -0.358544
9.94 -0.162421
9.95 0.0696038
9.96 0.33318
9.97 0.631573
9.98 0.957483
9.99 1.30885
10 1.67976
10.01 2.06314
10.02 2.45228
10.03 2.83868
10.04 3.21331
10.05 3.56797
10.06 3.89486
10.07 4.18338
10.08 4.43139
10.09 4.62576
10.1 4.76859
10.11 4.85324
10.12 4.87824
10.13 4.84758
10.14 4.75569
10.15 4.61429
10.16 4.42214
10.17 4.18887
10.18 3.92089
10.19 3.62447
10.2 3.31003
10.21 2.98362
10.22 2.65456
10.23 2.3297
10.24 2.01612
10.25 1.71817
10.26 1.44318
10.27 1.19117
10.28 0.967223
10.29 0.770517
10.3 0.600953
10.31 0.459077
10.32 0.340038
10.33 0.244591
10.34 0.166678
10.35 0.104267
10.36 0.053531
10.37 0.0106163
10.38 -0.027084
10.39 -0.0630472
10.4 -0.0995667
10.41 -0.138661
10.42 -0.181665
10.43 -0.229864
10.44 -0.283057
10.45 -0.34199
10.46 -0.405491
10.47 -0.473123
10.48 -0.543746
10.49 -0.616065
10.5 -0.68879
10.51 -0.760552
10.52 -0.829841
10.53 -0.895467
10.54 -0.956331
10.55 -1.01095
10.56 -1.05919
10.57 -1.09926
10.58 -1.13161
10.59 -1.15537
10.6 -1.17035
10.61 -1.17712
10.62 -1.17473
10.63 -1.16478
10.64 -1.14683
10.65 -1.12206
10.66 -1.09121
10.67 -1.05485
10.68 -1.01451
10.69 -0.970738
10.7 -0.925099
10.71 -0.878567
10.72 -0.832389
10.73 -0.787538
10.74 -0.74539
10.75 -0.706468
10.76 -0.672002
10.77 -0.642408
10.78 -0.618146
10.79 -0.59995
10.8 -0.587288
10.81 -0.581038
10.82 -0.580249
10.83 -0.585015
10.84 -0.594903
10.85 -0.60914
10.86 -0.627724
10.87 -0.649514
10.88 -0.674332
10.89 -0.701417
10.9 -0.730289
10.91 -0.760542
10.92 -0.791632
10.93 -0.823261
10.94 -0.855007
10.95 -0.886561
10.96 -0.917578
10.97 -0.947812
10.98 -0.976793
10.99 -1.00439
11 -1.03009
11.01 -1.05369
11.02 -1.07492
11.03 -1.09332
11.04 -1.10903
11.05 -1.12149
11.06 -1.13109
11.07 -1.13774
11.08 -1.14169
11.09 -1.14344
11.1 -1.14322
11.11 -1.14186
11.12 -1.13983
11.13 -1.1378
11.14 -1.13631
11.15 -1.13585
11.16 -1.13653
11.17 -1.13849
11.18 -1.14125
11.19 -1.14417
11.2 -1.14607
11.21 -1.1457
11.22 -1.14063
11.23 -1.12944
11.24 -1.10891
11.25 -1.07695
11.26 -1.03119
11.27 -0.967916
11.28 -0.887089
11.29 -0.783931
11.3 -0.659926
11.31 -0.513137
11.32 -0.343783
11.33 -0.154357
11.34 0.0557376
11.35 0.280871
11.36 0.51912
11.37 0.765015
11.38 1.01387
11.39 1.25974
11.4 1.49777
11.41 1.72035
11.42 1.92377
11.43 2.10184
11.44 2.24964
11.45 2.3659
11.46 2.44304
11.47 2.48495
11.48 2.48682
11.49 2.45179
11.5 2.38161
11.51 2.27693
11.52 2.14499
11.53 1.9863
11.54 1.80906
11.55 1.61707
11.56 1.4161
11.57 1.21144
11.58 1.00818
11.59 0.810312
11.6 0.622335
11.61 0.446794
11.62 0.285682
11.63 0.141556
11.64 0.0130188
11.65 -0.0976663
11.66 -0.193516
11.67 -0.274892
11.68 -0.343717
11.69 -0.402709
11.7 -0.452963
11.71 -0.497775
11.72 -0.538528
11.73 -0.577314
11.74 -0.615455
11.75 -0.654051
11.76 -0.693589
11.77 -0.734387
11.78 -0.776017
11.79 -0.817901
11.8 -0.858968
11.81 -0.898157
11.82 -0.933552
11.83 -0.9642
11.84 -0.987906
11.85 -1.00346
11.86 -1.00957
11.87 -1.00411
11.88 -0.987415
11.89 -0.956791
11.9 -0.913366
11.91 -0.85607
11.92 -0.784935
11.93 -0.701273
11.94 -0.604098
11.95 -0.496304
11.96 -0.377967
11.97 -0.251447
11.98 -0.118552
11.99 0.0187596
12 0.157836
12.01 0.296175
12.02 0.431221
12.03 0.560203
12.04 0.680226
12.05 0.789646
12.06 0.88424
12.07 0.964103
12.08 1.02568
12.09 1.06871
12.1 1.0925
12.11 1.09533
12.12 1.07982
12.13 1.04396
12.14 0.991563
12.15 0.923354
12.16 0.841767
12.17 0.750117
12.18 0.650251
12.19 0.546215
12.2 0.440556
12.21 0.336385
12.22 0.23611
12.23 0.142526
12.24 0.0564978
12.25 -0.0194095
12.26 -0.0857326
12.27 -0.141778
12.28 -0.188015
12.29 -0.226008
12.3 -0.256163
12.31 -0.281234
12.32 -0.302548
12.33 -0.322399
12.34 -0.342546
12.35 -0.364899
12.36 -0.390445
12.37 -0.420711
12.38 -0.455565
12.39 -0.495186
12.4 -0.538884
12.41 -0.585318
12.42 -0.633012
