# xPDFsuite Configuration #
[PDF]
wavelength = 0.1432
dataformat = twotheta
inputfile = 1_1Pd_CeO2_cycle-00380.chi
backgroundfile = background-00000.chi
mode = xray
bgscale = 1.007
composition = CeO2
outputtype = gr
qmaxinst = 28.8974762299
qmin = 0.5
qmax = 27.9
rmax = 50.0
rmin = 0.0
rstep = 0.01
rpoly = 1.8657

[Misc]
inputdir = G:/SankarDec16/1Pd/Chi
savedir = D:/DATA/APS_CeO2/1Pd
backgroundfilefull = G:/SankarDec16/Background/background-00000.chi

#### start data
#S 1
#L r($\AA$)  G($\AA^{-2}$)
0 0
0.01 -0.00655706
0.02 -0.01262
0.03 -0.0176798
0.04 -0.0213535
0.05 -0.0234278
0.06 -0.02356
0.07 -0.0219785
0.08 -0.0185734
0.09 -0.0137805
0.1 -0.00790151
0.11 -0.00139814
0.12 0.00522626
0.13 0.0114068
0.14 0.0167437
0.15 0.0207472
0.16 0.0231306
0.17 0.0237799
0.18 0.0224617
0.19 0.0195122
0.2 0.014945
0.21 0.00926856
0.22 0.00285843
0.23 -0.00376699
0.24 -0.0101341
0.25 -0.0156345
0.26 -0.0199817
0.27 -0.0227288
0.28 -0.0236995
0.29 -0.0228842
0.3 -0.0201707
0.31 -0.0159867
0.32 -0.010469
0.33 -0.00417434
0.34 0.00246588
0.35 0.00890108
0.36 0.0147104
0.37 0.0192711
0.38 0.0224238
0.39 0.0237862
0.4 0.023301
0.41 0.0210639
0.42 0.0170893
0.43 0.0118763
0.44 0.00567832
0.45 -0.000925819
0.46 -0.00746985
0.47 -0.0133971
0.48 -0.01836
0.49 -0.0217517
0.5 -0.0235476
0.51 -0.0234487
0.52 -0.0215198
0.53 -0.0179579
0.54 -0.0129036
0.55 -0.00690352
0.56 -0.000316059
0.57 0.00628565
0.58 0.0124231
0.59 0.0175599
0.6 0.0214391
0.61 0.0234989
0.62 0.0238512
0.63 0.0222952
0.64 0.019015
0.65 0.0142995
0.66 0.00840952
0.67 0.00191311
0.68 -0.00474383
0.69 -0.011021
0.7 -0.0164509
0.71 -0.0205432
0.72 -0.0231442
0.73 -0.0237642
0.74 -0.0226463
0.75 -0.0196972
0.76 -0.0152113
0.77 -0.00955486
0.78 -0.00309543
0.79 0.00360587
0.8 0.0100392
0.81 0.0157241
0.82 0.0202288
0.83 0.0231349
0.84 0.0243997
0.85 0.0236329
0.86 0.0211957
0.87 0.0171082
0.88 0.0117594
0.89 0.00557264
0.9 -0.000998415
0.91 -0.00743278
0.92 -0.0131889
0.93 -0.0178777
0.94 -0.0211351
0.95 -0.0226492
0.96 -0.0224993
0.97 -0.0204392
0.98 -0.0169347
0.99 -0.0121419
1 -0.00653859
1.01 -0.000592105
1.02 0.00515436
1.03 0.0102574
1.04 0.0141485
1.05 0.0165665
1.06 0.0172375
1.07 0.0159853
1.08 0.0130414
1.09 0.0083385
1.1 0.00247578
1.11 -0.00421466
1.12 -0.0111281
1.13 -0.0177208
1.14 -0.0232908
1.15 -0.0274569
1.16 -0.0295326
1.17 -0.0293587
1.18 -0.0266877
1.19 -0.0214012
1.2 -0.0138872
1.21 -0.00411606
1.22 0.00711732
1.23 0.0193846
1.24 0.0319361
1.25 0.0441095
1.26 0.0550564
1.27 0.0643108
1.28 0.0710256
1.29 0.0749684
1.3 0.0757758
1.31 0.0731872
1.32 0.0675742
1.33 0.0586471
1.34 0.0472567
1.35 0.0336356
1.36 0.0184758
1.37 0.0024237
1.38 -0.0138604
1.39 -0.0297387
1.4 -0.0445182
1.41 -0.0577617
1.42 -0.0690271
1.43 -0.0778981
1.44 -0.0844391
1.45 -0.0881507
1.46 -0.0894784
1.47 -0.0882942
1.48 -0.0848663
1.49 -0.0794921
1.5 -0.0722575
1.51 -0.0636533
1.52 -0.0537714
1.53 -0.042988
1.54 -0.0314988
1.55 -0.0195184
1.56 -0.00727795
1.57 0.00503939
1.58 0.0172225
1.59 0.0290464
1.6 0.0402685
1.61 0.0506755
1.62 0.0598571
1.63 0.0676866
1.64 0.0736477
1.65 0.0775982
1.66 0.0792238
1.67 0.0781903
1.68 0.0746272
1.69 0.0680264
1.7 0.0588907
1.71 0.0471396
1.72 0.033168
1.73 0.0174447
1.74 0.000375183
1.75 -0.0172998
1.76 -0.0349676
1.77 -0.0519365
1.78 -0.0675801
1.79 -0.0812099
1.8 -0.0926068
1.81 -0.101004
1.82 -0.106687
1.83 -0.109408
1.84 -0.109469
1.85 -0.10732
1.86 -0.103319
1.87 -0.0983052
1.88 -0.0928947
1.89 -0.0878766
1.9 -0.0839163
1.91 -0.0817246
1.92 -0.0815429
1.93 -0.0840517
1.94 -0.0889296
1.95 -0.0962656
1.96 -0.105598
1.97 -0.116327
1.98 -0.12776
1.99 -0.138989
2 -0.148985
2.01 -0.156875
2.02 -0.16175
2.03 -0.162618
2.04 -0.159319
2.05 -0.150642
2.06 -0.137193
2.07 -0.118554
2.08 -0.0951733
2.09 -0.0676898
2.1 -0.0364047
2.11 -0.00253529
2.12 0.0333943
2.13 0.07035
2.14 0.107646
2.15 0.144592
2.16 0.1808
2.17 0.215819
2.18 0.249743
2.19 0.282573
2.2 0.314625
2.21 0.346275
2.22 0.377967
2.23 0.410088
2.24 0.443045
2.25 0.476945
2.26 0.511776
2.27 0.547247
2.28 0.582784
2.29 0.61741
2.3 0.650149
2.31 0.679501
2.32 0.703963
2.33 0.722333
2.34 0.732233
2.35 0.733487
2.36 0.723746
2.37 0.703214
2.38 0.671317
2.39 0.627791
2.4 0.574412
2.41 0.510832
2.42 0.440186
2.43 0.363808
2.44 0.284385
2.45 0.204358
2.46 0.126599
2.47 0.0531438
2.48 -0.0130513
2.49 -0.0707046
2.5 -0.118305
2.51 -0.154547
2.52 -0.180388
2.53 -0.194496
2.54 -0.199575
2.55 -0.19624
2.56 -0.18678
2.57 -0.173463
2.58 -0.15853
2.59 -0.144372
2.6 -0.133363
2.61 -0.127118
2.62 -0.127064
2.63 -0.134421
2.64 -0.148715
2.65 -0.170826
2.66 -0.19879
2.67 -0.231876
2.68 -0.268143
2.69 -0.305694
2.7 -0.342366
2.71 -0.376419
2.72 -0.40563
2.73 -0.428949
2.74 -0.445312
2.75 -0.453921
2.76 -0.455639
2.77 -0.450002
2.78 -0.439204
2.79 -0.42427
2.8 -0.407276
2.81 -0.390123
2.82 -0.375055
2.83 -0.363524
2.84 -0.357633
2.85 -0.358042
2.86 -0.365469
2.87 -0.380258
2.88 -0.4012
2.89 -0.428148
2.9 -0.45873
2.91 -0.491464
2.92 -0.524072
2.93 -0.55463
2.94 -0.580622
2.95 -0.601009
2.96 -0.613627
2.97 -0.618317
2.98 -0.614685
2.99 -0.602824
3 -0.584448
3.01 -0.560171
3.02 -0.532773
3.03 -0.504134
3.04 -0.476803
3.05 -0.452802
3.06 -0.434843
3.07 -0.4237
3.08 -0.421498
3.09 -0.427998
3.1 -0.443261
3.11 -0.466764
3.12 -0.496406
3.13 -0.531056
3.14 -0.567735
3.15 -0.604221
3.16 -0.637874
3.17 -0.666759
3.18 -0.688201
3.19 -0.701915
3.2 -0.70615
3.21 -0.701794
3.22 -0.689424
3.23 -0.670391
3.24 -0.647279
3.25 -0.622343
3.26 -0.598673
3.27 -0.579226
3.28 -0.56683
3.29 -0.563286
3.3 -0.571554
3.31 -0.59099
3.32 -0.62319
3.33 -0.666188
3.34 -0.718593
3.35 -0.777997
3.36 -0.840847
3.37 -0.903617
3.38 -0.96258
3.39 -1.01379
3.4 -1.05388
3.41 -1.08095
3.42 -1.09149
3.43 -1.08699
3.44 -1.06584
3.45 -1.03109
3.46 -0.98495
3.47 -0.93089
3.48 -0.87352
3.49 -0.817543
3.5 -0.767332
3.51 -0.727575
3.52 -0.701785
3.53 -0.69151
3.54 -0.699632
3.55 -0.723116
3.56 -0.761465
3.57 -0.809032
3.58 -0.86046
3.59 -0.90774
3.6 -0.943699
3.61 -0.955916
3.62 -0.938499
3.63 -0.87988
3.64 -0.772285
3.65 -0.611908
3.66 -0.3874
3.67 -0.105024
3.68 0.242574
3.69 0.646418
3.7 1.10186
3.71 1.60117
3.72 2.12959
3.73 2.67663
3.74 3.22467
3.75 3.75814
3.76 4.2599
3.77 4.71709
3.78 5.10802
3.79 5.42941
3.8 5.66111
3.81 5.80304
3.82 5.84944
3.83 5.79518
3.84 5.65287
3.85 5.41404
3.86 5.10105
3.87 4.71797
3.88 4.2804
3.89 3.8039
3.9 3.30108
3.91 2.78951
3.92 2.28309
3.93 1.79494
3.94 1.33613
3.95 0.918295
3.96 0.543461
3.97 0.224076
3.98 -0.0457697
3.99 -0.261872
4 -0.427981
4.01 -0.550202
4.02 -0.629743
4.03 -0.678294
4.04 -0.698989
4.05 -0.701422
4.06 -0.691502
4.07 -0.675371
4.08 -0.658266
4.09 -0.644595
4.1 -0.636651
4.11 -0.636513
4.12 -0.644532
4.13 -0.659854
4.14 -0.681799
4.15 -0.707649
4.16 -0.735472
4.17 -0.762518
4.18 -0.786486
4.19 -0.80479
4.2 -0.816375
4.21 -0.818559
4.22 -0.811853
4.23 -0.795155
4.24 -0.768862
4.25 -0.733953
4.26 -0.690442
4.27 -0.640493
4.28 -0.584492
4.29 -0.52416
4.3 -0.460427
4.31 -0.394161
4.32 -0.326278
4.33 -0.257097
4.34 -0.187136
4.35 -0.116515
4.36 -0.0453784
4.37 0.026147
4.38 0.0979027
4.39 0.169563
4.4 0.240586
4.41 0.31027
4.42 0.377684
4.43 0.441402
4.44 0.500578
4.45 0.552733
4.46 0.597327
4.47 0.632215
4.48 0.656136
4.49 0.668602
4.5 0.667369
4.51 0.653869
4.52 0.626508
4.53 0.586952
4.54 0.535873
4.55 0.474256
4.56 0.404734
4.57 0.328221
4.58 0.247829
4.59 0.165352
4.6 0.083134
4.61 0.00295516
4.62 -0.0729914
4.63 -0.143964
4.64 -0.208257
4.65 -0.265813
4.66 -0.316342
4.67 -0.359731
4.68 -0.397187
4.69 -0.428585
4.7 -0.455713
4.71 -0.479196
4.72 -0.500209
4.73 -0.519731
4.74 -0.538491
4.75 -0.557151
4.76 -0.576081
4.77 -0.595395
4.78 -0.615019
4.79 -0.63466
4.8 -0.653944
4.81 -0.672245
4.82 -0.689185
4.83 -0.70418
4.84 -0.716857
4.85 -0.727111
4.86 -0.734575
4.87 -0.739724
4.88 -0.742557
4.89 -0.743726
4.9 -0.743734
4.91 -0.743233
4.92 -0.742865
4.93 -0.74335
4.94 -0.74509
4.95 -0.74857
4.96 -0.753999
4.97 -0.761316
4.98 -0.770583
4.99 -0.781249
5 -0.793034
5.01 -0.805292
5.02 -0.817492
5.03 -0.829012
5.04 -0.839484
5.05 -0.848306
5.06 -0.855484
5.07 -0.860814
5.08 -0.86444
5.09 -0.866662
5.1 -0.867701
5.11 -0.86808
5.12 -0.868092
5.13 -0.868045
5.14 -0.868034
5.15 -0.867909
5.16 -0.867309
5.17 -0.865315
5.18 -0.861054
5.19 -0.852982
5.2 -0.839402
5.21 -0.818945
5.22 -0.788622
5.23 -0.747993
5.24 -0.69394
5.25 -0.626134
5.26 -0.543508
5.27 -0.444968
5.28 -0.332478
5.29 -0.204895
5.3 -0.0661327
5.31 0.0822779
5.32 0.236666
5.33 0.393269
5.34 0.547505
5.35 0.695424
5.36 0.831407
5.37 0.951815
5.38 1.0526
5.39 1.1289
5.4 1.18079
5.41 1.20204
5.42 1.19599
5.43 1.16044
5.44 1.09715
5.45 1.0095
5.46 0.897997
5.47 0.769385
5.48 0.625926
5.49 0.473657
5.5 0.316935
5.51 0.160771
5.52 0.00906709
5.53 -0.133003
5.54 -0.263536
5.55 -0.379112
5.56 -0.478168
5.57 -0.560779
5.58 -0.624897
5.59 -0.673634
5.6 -0.706321
5.61 -0.726073
5.62 -0.734654
5.63 -0.733988
5.64 -0.727047
5.65 -0.715101
5.66 -0.700581
5.67 -0.684593
5.68 -0.668161
5.69 -0.651733
5.7 -0.635334
5.71 -0.618608
5.72 -0.6008
5.73 -0.58108
5.74 -0.558514
5.75 -0.531931
5.76 -0.501061
5.77 -0.464614
5.78 -0.423197
5.79 -0.376619
5.8 -0.32567
5.81 -0.271535
5.82 -0.215449
5.83 -0.1593
5.84 -0.105081
5.85 -0.0547223
5.86 -0.0101217
5.87 0.0264054
5.88 0.0543099
5.89 0.0707945
5.9 0.0766658
5.91 0.0707404
5.92 0.0534118
5.93 0.0258708
5.94 -0.0119039
5.95 -0.0571946
5.96 -0.109236
5.97 -0.165597
5.98 -0.224596
5.99 -0.284371
6 -0.343382
6.01 -0.399962
6.02 -0.453409
6.03 -0.502798
6.04 -0.547842
6.05 -0.588785
6.06 -0.625489
6.07 -0.65905
6.08 -0.689804
6.09 -0.718787
6.1 -0.746699
6.11 -0.774233
6.12 -0.801888
6.13 -0.830009
6.14 -0.858572
6.15 -0.887405
6.16 -0.916026
6.17 -0.943881
6.18 -0.970015
6.19 -0.993899
6.2 -1.01444
6.21 -1.0312
6.22 -1.04372
6.23 -1.05151
6.24 -1.05513
6.25 -1.05428
6.26 -1.0502
6.27 -1.04343
6.28 -1.03509
6.29 -1.02618
6.3 -1.01774
6.31 -1.01041
6.32 -1.00475
6.33 -1.00056
6.34 -0.997298
6.35 -0.993609
6.36 -0.987814
6.37 -0.976649
6.38 -0.957655
6.39 -0.926576
6.4 -0.879203
6.41 -0.812585
6.42 -0.719567
6.43 -0.600015
6.44 -0.446995
6.45 -0.260441
6.46 -0.0385253
6.47 0.220947
6.48 0.513025
6.49 0.840273
6.5 1.1939
6.51 1.57077
6.52 1.96318
6.53 2.3631
6.54 2.76134
6.55 3.14914
6.56 3.515
6.57 3.85058
6.58 4.14695
6.59 4.39277
6.6 4.58698
6.61 4.71465
6.62 4.78085
6.63 4.77857
6.64 4.70867
6.65 4.57657
6.66 4.3789
6.67 4.12978
6.68 3.82995
6.69 3.49198
6.7 3.12414
6.71 2.73575
6.72 2.33805
6.73 1.94049
6.74 1.55225
6.75 1.18215
6.76 0.837708
6.77 0.522817
6.78 0.246155
6.79 0.00523032
6.8 -0.193996
6.81 -0.354887
6.82 -0.478425
6.83 -0.565531
6.84 -0.623292
6.85 -0.651571
6.86 -0.658911
6.87 -0.648185
6.88 -0.624633
6.89 -0.592888
6.9 -0.556327
6.91 -0.518691
6.92 -0.482522
6.93 -0.449673
6.94 -0.421301
6.95 -0.398305
6.96 -0.380158
6.97 -0.36726
6.98 -0.35826
6.99 -0.352702
7 -0.349662
7.01 -0.34834
7.02 -0.348327
7.03 -0.349163
7.04 -0.350935
7.05 -0.353835
7.06 -0.358346
7.07 -0.36533
7.08 -0.375258
7.09 -0.38957
7.1 -0.408463
7.11 -0.432924
7.12 -0.463321
7.13 -0.499423
7.14 -0.541697
7.15 -0.588757
7.16 -0.640269
7.17 -0.694625
7.18 -0.750491
7.19 -0.80615
7.2 -0.86011
7.21 -0.910253
7.22 -0.955609
7.23 -0.994587
7.24 -1.02626
7.25 -1.05055
7.26 -1.06634
7.27 -1.07505
7.28 -1.07645
7.29 -1.07211
7.3 -1.06314
7.31 -1.05083
7.32 -1.03682
7.33 -1.02235
7.34 -1.00862
7.35 -0.996515
7.36 -0.986497
7.37 -0.97846
7.38 -0.97211
7.39 -0.966306
7.4 -0.959652
7.41 -0.950346
7.42 -0.936431
7.43 -0.915162
7.44 -0.885294
7.45 -0.843016
7.46 -0.788127
7.47 -0.718223
7.48 -0.632478
7.49 -0.531526
7.5 -0.413876
7.51 -0.282855
7.52 -0.138639
7.53 0.0151984
7.54 0.175875
7.55 0.339831
7.56 0.503222
7.57 0.66142
7.58 0.811088
7.59 0.947798
7.6 1.06785
7.61 1.16943
7.62 1.24731
7.63 1.303
7.64 1.33256
7.65 1.3376
7.66 1.31837
7.67 1.27481
7.68 1.21123
7.69 1.12702
7.7 1.02776
7.71 0.915336
7.72 0.793526
7.73 0.665972
7.74 0.5358
7.75 0.406428
7.76 0.281034
7.77 0.162091
7.78 0.0517714
7.79 -0.0473473
7.8 -0.135169
7.81 -0.208694
7.82 -0.2692
7.83 -0.315451
7.84 -0.34773
7.85 -0.367253
7.86 -0.373209
7.87 -0.368377
7.88 -0.352612
7.89 -0.328148
7.9 -0.296346
7.91 -0.25863
7.92 -0.217225
7.93 -0.173563
7.94 -0.129786
7.95 -0.0876666
7.96 -0.049134
7.97 -0.0155191
7.98 0.0107512
7.99 0.0293691
8 0.0381799
8.01 0.0370061
8.02 0.0252835
8.03 0.00220957
8.04 -0.0308059
8.05 -0.0747474
8.06 -0.127245
8.07 -0.187739
8.08 -0.254492
8.09 -0.325555
8.1 -0.399342
8.11 -0.47365
8.12 -0.546607
8.13 -0.616501
8.14 -0.681902
8.15 -0.741192
8.16 -0.794248
8.17 -0.839506
8.18 -0.877892
8.19 -0.90914
8.2 -0.933946
8.21 -0.953443
8.22 -0.968062
8.23 -0.979448
8.24 -0.988173
8.25 -0.995223
8.26 -1.00101
8.27 -1.00554
8.28 -1.00858
8.29 -1.00885
8.3 -1.00527
8.31 -0.99565
8.32 -0.977483
8.33 -0.948855
8.34 -0.905113
8.35 -0.845566
8.36 -0.765369
8.37 -0.663498
8.38 -0.538085
8.39 -0.386449
8.4 -0.211165
8.41 -0.00911583
8.42 0.214499
8.43 0.458643
8.44 0.71903
8.45 0.990403
8.46 1.26784
8.47 1.54458
8.48 1.81368
8.49 2.06856
8.5 2.30286
8.51 2.50821
8.52 2.68254
8.53 2.81527
8.54 2.90792
8.55 2.95489
8.56 2.95508
8.57 2.91134
8.58 2.81951
8.59 2.68878
8.6 2.51828
8.61 2.31602
8.62 2.08723
8.63 1.83744
8.64 1.57505
8.65 1.3056
8.66 1.03661
8.67 0.774076
8.68 0.523964
8.69 0.2898
8.7 0.0780373
8.71 -0.111759
8.72 -0.275043
8.73 -0.412988
8.74 -0.525764
8.75 -0.613204
8.76 -0.679856
8.77 -0.72521
8.78 -0.75502
8.79 -0.771255
8.8 -0.777615
8.81 -0.777632
8.82 -0.773912
8.83 -0.769507
8.84 -0.76662
8.85 -0.766945
8.86 -0.771611
8.87 -0.781632
8.88 -0.796585
8.89 -0.816974
8.9 -0.841458
8.91 -0.869456
8.92 -0.899745
8.93 -0.931105
8.94 -0.962306
8.95 -0.992305
8.96 -1.01996
8.97 -1.04462
8.98 -1.0658
8.99 -1.08297
9 -1.09654
9.01 -1.10615
9.02 -1.1127
9.03 -1.11647
9.04 -1.11814
9.05 -1.11841
9.06 -1.11777
9.07 -1.11683
9.08 -1.1159
9.09 -1.11517
9.1 -1.11459
9.11 -1.11386
9.12 -1.11259
9.13 -1.10991
9.14 -1.10518
9.15 -1.09732
9.16 -1.08527
9.17 -1.0684
9.18 -1.04503
9.19 -1.01532
9.2 -0.977936
9.21 -0.933106
9.22 -0.88084
9.23 -0.821092
9.24 -0.755336
9.25 -0.683782
9.26 -0.608547
9.27 -0.530947
9.28 -0.452997
9.29 -0.376502
9.3 -0.30397
9.31 -0.236743
9.32 -0.177383
9.33 -0.127038
9.34 -0.0869582
9.35 -0.0588295
9.36 -0.041807
9.37 -0.0377601
9.38 -0.0446352
9.39 -0.0624227
9.4 -0.0897233
9.41 -0.124518
9.42 -0.165704
9.43 -0.210475
9.44 -0.257127
9.45 -0.303381
9.46 -0.347445
9.47 -0.387288
9.48 -0.422115
9.49 -0.449986
9.5 -0.471191
9.51 -0.485089
9.52 -0.491991
9.53 -0.492918
9.54 -0.488188
9.55 -0.479775
9.56 -0.468683
9.57 -0.456678
9.58 -0.445149
9.59 -0.435687
9.6 -0.429162
9.61 -0.427112
9.62 -0.429622
9.63 -0.437335
9.64 -0.45023
9.65 -0.467708
9.66 -0.489743
9.67 -0.514974
9.68 -0.542876
9.69 -0.572276
9.7 -0.602319
9.71 -0.632125
9.72 -0.661111
9.73 -0.688617
9.74 -0.714573
9.75 -0.738818
9.76 -0.761486
9.77 -0.782887
9.78 -0.803157
9.79 -0.822654
9.8 -0.841337
9.81 -0.859042
9.82 -0.875247
9.83 -0.888749
9.84 -0.898511
9.85 -0.901724
9.86 -0.896729
9.87 -0.880117
9.88 -0.848389
9.89 -0.799383
9.9 -0.7267
9.91 -0.630376
9.92 -0.504315
9.93 -0.34788
9.94 -0.159392
9.95 0.0641358
9.96 0.31859
9.97 0.607328
9.98 0.923307
9.99 1.26464
10 1.62564
10.01 1.99942
10.02 2.37955
10.03 2.75767
10.04 3.12504
10.05 3.47361
10.06 3.79575
10.07 4.08115
10.08 4.32762
10.09 4.52243
10.1 4.66753
10.11 4.75645
10.12 4.78774
10.13 4.76524
10.14 4.68353
10.15 4.55393
10.16 4.37521
10.17 4.15664
10.18 3.90438
10.19 3.62437
10.2 3.32663
10.21 3.01682
10.22 2.70387
10.23 2.39417
10.24 2.09441
10.25 1.80866
10.26 1.54367
10.27 1.2995
10.28 1.08076
10.29 0.88667
10.3 0.717096
10.31 0.572471
10.32 0.44838
10.33 0.345466
10.34 0.258286
10.35 0.185045
10.36 0.122389
10.37 0.0669527
10.38 0.016598
10.39 -0.0316807
10.4 -0.0796765
10.41 -0.129043
10.42 -0.180805
10.43 -0.235861
10.44 -0.294071
10.45 -0.355815
10.46 -0.420232
10.47 -0.486875
10.48 -0.554849
10.49 -0.623228
10.5 -0.69095
10.51 -0.757165
10.52 -0.820716
10.53 -0.880847
10.54 -0.936807
10.55 -0.987511
10.56 -1.03297
10.57 -1.07176
10.58 -1.10425
10.59 -1.12966
10.6 -1.1477
10.61 -1.15871
10.62 -1.16163
10.63 -1.15762
10.64 -1.14598
10.65 -1.12752
10.66 -1.10264
10.67 -1.07157
10.68 -1.03565
10.69 -0.9951
10.7 -0.951482
10.71 -0.905655
10.72 -0.858904
10.73 -0.812388
10.74 -0.767539
10.75 -0.725249
10.76 -0.686949
10.77 -0.653386
10.78 -0.62529
10.79 -0.603699
10.8 -0.588235
10.81 -0.580055
10.82 -0.578196
10.83 -0.582833
10.84 -0.59347
10.85 -0.609162
10.86 -0.629792
10.87 -0.653911
10.88 -0.681106
10.89 -0.710323
10.9 -0.740845
10.91 -0.771977
10.92 -0.803103
10.93 -0.833676
10.94 -0.863384
10.95 -0.891907
10.96 -0.919057
10.97 -0.944841
10.98 -0.969029
10.99 -0.991849
11 -1.01316
11.01 -1.03309
11.02 -1.05167
11.03 -1.06881
11.04 -1.08468
11.05 -1.09905
11.06 -1.11208
11.07 -1.12369
11.08 -1.13387
11.09 -1.14276
11.1 -1.15024
11.11 -1.1566
11.12 -1.16181
11.13 -1.16605
11.14 -1.1694
11.15 -1.17181
11.16 -1.17333
11.17 -1.17357
11.18 -1.17228
11.19 -1.16879
11.2 -1.16217
11.21 -1.15168
11.22 -1.13525
11.23 -1.11222
11.24 -1.08005
11.25 -1.03737
11.26 -0.982485
11.27 -0.912544
11.28 -0.827749
11.29 -0.724246
11.3 -0.603362
11.31 -0.463493
11.32 -0.304764
11.33 -0.12916
11.34 0.0640007
11.35 0.270138
11.36 0.487872
11.37 0.712749
11.38 0.940947
11.39 1.16762
11.4 1.38855
11.41 1.59739
11.42 1.79071
11.43 1.96306
11.44 2.10988
11.45 2.2297
11.46 2.31547
11.47 2.37009
11.48 2.3887
11.49 2.37351
11.5 2.32551
11.51 2.2445
11.52 2.13667
11.53 2.00158
11.54 1.84656
11.55 1.67455
11.56 1.49055
11.57 1.29958
11.58 1.10583
11.59 0.91375
11.6 0.727367
11.61 0.549702
11.62 0.383096
11.63 0.230429
11.64 0.0911976
11.65 -0.0319253
11.66 -0.14103
11.67 -0.235853
11.68 -0.317588
11.69 -0.388452
11.7 -0.448813
11.71 -0.501844
11.72 -0.548431
11.73 -0.590682
11.74 -0.629929
11.75 -0.667246
11.76 -0.703602
11.77 -0.739368
11.78 -0.774732
11.79 -0.809447
11.8 -0.84293
11.81 -0.874549
11.82 -0.902873
11.83 -0.927241
11.84 -0.945878
11.85 -0.957773
11.86 -0.961785
11.87 -0.95603
11.88 -0.940663
11.89 -0.913213
11.9 -0.874488
11.91 -0.823375
11.92 -0.759702
11.93 -0.684492
11.94 -0.596618
11.95 -0.498606
11.96 -0.390318
11.97 -0.273819
11.98 -0.150677
11.99 -0.0225537
12 0.108046
12.01 0.238966
12.02 0.367715
12.03 0.491749
12.04 0.608327
12.05 0.715788
12.06 0.810203
12.07 0.89144
12.08 0.956122
12.09 1.00381
12.1 1.03371
12.11 1.04405
12.12 1.03711
12.13 1.01078
12.14 0.968493
12.15 0.910725
12.16 0.839573
12.17 0.758064
12.18 0.667645
12.19 0.572177
12.2 0.473834
12.21 0.375571
12.22 0.279653
12.23 0.18865
12.24 0.103599
12.25 0.0268565
12.26 -0.0417862
12.27 -0.10156
12.28 -0.152682
12.29 -0.196382
12.3 -0.23282
12.31 -0.264346
12.32 -0.291963
12.33 -0.317634
12.34 -0.342849
12.35 -0.369187
12.36 -0.397584
12.37 -0.429257
12.38 -0.464195
12.39 -0.502522
12.4 -0.543649
12.41 -0.586476
