# xPDFsuite Configuration #
[PDF]
wavelength = 0.1432
dataformat = twotheta
inputfile = 1_1Pd_CeO2_cycle-00298.chi
backgroundfile = background-00000.chi
mode = xray
bgscale = 1.007
composition = CeO2
outputtype = gr
qmaxinst = 28.8974762299
qmin = 0.5
qmax = 27.9
rmax = 50.0
rmin = 0.0
rstep = 0.01
rpoly = 1.8657

[Misc]
inputdir = G:/SankarDec16/1Pd/Chi
savedir = D:/DATA/APS_CeO2/1Pd
backgroundfilefull = G:/SankarDec16/Background/background-00000.chi

#### start data
#S 1
#L r($\AA$)  G($\AA^{-2}$)
0 0
0.01 -0.0064074
0.02 -0.0123333
0.03 -0.0172819
0.04 -0.0208794
0.05 -0.0229176
0.06 -0.0230617
0.07 -0.0215333
0.08 -0.0182236
0.09 -0.0135565
0.1 -0.00782441
0.11 -0.00147614
0.12 0.00499758
0.13 0.0110476
0.14 0.0162821
0.15 0.0202233
0.16 0.0225892
0.17 0.023266
0.18 0.0220229
0.19 0.0191844
0.2 0.0147597
0.21 0.00924209
0.22 0.00299513
0.23 -0.00347791
0.24 -0.00971402
0.25 -0.0151217
0.26 -0.0194167
0.27 -0.0221613
0.28 -0.0231785
0.29 -0.0224541
0.3 -0.0198722
0.31 -0.0158456
0.32 -0.0105011
0.33 -0.00437907
0.34 0.00210274
0.35 0.00840916
0.36 0.0141265
0.37 0.0186479
0.38 0.0218101
0.39 0.0232357
0.4 0.0228608
0.41 0.0207719
0.42 0.0169737
0.43 0.0119484
0.44 0.00593467
0.45 -0.000504306
0.46 -0.00691612
0.47 -0.0127579
0.48 -0.0176846
0.49 -0.0211024
0.5 -0.0229761
0.51 -0.0230066
0.52 -0.0212466
0.53 -0.0178794
0.54 -0.0130306
0.55 -0.0072299
0.56 -0.000817049
0.57 0.00564766
0.58 0.0116981
0.59 0.0168085
0.6 0.0207187
0.61 0.0228752
0.62 0.0233733
0.63 0.0220062
0.64 0.0189409
0.65 0.0144496
0.66 0.00877362
0.67 0.00246555
0.68 -0.00404898
0.69 -0.0102382
0.7 -0.0156438
0.71 -0.0197812
0.72 -0.0224873
0.73 -0.0232741
0.74 -0.022363
0.75 -0.0196485
0.76 -0.0154039
0.77 -0.00997691
0.78 -0.00371192
0.79 0.0028415
0.8 0.00919431
0.81 0.0148685
0.82 0.0194372
0.83 0.0224809
0.84 0.0239419
0.85 0.0234236
0.86 0.0212607
0.87 0.017455
0.88 0.0123709
0.89 0.00641182
0.9 4.91444e-06
0.91 -0.00633606
0.92 -0.0120913
0.93 -0.0168685
0.94 -0.0203051
0.95 -0.022084
0.96 -0.022264
0.97 -0.0205894
0.98 -0.0174961
0.99 -0.0131195
1 -0.00791175
1.01 -0.00232052
1.02 0.00313724
1.03 0.00802374
1.04 0.011791
1.05 0.0141738
1.06 0.0149
1.07 0.0137897
1.08 0.0110571
1.09 0.00663292
1.1 0.00109269
1.11 -0.00523995
1.12 -0.0117735
1.13 -0.0179729
1.14 -0.0231397
1.15 -0.0268945
1.16 -0.0285457
1.17 -0.0279282
1.18 -0.0247857
1.19 -0.0189882
1.2 -0.0109204
1.21 -0.00053952
1.22 0.0113506
1.23 0.0243191
1.24 0.0375989
1.25 0.050505
1.26 0.0621531
1.27 0.0720445
1.28 0.079275
1.29 0.0835734
1.3 0.0845258
1.31 0.0818134
1.32 0.0757997
1.33 0.0661131
1.34 0.0536432
1.35 0.0385907
1.36 0.0216773
1.37 0.00359514
1.38 -0.0149635
1.39 -0.0332633
1.4 -0.0505419
1.41 -0.0662579
1.42 -0.0798743
1.43 -0.0908601
1.44 -0.0992191
1.45 -0.104304
1.46 -0.106559
1.47 -0.105766
1.48 -0.102183
1.49 -0.0961305
1.5 -0.087668
1.51 -0.0774062
1.52 -0.0654571
1.53 -0.0523312
1.54 -0.0383184
1.55 -0.0237549
1.56 -0.00898313
1.57 0.00567467
1.58 0.0199353
1.59 0.0334643
1.6 0.0459613
1.61 0.0571943
1.62 0.0666907
1.63 0.0744037
1.64 0.0798006
1.65 0.0828463
1.66 0.0832957
1.67 0.080912
1.68 0.0759358
1.69 0.0679702
1.7 0.0576104
1.71 0.0448778
1.72 0.030239
1.73 0.0141979
1.74 -0.00276989
1.75 -0.0199748
1.76 -0.0367772
1.77 -0.0525694
1.78 -0.0667799
1.79 -0.0788038
1.8 -0.0885246
1.81 -0.0952792
1.82 -0.0994473
1.83 -0.100886
1.84 -0.0999779
1.85 -0.0972176
1.86 -0.0930508
1.87 -0.0882769
1.88 -0.0835589
1.89 -0.0796113
1.9 -0.0770561
1.91 -0.0765308
1.92 -0.0781664
1.93 -0.0825484
1.94 -0.0892373
1.95 -0.0982077
1.96 -0.108892
1.97 -0.120621
1.98 -0.132582
1.99 -0.143885
2 -0.153418
2.01 -0.160364
2.02 -0.163841
2.03 -0.162916
2.04 -0.157554
2.05 -0.146632
2.06 -0.130916
2.07 -0.110131
2.08 -0.0848758
2.09 -0.0559109
2.1 -0.0237253
2.11 0.0104387
2.12 0.0458921
2.13 0.0816269
2.14 0.116937
2.15 0.151149
2.16 0.184024
2.17 0.215155
2.18 0.244881
2.19 0.273367
2.2 0.301166
2.21 0.328865
2.22 0.357206
2.23 0.386708
2.24 0.418087
2.25 0.451522
2.26 0.487136
2.27 0.52475
2.28 0.563643
2.29 0.602964
2.3 0.641395
2.31 0.677328
2.32 0.708951
2.33 0.734754
2.34 0.751997
2.35 0.760179
2.36 0.756517
2.37 0.740944
2.38 0.712584
2.39 0.670856
2.4 0.617569
2.41 0.551995
2.42 0.477593
2.43 0.395643
2.44 0.309101
2.45 0.220741
2.46 0.133715
2.47 0.0505739
2.48 -0.0253067
2.49 -0.0921696
2.5 -0.148075
2.51 -0.191233
2.52 -0.22244
2.53 -0.239803
2.54 -0.246184
2.55 -0.241966
2.56 -0.229567
2.57 -0.211505
2.58 -0.190136
2.59 -0.168411
2.6 -0.149
2.61 -0.13407
2.62 -0.125491
2.63 -0.124995
2.64 -0.13241
2.65 -0.149175
2.66 -0.173347
2.67 -0.204489
2.68 -0.240639
2.69 -0.27975
2.7 -0.319621
2.71 -0.358032
2.72 -0.392532
2.73 -0.421567
2.74 -0.443673
2.75 -0.457588
2.76 -0.463872
2.77 -0.461571
2.78 -0.452832
2.79 -0.438436
2.8 -0.420492
2.81 -0.401058
2.82 -0.382474
2.83 -0.366643
2.84 -0.355963
2.85 -0.351577
2.86 -0.354617
2.87 -0.365907
2.88 -0.384478
2.89 -0.410709
2.9 -0.442167
2.91 -0.477578
2.92 -0.514545
2.93 -0.550886
2.94 -0.583882
2.95 -0.611933
2.96 -0.632436
2.97 -0.644646
2.98 -0.647639
2.99 -0.640887
3 -0.625851
3.01 -0.60243
3.02 -0.573542
3.03 -0.540772
3.04 -0.506823
3.05 -0.474051
3.06 -0.44537
3.07 -0.422305
3.08 -0.407475
3.09 -0.401415
3.1 -0.404857
3.11 -0.418069
3.12 -0.439354
3.13 -0.468501
3.14 -0.502489
3.15 -0.539564
3.16 -0.57704
3.17 -0.612696
3.18 -0.643813
3.19 -0.669265
3.2 -0.686924
3.21 -0.696796
3.22 -0.698757
3.23 -0.693309
3.24 -0.682461
3.25 -0.66751
3.26 -0.651361
3.27 -0.636385
3.28 -0.625275
3.29 -0.619957
3.3 -0.623231
3.31 -0.635178
3.32 -0.657548
3.33 -0.689165
3.34 -0.729208
3.35 -0.775969
3.36 -0.826511
3.37 -0.878053
3.38 -0.927222
3.39 -0.970592
3.4 -1.00505
3.41 -1.02871
3.42 -1.03831
3.43 -1.03487
3.44 -1.01682
3.45 -0.986704
3.46 -0.946404
3.47 -0.899008
3.48 -0.848701
3.49 -0.799862
3.5 -0.756581
3.51 -0.723329
3.52 -0.703502
3.53 -0.698641
3.54 -0.711606
3.55 -0.739523
3.56 -0.781973
3.57 -0.833473
3.58 -0.888771
3.59 -0.939933
3.6 -0.979791
3.61 -0.995845
3.62 -0.982056
3.63 -0.9266
3.64 -0.821382
3.65 -0.662305
3.66 -0.437465
3.67 -0.15299
3.68 0.199043
3.69 0.609703
3.7 1.07449
3.71 1.58577
3.72 2.12831
3.73 2.69157
3.74 3.25709
3.75 3.80873
3.76 4.32845
3.77 4.80257
3.78 5.20821
3.79 5.54153
3.8 5.78109
3.81 5.92646
3.82 5.97131
3.83 5.90997
3.84 5.75562
3.85 5.49925
3.86 5.16456
3.87 4.75602
3.88 4.29042
3.89 3.78454
3.9 3.25235
3.91 2.71268
3.92 2.18099
3.93 1.67142
3.94 1.19606
3.95 0.767617
3.96 0.387947
3.97 0.0706538
3.98 -0.191344
3.99 -0.393816
4 -0.541509
4.01 -0.641709
4.02 -0.696628
4.03 -0.719577
4.04 -0.715021
4.05 -0.693912
4.06 -0.66333
4.07 -0.630667
4.08 -0.601408
4.09 -0.581221
4.1 -0.57172
4.11 -0.575239
4.12 -0.591477
4.13 -0.618669
4.14 -0.655446
4.15 -0.697643
4.16 -0.742281
4.17 -0.785354
4.18 -0.823523
4.19 -0.853089
4.2 -0.872659
4.21 -0.878473
4.22 -0.871493
4.23 -0.850382
4.24 -0.816038
4.25 -0.770183
4.26 -0.713421
4.27 -0.649111
4.28 -0.578543
4.29 -0.504481
4.3 -0.428725
4.31 -0.35307
4.32 -0.278669
4.33 -0.206714
4.34 -0.137273
4.35 -0.0705954
4.36 -0.0063163
4.37 0.0561285
4.38 0.117189
4.39 0.177563
4.4 0.237566
4.41 0.297361
4.42 0.356754
4.43 0.41508
4.44 0.471594
4.45 0.524497
4.46 0.572717
4.47 0.614095
4.48 0.646784
4.49 0.669586
4.5 0.679547
4.51 0.677182
4.52 0.659996
4.53 0.628909
4.54 0.583929
4.55 0.52536
4.56 0.455876
4.57 0.375784
4.58 0.288855
4.59 0.196982
4.6 0.103172
4.61 0.00996159
4.62 -0.0796923
4.63 -0.164143
4.64 -0.240765
4.65 -0.308795
4.66 -0.367306
4.67 -0.415544
4.68 -0.454802
4.69 -0.484383
4.7 -0.506759
4.71 -0.522668
4.72 -0.533941
4.73 -0.542289
4.74 -0.549158
4.75 -0.556062
4.76 -0.564201
4.77 -0.574325
4.78 -0.586907
4.79 -0.602189
4.8 -0.619692
4.81 -0.639215
4.82 -0.659749
4.83 -0.680536
4.84 -0.700579
4.85 -0.719114
4.86 -0.735083
4.87 -0.748272
4.88 -0.757937
4.89 -0.764258
4.9 -0.767324
4.91 -0.767422
4.92 -0.765399
4.93 -0.761748
4.94 -0.757526
4.95 -0.753515
4.96 -0.750578
4.97 -0.749292
4.98 -0.750461
4.99 -0.754079
5 -0.760603
5.01 -0.76971
5.02 -0.781182
5.03 -0.794649
5.04 -0.809408
5.05 -0.824975
5.06 -0.840609
5.07 -0.855727
5.08 -0.869761
5.09 -0.882363
5.1 -0.892969
5.11 -0.901611
5.12 -0.907844
5.13 -0.911717
5.14 -0.913053
5.15 -0.911496
5.16 -0.907067
5.17 -0.898752
5.18 -0.886444
5.19 -0.86897
5.2 -0.845316
5.21 -0.814723
5.22 -0.774911
5.23 -0.725882
5.24 -0.665145
5.25 -0.592578
5.26 -0.50731
5.27 -0.408372
5.28 -0.297367
5.29 -0.173149
5.3 -0.0389696
5.31 0.104007
5.32 0.252695
5.33 0.403829
5.34 0.553414
5.35 0.697781
5.36 0.83177
5.37 0.951792
5.38 1.05384
5.39 1.133
5.4 1.18894
5.41 1.21521
5.42 1.21455
5.43 1.18429
5.44 1.12564
5.45 1.04156
5.46 0.931945
5.47 0.803475
5.48 0.657983
5.49 0.501633
5.5 0.338854
5.51 0.174836
5.52 0.0140092
5.53 -0.138125
5.54 -0.278992
5.55 -0.404635
5.56 -0.512889
5.57 -0.603406
5.58 -0.673494
5.59 -0.726225
5.6 -0.760479
5.61 -0.779527
5.62 -0.785198
5.63 -0.779572
5.64 -0.766154
5.65 -0.746454
5.66 -0.723569
5.67 -0.699046
5.68 -0.674436
5.69 -0.650562
5.7 -0.627941
5.71 -0.606285
5.72 -0.585147
5.73 -0.563579
5.74 -0.54057
5.75 -0.51479
5.76 -0.485585
5.77 -0.451429
5.78 -0.41249
5.79 -0.368261
5.8 -0.319206
5.81 -0.266319
5.82 -0.210583
5.83 -0.153951
5.84 -0.0983513
5.85 -0.0459233
5.86 0.00124471
5.87 0.040563
5.88 0.071187
5.89 0.0899622
5.9 0.0974762
5.91 0.0922695
5.92 0.0745849
5.93 0.0456108
5.94 0.0052326
5.95 -0.0435502
5.96 -0.0998573
5.97 -0.160894
5.98 -0.224662
5.99 -0.288902
6 -0.351787
6.01 -0.411198
6.02 -0.466333
6.03 -0.516021
6.04 -0.559943
6.05 -0.598476
6.06 -0.631522
6.07 -0.660605
6.08 -0.686323
6.09 -0.71018
6.1 -0.733273
6.11 -0.756775
6.12 -0.781431
6.13 -0.808085
6.14 -0.836682
6.15 -0.867236
6.16 -0.899162
6.17 -0.931641
6.18 -0.963525
6.19 -0.993746
6.2 -1.02079
6.21 -1.04372
6.22 -1.06159
6.23 -1.07342
6.24 -1.0796
6.25 -1.07935
6.26 -1.0741
6.27 -1.06436
6.28 -1.05153
6.29 -1.03706
6.3 -1.0224
6.31 -1.00884
6.32 -0.997581
6.33 -0.989003
6.34 -0.983059
6.35 -0.978956
6.36 -0.975011
6.37 -0.968417
6.38 -0.956211
6.39 -0.933984
6.4 -0.896909
6.41 -0.84131
6.42 -0.759159
6.43 -0.649467
6.44 -0.504191
6.45 -0.32251
6.46 -0.101842
6.47 0.160855
6.48 0.460475
6.49 0.800399
6.5 1.17093
6.51 1.56878
6.52 1.98536
6.53 2.41151
6.54 2.83689
6.55 3.25135
6.56 3.64186
6.57 3.99878
6.58 4.312
6.59 4.56873
6.6 4.76784
6.61 4.89284
6.62 4.94971
6.63 4.9311
6.64 4.83863
6.65 4.6789
6.66 4.44924
6.67 4.16572
6.68 3.83035
6.69 3.45744
6.7 3.05667
6.71 2.63906
6.72 2.21648
6.73 1.80015
6.74 1.39897
6.75 1.02249
6.76 0.677993
6.77 0.368615
6.78 0.102882
6.79 -0.123354
6.8 -0.304837
6.81 -0.44644
6.82 -0.550277
6.83 -0.618535
6.84 -0.659118
6.85 -0.673061
6.86 -0.669065
6.87 -0.650502
6.88 -0.622557
6.89 -0.589424
6.9 -0.554286
6.91 -0.519859
6.92 -0.488089
6.93 -0.45986
6.94 -0.435568
6.95 -0.415263
6.96 -0.398045
6.97 -0.383582
6.98 -0.370699
6.99 -0.35883
7 -0.347407
7.01 -0.336208
7.02 -0.325406
7.03 -0.315411
7.04 -0.30717
7.05 -0.30167
7.06 -0.300094
7.07 -0.30409
7.08 -0.314159
7.09 -0.332453
7.1 -0.358577
7.11 -0.393463
7.12 -0.436843
7.13 -0.487669
7.14 -0.545608
7.15 -0.608225
7.16 -0.674141
7.17 -0.74086
7.18 -0.806268
7.19 -0.867781
7.2 -0.923935
7.21 -0.971836
7.22 -1.01123
7.23 -1.0406
7.24 -1.05975
7.25 -1.0695
7.26 -1.0696
7.27 -1.06262
7.28 -1.04942
7.29 -1.03253
7.3 -1.01387
7.31 -0.995634
7.32 -0.979445
7.33 -0.967334
7.34 -0.959772
7.35 -0.95755
7.36 -0.9604
7.37 -0.967278
7.38 -0.97702
7.39 -0.987305
7.4 -0.995616
7.41 -0.999178
7.42 -0.995187
7.43 -0.97996
7.44 -0.952252
7.45 -0.907393
7.46 -0.84589
7.47 -0.765357
7.48 -0.665648
7.49 -0.548298
7.5 -0.412572
7.51 -0.262991
7.52 -0.100742
7.53 0.0696131
7.54 0.244465
7.55 0.419333
7.56 0.59027
7.57 0.751794
7.58 0.9011
7.59 1.03367
7.6 1.14631
7.61 1.23791
7.62 1.30376
7.63 1.34638
7.64 1.36254
7.65 1.35468
7.66 1.32366
7.67 1.27011
7.68 1.19845
7.69 1.10862
7.7 1.00586
7.71 0.892058
7.72 0.770617
7.73 0.644685
7.74 0.51697
7.75 0.390272
7.76 0.267275
7.77 0.150018
7.78 0.0403624
7.79 -0.0593899
7.8 -0.149042
7.81 -0.225666
7.82 -0.290118
7.83 -0.340863
7.84 -0.377677
7.85 -0.401312
7.86 -0.41032
7.87 -0.40718
7.88 -0.39118
7.89 -0.364429
7.9 -0.328178
7.91 -0.283802
7.92 -0.233978
7.93 -0.180294
7.94 -0.12564
7.95 -0.0723384
7.96 -0.0230708
7.97 0.0202244
7.98 0.0542331
7.99 0.0783775
8 0.0897826
8.01 0.0882234
8.02 0.073065
8.03 0.0434996
8.04 0.00158816
8.05 -0.0534469
8.06 -0.118263
8.07 -0.191633
8.08 -0.27091
8.09 -0.353421
8.1 -0.436568
8.11 -0.517829
8.12 -0.594543
8.13 -0.664956
8.14 -0.727584
8.15 -0.78084
8.16 -0.82534
8.17 -0.859805
8.18 -0.886236
8.19 -0.905136
8.2 -0.918215
8.21 -0.927394
8.22 -0.934233
8.23 -0.94068
8.24 -0.94817
8.25 -0.957682
8.26 -0.969648
8.27 -0.983976
8.28 -0.999566
8.29 -1.01475
8.3 -1.02719
8.31 -1.03377
8.32 -1.03077
8.33 -1.01535
8.34 -0.981429
8.35 -0.927968
8.36 -0.84898
8.37 -0.743385
8.38 -0.609193
8.39 -0.443649
8.4 -0.250331
8.41 -0.026304
8.42 0.221728
8.43 0.491789
8.44 0.778212
8.45 1.07456
8.46 1.37435
8.47 1.67009
8.48 1.95343
8.49 2.21738
8.5 2.45512
8.51 2.65778
8.52 2.82409
8.53 2.94307
8.54 3.01768
8.55 3.04287
8.56 3.01869
8.57 2.94917
8.58 2.83131
8.59 2.67538
8.6 2.48169
8.61 2.25899
8.62 2.01314
8.63 1.75037
8.64 1.47882
8.65 1.20462
8.66 0.934473
8.67 0.674247
8.68 0.429263
8.69 0.202283
8.7 -0.000772049
8.71 -0.181208
8.72 -0.335058
8.73 -0.464071
8.74 -0.568815
8.75 -0.649488
8.76 -0.710619
8.77 -0.751877
8.78 -0.778681
8.79 -0.79283
8.8 -0.797661
8.81 -0.796336
8.82 -0.791067
8.83 -0.784619
8.84 -0.778865
8.85 -0.775385
8.86 -0.775255
8.87 -0.779506
8.88 -0.787986
8.89 -0.801407
8.9 -0.818866
8.91 -0.840186
8.92 -0.864624
8.93 -0.891297
8.94 -0.919564
8.95 -0.948425
8.96 -0.977156
8.97 -1.00503
8.98 -1.0315
8.99 -1.05592
9 -1.07821
9.01 -1.09774
9.02 -1.11476
9.03 -1.12903
9.04 -1.14064
9.05 -1.14982
9.06 -1.15638
9.07 -1.16079
9.08 -1.16287
9.09 -1.16281
9.1 -1.16057
9.11 -1.15587
9.12 -1.14879
9.13 -1.13862
9.14 -1.12536
9.15 -1.10835
9.16 -1.08708
9.17 -1.06138
9.18 -1.03011
9.19 -0.993662
9.2 -0.951081
9.21 -0.902649
9.22 -0.848397
9.23 -0.788275
9.24 -0.723401
9.25 -0.653877
9.26 -0.58134
9.27 -0.506803
9.28 -0.431889
9.29 -0.358107
9.3 -0.287615
9.31 -0.221664
9.32 -0.162618
9.33 -0.111695
9.34 -0.0702301
9.35 -0.0400682
9.36 -0.020668
9.37 -0.0141828
9.38 -0.0188934
9.39 -0.0351182
9.4 -0.0617622
9.41 -0.0969513
9.42 -0.139886
9.43 -0.187613
9.44 -0.23852
9.45 -0.290065
9.46 -0.340222
9.47 -0.386635
9.48 -0.428103
9.49 -0.462237
9.5 -0.488962
9.51 -0.507221
9.52 -0.516997
9.53 -0.519205
9.54 -0.513817
9.55 -0.503085
9.56 -0.487943
9.57 -0.470531
9.58 -0.452565
9.59 -0.43605
9.6 -0.422359
9.61 -0.413568
9.62 -0.410189
9.63 -0.413342
9.64 -0.423373
9.65 -0.439793
9.66 -0.462951
9.67 -0.491158
9.68 -0.523957
9.69 -0.559745
9.7 -0.597305
9.71 -0.635297
9.72 -0.67259
9.73 -0.707953
9.74 -0.740864
9.75 -0.770672
9.76 -0.79714
9.77 -0.820483
9.78 -0.840479
9.79 -0.857844
9.8 -0.872501
9.81 -0.884747
9.82 -0.894447
9.83 -0.900878
9.84 -0.903538
9.85 -0.900185
9.86 -0.889557
9.87 -0.868674
9.88 -0.834313
9.89 -0.784312
9.9 -0.712452
9.91 -0.618326
9.92 -0.495654
9.93 -0.343223
9.94 -0.158827
9.95 0.0612076
9.96 0.313272
9.97 0.601556
9.98 0.919268
9.99 1.26502
10 1.63333
10.01 2.01713
10.02 2.4101
10.03 2.80307
10.04 3.18694
10.05 3.5527
10.06 3.89187
10.07 4.19304
10.08 4.45323
10.09 4.65833
10.1 4.80985
10.11 4.90041
10.12 4.92804
10.13 4.89674
10.14 4.80045
10.15 4.65162
10.16 4.44907
10.17 4.20327
10.18 3.92137
10.19 3.61052
10.2 3.28203
10.21 2.94306
10.22 2.60356
10.23 2.27122
10.24 1.9537
10.25 1.65536
10.26 1.38413
10.27 1.13929
10.28 0.925887
10.29 0.742233
10.3 0.58748
10.31 0.461259
10.32 0.357732
10.33 0.276541
10.34 0.210874
10.35 0.157807
10.36 0.112869
10.37 0.0720956
10.38 0.0322268
10.39 -0.00949249
10.4 -0.0554122
10.41 -0.10668
10.42 -0.163899
10.43 -0.227458
10.44 -0.296122
10.45 -0.369545
10.46 -0.445734
10.47 -0.52334
10.48 -0.600532
10.49 -0.67586
10.5 -0.747341
10.51 -0.814283
10.52 -0.875084
10.53 -0.929391
10.54 -0.976816
10.55 -1.01674
10.56 -1.05007
10.57 -1.07607
10.58 -1.09604
10.59 -1.11001
10.6 -1.11849
10.61 -1.12223
10.62 -1.12098
10.63 -1.11567
10.64 -1.10599
10.65 -1.0923
10.66 -1.07464
10.67 -1.05275
10.68 -1.02713
10.69 -0.997295
10.7 -0.963962
10.71 -0.92722
10.72 -0.887617
10.73 -0.845948
10.74 -0.802891
10.75 -0.759595
10.76 -0.717175
10.77 -0.676829
10.78 -0.639685
10.79 -0.607284
10.8 -0.580088
10.81 -0.559969
10.82 -0.546792
10.83 -0.541507
10.84 -0.544352
10.85 -0.554731
10.86 -0.573305
10.87 -0.598345
10.88 -0.629778
10.89 -0.666104
10.9 -0.706212
10.91 -0.748933
10.92 -0.792789
10.93 -0.836555
10.94 -0.879054
10.95 -0.91919
10.96 -0.95601
10.97 -0.989125
10.98 -1.01748
10.99 -1.04152
11 -1.06068
11.01 -1.07546
11.02 -1.0862
11.03 -1.09319
11.04 -1.09741
11.05 -1.09922
11.06 -1.09965
11.07 -1.09934
11.08 -1.09906
11.09 -1.09941
11.1 -1.10111
11.11 -1.10439
11.12 -1.10972
11.13 -1.11707
11.14 -1.12636
11.15 -1.13733
11.16 -1.14931
11.17 -1.16157
11.18 -1.17301
11.19 -1.18235
11.2 -1.18794
11.21 -1.18849
11.22 -1.18113
11.23 -1.16505
11.24 -1.13709
11.25 -1.09584
11.26 -1.03955
11.27 -0.96523
11.28 -0.87358
11.29 -0.760664
11.3 -0.62849
11.31 -0.475739
11.32 -0.303039
11.33 -0.112886
11.34 0.0949366
11.35 0.315395
11.36 0.546636
11.37 0.78386
11.38 1.02295
11.39 1.25864
11.4 1.48675
11.41 1.70043
11.42 1.89643
11.43 2.0691
11.44 2.21385
11.45 2.32941
11.46 2.40846
11.47 2.45436
11.48 2.46219
11.49 2.43449
11.5 2.37247
11.51 2.27618
11.52 2.15228
11.53 2.00062
11.54 1.82903
11.55 1.6409
11.56 1.44172
11.57 1.23687
11.58 1.03125
11.59 0.829371
11.6 0.635882
11.61 0.453886
11.62 0.285847
11.63 0.134877
11.64 3.28703e-05
11.65 -0.115833
11.66 -0.215505
11.67 -0.299008
11.68 -0.368122
11.69 -0.425698
11.7 -0.47274
11.71 -0.513042
11.72 -0.548185
11.73 -0.58077
11.74 -0.612537
11.75 -0.645078
11.76 -0.679226
11.77 -0.71579
11.78 -0.75446
11.79 -0.794887
11.8 -0.836039
11.81 -0.876674
11.82 -0.914853
11.83 -0.949163
11.84 -0.977159
11.85 -0.997195
11.86 -1.0076
11.87 -1.00585
11.88 -0.992049
11.89 -0.963123
11.9 -0.920212
11.91 -0.862145
11.92 -0.78904
11.93 -0.702458
11.94 -0.601588
11.95 -0.489756
11.96 -0.367378
11.97 -0.237218
11.98 -0.101417
11.99 0.0376665
12 0.177293
12.01 0.31461
12.02 0.447219
12.03 0.572327
12.04 0.687235
12.05 0.790629
12.06 0.878557
12.07 0.951586
12.08 1.00657
12.09 1.04365
12.1 1.0625
12.11 1.06181
12.12 1.04423
12.13 1.00814
12.14 0.957135
12.15 0.891957
12.16 0.814839
12.17 0.728744
12.18 0.635283
12.19 0.538014
12.2 0.43912
12.21 0.341309
12.22 0.246669
12.23 0.157623
12.24 0.0749682
12.25 0.000952478
12.26 -0.0648119
12.27 -0.121658
12.28 -0.169906
12.29 -0.210851
12.3 -0.244742
12.31 -0.273952
12.32 -0.299568
12.33 -0.323588
12.34 -0.347553
12.35 -0.373133
12.36 -0.401265
12.37 -0.433296
12.38 -0.469181
12.39 -0.509097
12.4 -0.552444
