# xPDFsuite Configuration #
[PDF]
wavelength = 0.1432
dataformat = twotheta
inputfile = 1_1Pd_CeO2_cycle-00411.chi
backgroundfile = background-00000.chi
mode = xray
bgscale = 1.007
composition = CeO2
outputtype = gr
qmaxinst = 28.8974762299
qmin = 0.5
qmax = 27.9
rmax = 50.0
rmin = 0.0
rstep = 0.01
rpoly = 1.8657

[Misc]
inputdir = G:/SankarDec16/1Pd/Chi
savedir = D:/DATA/APS_CeO2/1Pd
backgroundfilefull = G:/SankarDec16/Background/background-00000.chi

#### start data
#S 1
#L r($\AA$)  G($\AA^{-2}$)
0 0
0.01 -0.00621568
0.02 -0.011962
0.03 -0.0167556
0.04 -0.0202329
0.05 -0.0221916
0.06 -0.0223071
0.07 -0.0207967
0.08 -0.0175573
0.09 -0.0130036
0.1 -0.00742288
0.11 -0.00125468
0.12 0.00502321
0.13 0.0108735
0.14 0.0159178
0.15 0.0196917
0.16 0.0219248
0.17 0.0225106
0.18 0.0212301
0.19 0.0184046
0.2 0.0140501
0.21 0.00865079
0.22 0.00256521
0.23 -0.00371312
0.24 -0.00973554
0.25 -0.0149235
0.26 -0.0190084
0.27 -0.0215677
0.28 -0.0224378
0.29 -0.0216132
0.3 -0.0189919
0.31 -0.014983
0.32 -0.00972119
0.33 -0.00373657
0.34 0.00255933
0.35 0.00864281
0.36 0.0141169
0.37 0.0183905
0.38 0.021318
0.39 0.0225401
0.4 0.0220081
0.41 0.0198182
0.42 0.0159906
0.43 0.0110022
0.44 0.00509985
0.45 -0.00116659
0.46 -0.00735298
0.47 -0.0129312
0.48 -0.017576
0.49 -0.0207132
0.5 -0.0223275
0.51 -0.022141
0.52 -0.0202228
0.53 -0.0167662
0.54 -0.0119132
0.55 -0.00618476
0.56 7.2082e-05
0.57 0.00631459
0.58 0.0120884
0.59 0.016887
0.6 0.0204733
0.61 0.0223188
0.62 0.0225397
0.63 0.0209536
0.64 0.0177444
0.65 0.013193
0.66 0.00755658
0.67 0.00137467
0.68 -0.00492294
0.69 -0.0108273
0.7 -0.0158968
0.71 -0.0196713
0.72 -0.0220141
0.73 -0.0224683
0.74 -0.021276
0.75 -0.0183589
0.76 -0.0140059
0.77 -0.008571
0.78 -0.00241238
0.79 0.00393969
0.8 0.00999661
0.81 0.0153096
0.82 0.0194741
0.83 0.0221016
0.84 0.023163
0.85 0.0222999
0.86 0.0198659
0.87 0.0158923
0.88 0.0107567
0.89 0.00486514
0.9 -0.00134453
0.91 -0.00738488
0.92 -0.0127417
0.93 -0.0170584
0.94 -0.02
0.95 -0.0212857
0.96 -0.0210049
0.97 -0.0189448
0.98 -0.0155573
0.99 -0.0110074
1 -0.00575712
1.01 -0.000252094
1.02 0.00498439
1.03 0.00954641
1.04 0.0128967
1.05 0.0148093
1.06 0.0150421
1.07 0.0134531
1.08 0.0102843
1.09 0.00550707
1.1 -0.000293884
1.11 -0.00677257
1.12 -0.0133371
1.13 -0.0194628
1.14 -0.0244585
1.15 -0.0279805
1.16 -0.0293622
1.17 -0.0284784
1.18 -0.0251071
1.19 -0.0191578
1.2 -0.0110338
1.21 -0.000733694
1.22 0.010948
1.23 0.023568
1.24 0.0363761
1.25 0.0487142
1.26 0.0597265
1.27 0.0689625
1.28 0.0755666
1.29 0.0793161
1.3 0.0798449
1.31 0.0768865
1.32 0.0708175
1.33 0.0613267
1.34 0.0492756
1.35 0.0348833
1.36 0.0188444
1.37 0.00181393
1.38 -0.0155456
1.39 -0.0325652
1.4 -0.0485307
1.41 -0.0629617
1.42 -0.0753726
1.43 -0.0852865
1.44 -0.0927267
1.45 -0.0971005
1.46 -0.0988326
1.47 -0.0977194
1.48 -0.0939957
1.49 -0.0879495
1.5 -0.0796172
1.51 -0.0695557
1.52 -0.0578441
1.53 -0.0449515
1.54 -0.0311398
1.55 -0.0167232
1.56 -0.00204383
1.57 0.0125764
1.58 0.0268243
1.59 0.0403333
1.6 0.0527551
1.61 0.0638129
1.62 0.0729627
1.63 0.0801318
1.64 0.0847151
1.65 0.0866706
1.66 0.0857333
1.67 0.0816621
1.68 0.0747523
1.69 0.0646204
1.7 0.0519648
1.71 0.0368789
1.72 0.0199375
1.73 0.00173924
1.74 -0.0171029
1.75 -0.0358411
1.76 -0.0536947
1.77 -0.0700279
1.78 -0.084212
1.79 -0.0956004
1.8 -0.104147
1.81 -0.109141
1.82 -0.111117
1.83 -0.109979
1.84 -0.106242
1.85 -0.100523
1.86 -0.0934024
1.87 -0.0857998
1.88 -0.078522
1.89 -0.0723667
1.9 -0.0680433
1.91 -0.0662698
1.92 -0.0671521
1.93 -0.0713638
1.94 -0.0783538
1.95 -0.0880945
1.96 -0.099931
1.97 -0.113101
1.98 -0.126719
1.99 -0.139777
2 -0.151081
2.01 -0.159726
2.02 -0.164762
2.03 -0.165189
2.04 -0.160958
2.05 -0.150884
2.06 -0.13577
2.07 -0.11532
2.08 -0.0901638
2.09 -0.0610898
2.1 -0.0285959
2.11 0.00602497
2.12 0.0420787
2.13 0.0785237
2.14 0.114642
2.15 0.14975
2.16 0.183593
2.17 0.215761
2.18 0.24657
2.19 0.276169
2.2 0.305078
2.21 0.333846
2.22 0.363151
2.23 0.393464
2.24 0.425404
2.25 0.45909
2.26 0.494565
2.27 0.531553
2.28 0.569331
2.29 0.606922
2.3 0.643089
2.31 0.676197
2.32 0.704516
2.33 0.726647
2.34 0.739969
2.35 0.744175
2.36 0.736686
2.37 0.717644
2.38 0.686393
2.39 0.642611
2.4 0.588191
2.41 0.522743
2.42 0.449643
2.43 0.370326
2.44 0.287687
2.45 0.204359
2.46 0.123429
2.47 0.0470921
2.48 -0.0214823
2.49 -0.0809207
2.5 -0.129611
2.51 -0.166168
2.52 -0.191624
2.53 -0.20458
2.54 -0.207937
2.55 -0.202375
2.56 -0.190353
2.57 -0.174306
2.58 -0.156646
2.59 -0.13992
2.6 -0.126679
2.61 -0.118634
2.62 -0.117311
2.63 -0.124011
2.64 -0.138213
2.65 -0.160866
2.66 -0.189854
2.67 -0.224407
2.68 -0.262448
2.69 -0.301953
2.7 -0.340625
2.71 -0.376596
2.72 -0.407506
2.73 -0.432226
2.74 -0.449615
2.75 -0.458816
2.76 -0.460725
2.77 -0.454835
2.78 -0.443456
2.79 -0.427653
2.8 -0.409612
2.81 -0.391336
2.82 -0.375179
2.83 -0.362686
2.84 -0.356069
2.85 -0.356037
2.86 -0.363361
2.87 -0.378413
2.88 -0.399937
2.89 -0.427799
2.9 -0.459511
2.91 -0.493531
2.92 -0.52747
2.93 -0.559302
2.94 -0.586387
2.95 -0.607617
2.96 -0.620705
2.97 -0.625459
2.98 -0.621445
2.99 -0.608726
3 -0.589089
3.01 -0.563139
3.02 -0.533793
3.03 -0.503009
3.04 -0.473468
3.05 -0.447314
3.06 -0.427413
3.07 -0.414631
3.08 -0.411252
3.09 -0.417089
3.1 -0.432276
3.11 -0.456347
3.12 -0.487137
3.13 -0.52357
3.14 -0.562504
3.15 -0.601663
3.16 -0.638257
3.17 -0.670205
3.18 -0.694663
3.19 -0.711199
3.2 -0.717864
3.21 -0.71543
3.22 -0.704345
3.23 -0.685826
3.24 -0.66248
3.25 -0.636408
3.26 -0.610846
3.27 -0.588741
3.28 -0.573045
3.29 -0.56571
3.3 -0.569827
3.31 -0.584976
3.32 -0.612948
3.33 -0.651982
3.34 -0.700882
3.35 -0.757461
3.36 -0.818238
3.37 -0.879955
3.38 -0.938815
3.39 -0.990987
3.4 -1.03307
3.41 -1.06303
3.42 -1.07734
3.43 -1.07719
3.44 -1.06085
3.45 -1.03109
3.46 -0.989853
3.47 -0.940323
3.48 -0.886915
3.49 -0.833959
3.5 -0.785762
3.51 -0.746763
3.52 -0.720395
3.53 -0.708231
3.54 -0.713042
3.55 -0.732074
3.56 -0.764861
3.57 -0.806094
3.58 -0.850672
3.59 -0.890933
3.6 -0.920044
3.61 -0.926031
3.62 -0.903271
3.63 -0.840602
3.64 -0.73053
3.65 -0.569382
3.66 -0.346179
3.67 -0.0669721
3.68 0.275363
3.69 0.672154
3.7 1.1189
3.71 1.60814
3.72 2.12555
3.73 2.66098
3.74 3.19731
3.75 3.71944
3.76 4.21069
3.77 4.65856
3.78 5.04192
3.79 5.35755
3.8 5.58576
3.81 5.72645
3.82 5.77391
3.83 5.72305
3.84 5.58611
3.85 5.35466
3.86 5.05048
3.87 4.6774
3.88 4.25056
3.89 3.78511
3.9 3.29324
3.91 2.79216
3.92 2.29535
3.93 1.81572
3.94 1.3641
3.95 0.951902
3.96 0.581264
3.97 0.264388
3.98 -0.00432152
3.99 -0.220659
4 -0.388158
4.01 -0.512678
4.02 -0.595282
4.03 -0.647347
4.04 -0.671843
4.05 -0.678142
4.06 -0.672005
4.07 -0.659434
4.08 -0.64561
4.09 -0.634841
4.1 -0.62946
4.11 -0.631529
4.12 -0.641441
4.13 -0.658399
4.14 -0.681744
4.15 -0.708829
4.16 -0.737726
4.17 -0.765713
4.18 -0.790477
4.19 -0.809399
4.2 -0.821406
4.21 -0.823721
4.22 -0.816844
4.23 -0.799597
4.24 -0.772343
4.25 -0.736067
4.26 -0.690746
4.27 -0.638645
4.28 -0.580181
4.29 -0.517216
4.3 -0.450807
4.31 -0.382
4.32 -0.311852
4.33 -0.240932
4.34 -0.169849
4.35 -0.0989206
4.36 -0.0283917
4.37 0.0415952
4.38 0.110759
4.39 0.178954
4.4 0.245634
4.41 0.310334
4.42 0.372309
4.43 0.430387
4.44 0.483988
4.45 0.530969
4.46 0.571003
4.47 0.60225
4.48 0.623657
4.49 0.634828
4.5 0.633768
4.51 0.621736
4.52 0.597258
4.53 0.561757
4.54 0.515748
4.55 0.459995
4.56 0.396795
4.57 0.326794
4.58 0.252769
4.59 0.176213
4.6 0.0991913
4.61 0.0233192
4.62 -0.0495005
4.63 -0.118462
4.64 -0.182037
4.65 -0.240021
4.66 -0.292049
4.67 -0.337886
4.68 -0.378467
4.69 -0.413533
4.7 -0.44457
4.71 -0.472011
4.72 -0.496819
4.73 -0.51983
4.74 -0.541602
4.75 -0.562793
4.76 -0.583686
4.77 -0.604467
4.78 -0.625109
4.79 -0.645403
4.8 -0.665107
4.81 -0.683682
4.82 -0.700868
4.83 -0.716152
4.84 -0.729206
4.85 -0.739924
4.86 -0.747906
4.87 -0.753548
4.88 -0.756724
4.89 -0.757959
4.9 -0.757611
4.91 -0.756151
4.92 -0.754172
4.93 -0.752183
4.94 -0.750664
4.95 -0.750054
4.96 -0.750666
4.97 -0.752614
4.98 -0.756138
4.99 -0.76099
5 -0.767203
5.01 -0.774452
5.02 -0.782524
5.03 -0.791175
5.04 -0.800134
5.05 -0.80924
5.06 -0.818348
5.07 -0.827396
5.08 -0.83638
5.09 -0.845327
5.1 -0.85427
5.11 -0.863202
5.12 -0.872029
5.13 -0.88053
5.14 -0.888328
5.15 -0.894722
5.16 -0.899114
5.17 -0.899964
5.18 -0.896489
5.19 -0.886888
5.2 -0.869569
5.21 -0.843449
5.22 -0.805685
5.23 -0.756491
5.24 -0.693156
5.25 -0.616023
5.26 -0.524595
5.27 -0.418463
5.28 -0.299947
5.29 -0.168673
5.3 -0.0285471
5.31 0.118529
5.32 0.268919
5.33 0.419131
5.34 0.56465
5.35 0.702262
5.36 0.826737
5.37 0.935208
5.38 1.02427
5.39 1.08985
5.4 1.1325
5.41 1.14688
5.42 1.13646
5.43 1.09951
5.44 1.03791
5.45 0.954814
5.46 0.850832
5.47 0.731947
5.48 0.600164
5.49 0.460712
5.5 0.317316
5.51 0.174217
5.52 0.0347178
5.53 -0.0968627
5.54 -0.218906
5.55 -0.328542
5.56 -0.424418
5.57 -0.506527
5.58 -0.57303
5.59 -0.626405
5.6 -0.665861
5.61 -0.693816
5.62 -0.711504
5.63 -0.720213
5.64 -0.722336
5.65 -0.718459
5.66 -0.710679
5.67 -0.69964
5.68 -0.686154
5.69 -0.670701
5.7 -0.653148
5.71 -0.633623
5.72 -0.611501
5.73 -0.586515
5.74 -0.558175
5.75 -0.525855
5.76 -0.489735
5.77 -0.449116
5.78 -0.404831
5.79 -0.357059
5.8 -0.306719
5.81 -0.254918
5.82 -0.202969
5.83 -0.152296
5.84 -0.104713
5.85 -0.0616292
5.86 -0.0245203
5.87 0.00481449
5.88 0.0262031
5.89 0.037416
5.9 0.0394102
5.91 0.0313371
5.92 0.0136841
5.93 -0.0124568
5.94 -0.0470289
5.95 -0.0877621
5.96 -0.134026
5.97 -0.183859
5.98 -0.235929
5.99 -0.288788
6 -0.341221
6.01 -0.391965
6.02 -0.440454
6.03 -0.485978
6.04 -0.528295
6.05 -0.56756
6.06 -0.603629
6.07 -0.637285
6.08 -0.668716
6.09 -0.698649
6.1 -0.727553
6.11 -0.755871
6.12 -0.783968
6.13 -0.812008
6.14 -0.84001
6.15 -0.867813
6.16 -0.895087
6.17 -0.921471
6.18 -0.946282
6.19 -0.969232
6.2 -0.989567
6.21 -1.00707
6.22 -1.02145
6.23 -1.03243
6.24 -1.04045
6.25 -1.04532
6.26 -1.0479
6.27 -1.04853
6.28 -1.04788
6.29 -1.04654
6.3 -1.04496
6.31 -1.0434
6.32 -1.0418
6.33 -1.03967
6.34 -1.03616
6.35 -1.02962
6.36 -1.01864
6.37 -0.999716
6.38 -0.971064
6.39 -0.928724
6.4 -0.869154
6.41 -0.790086
6.42 -0.685203
6.43 -0.555025
6.44 -0.393551
6.45 -0.201235
6.46 0.0232195
6.47 0.281427
6.48 0.56868
6.49 0.886995
6.5 1.2284
6.51 1.58992
6.52 1.96463
6.53 2.34535
6.54 2.72375
6.55 3.0921
6.56 3.44
6.57 3.75995
6.58 4.04385
6.59 4.28129
6.6 4.47122
6.61 4.59968
6.62 4.6711
6.63 4.67861
6.64 4.62253
6.65 4.50749
6.66 4.32956
6.67 4.10163
6.68 3.82358
6.69 3.50687
6.7 3.15884
6.71 2.78779
6.72 2.40452
6.73 2.01741
6.74 1.63582
6.75 1.26815
6.76 0.922079
6.77 0.601988
6.78 0.316666
6.79 0.0646913
6.8 -0.147515
6.81 -0.322334
6.82 -0.46
6.83 -0.560582
6.84 -0.630606
6.85 -0.669082
6.86 -0.684399
6.87 -0.678987
6.88 -0.658014
6.89 -0.626321
6.9 -0.587219
6.91 -0.545132
6.92 -0.502827
6.93 -0.462824
6.94 -0.42679
6.95 -0.396202
6.96 -0.370988
6.97 -0.352125
6.98 -0.33846
6.99 -0.329866
7 -0.325523
7.01 -0.324533
7.02 -0.326562
7.03 -0.330713
7.04 -0.336935
7.05 -0.344974
7.06 -0.354964
7.07 -0.367364
7.08 -0.382325
7.09 -0.400873
7.1 -0.423057
7.11 -0.449616
7.12 -0.480828
7.13 -0.516522
7.14 -0.557084
7.15 -0.601437
7.16 -0.64932
7.17 -0.699445
7.18 -0.75072
7.19 -0.801713
7.2 -0.85118
7.21 -0.897303
7.22 -0.939253
7.23 -0.975639
7.24 -1.00564
7.25 -1.02917
7.26 -1.04523
7.27 -1.05504
7.28 -1.05838
7.29 -1.05661
7.3 -1.05069
7.31 -1.04175
7.32 -1.03124
7.33 -1.02019
7.34 -1.00967
7.35 -1.00037
7.36 -0.992654
7.37 -0.986352
7.38 -0.981033
7.39 -0.975628
7.4 -0.968673
7.41 -0.958463
7.42 -0.943104
7.43 -0.919936
7.44 -0.887873
7.45 -0.843217
7.46 -0.785945
7.47 -0.713806
7.48 -0.626146
7.49 -0.523717
7.5 -0.405239
7.51 -0.274057
7.52 -0.13052
7.53 0.0218097
7.54 0.180139
7.55 0.340902
7.56 0.500421
7.57 0.654107
7.58 0.798878
7.59 0.930485
7.6 1.04549
7.61 1.14231
7.62 1.21606
7.63 1.26841
7.64 1.29575
7.65 1.29985
7.66 1.28107
7.67 1.23954
7.68 1.1794
7.69 1.10021
7.7 1.00719
7.71 0.902112
7.72 0.788422
7.73 0.669418
7.74 0.54785
7.75 0.426756
7.76 0.30887
7.77 0.196347
7.78 0.0910632
7.79 -0.00475252
7.8 -0.0909579
7.81 -0.164896
7.82 -0.227536
7.83 -0.277639
7.84 -0.315217
7.85 -0.341119
7.86 -0.35425
7.87 -0.356892
7.88 -0.348505
7.89 -0.330911
7.9 -0.30513
7.91 -0.272216
7.92 -0.234335
7.93 -0.192592
7.94 -0.149339
7.95 -0.106345
7.96 -0.0657706
7.97 -0.0292691
7.98 0.000451129
7.99 0.0226492
8 0.034796
8.01 0.0363652
8.02 0.026512
8.03 0.00414172
8.04 -0.0293162
8.05 -0.0750412
8.06 -0.130376
8.07 -0.194632
8.08 -0.265718
8.09 -0.341304
8.1 -0.419327
8.11 -0.497199
8.12 -0.57252
8.13 -0.643282
8.14 -0.707784
8.15 -0.764123
8.16 -0.812375
8.17 -0.850803
8.18 -0.880865
8.19 -0.902562
8.2 -0.917157
8.21 -0.926352
8.22 -0.931293
8.23 -0.934144
8.24 -0.936234
8.25 -0.938938
8.26 -0.943043
8.27 -0.948949
8.28 -0.956137
8.29 -0.963623
8.3 -0.969587
8.31 -0.971546
8.32 -0.966278
8.33 -0.951124
8.34 -0.920599
8.35 -0.873288
8.36 -0.803454
8.37 -0.709539
8.38 -0.589203
8.39 -0.439258
8.4 -0.262564
8.41 -0.0556436
8.42 0.1755
8.43 0.429498
8.44 0.701272
8.45 0.984722
8.46 1.27399
8.47 1.56149
8.48 1.83929
8.49 2.1002
8.5 2.33733
8.51 2.54178
8.52 2.71178
8.53 2.83639
8.54 2.91808
8.55 2.95163
8.56 2.93689
8.57 2.87768
8.58 2.77097
8.59 2.62687
8.6 2.44571
8.61 2.2362
8.62 2.00419
8.63 1.75591
8.64 1.49934
8.65 1.24055
8.66 0.985981
8.67 0.741213
8.68 0.511168
8.69 0.298242
8.7 0.107678
8.71 -0.0621044
8.72 -0.207895
8.73 -0.331743
8.74 -0.434585
8.75 -0.517114
8.76 -0.583559
8.77 -0.634106
8.78 -0.673433
8.79 -0.703195
8.8 -0.726086
8.81 -0.744472
8.82 -0.759839
8.83 -0.773965
8.84 -0.787768
8.85 -0.801976
8.86 -0.81691
8.87 -0.832702
8.88 -0.849144
8.89 -0.866058
8.9 -0.883071
8.91 -0.899895
8.92 -0.916259
8.93 -0.932046
8.94 -0.947121
8.95 -0.961643
8.96 -0.975706
8.97 -0.989585
8.98 -1.00353
8.99 -1.01784
9 -1.03267
9.01 -1.04827
9.02 -1.06456
9.03 -1.08146
9.04 -1.09868
9.05 -1.11584
9.06 -1.13228
9.07 -1.14748
9.08 -1.16051
9.09 -1.1707
9.1 -1.1773
9.11 -1.17928
9.12 -1.17654
9.13 -1.16771
9.14 -1.15316
9.15 -1.13225
9.16 -1.10494
9.17 -1.0717
9.18 -1.03204
9.19 -0.987226
9.2 -0.937164
9.21 -0.882881
9.22 -0.825032
9.23 -0.764273
9.24 -0.701669
9.25 -0.637871
9.26 -0.573893
9.27 -0.510554
9.28 -0.448782
9.29 -0.38924
9.3 -0.333178
9.31 -0.280884
9.32 -0.23363
9.33 -0.191829
9.34 -0.156119
9.35 -0.127531
9.36 -0.105714
9.37 -0.0921493
9.38 -0.085974
9.39 -0.0877382
9.4 -0.097196
9.41 -0.113506
9.42 -0.136886
9.43 -0.165572
9.44 -0.199183
9.45 -0.236149
9.46 -0.275271
9.47 -0.31515
9.48 -0.354451
9.49 -0.391594
9.5 -0.425638
9.51 -0.455356
9.52 -0.479888
9.53 -0.499074
9.54 -0.511917
9.55 -0.519368
9.56 -0.521149
9.57 -0.518354
9.58 -0.511832
9.59 -0.502602
9.6 -0.492103
9.61 -0.481597
9.62 -0.472389
9.63 -0.465746
9.64 -0.462812
9.65 -0.464126
9.66 -0.47096
9.67 -0.482868
9.68 -0.500536
9.69 -0.523341
9.7 -0.550855
9.71 -0.582614
9.72 -0.61738
9.73 -0.654566
9.74 -0.69284
9.75 -0.731277
9.76 -0.768769
9.77 -0.804499
9.78 -0.837173
9.79 -0.866383
9.8 -0.890831
9.81 -0.909949
9.82 -0.922897
9.83 -0.928177
9.84 -0.925615
9.85 -0.912496
9.86 -0.888636
9.87 -0.8516
9.88 -0.799356
9.89 -0.731017
9.9 -0.641929
9.91 -0.532921
9.92 -0.39944
9.93 -0.241296
9.94 -0.0572188
9.95 0.155318
9.96 0.393222
9.97 0.659726
9.98 0.949526
9.99 1.26169
10 1.59216
10.01 1.93555
10.02 2.28727
10.03 2.64012
10.04 2.98709
10.05 3.32092
10.06 3.63468
10.07 3.91888
10.08 4.17055
10.09 4.37755
10.1 4.54024
10.11 4.65153
10.12 4.70861
10.13 4.71383
10.14 4.66037
10.15 4.55812
10.16 4.40435
10.17 4.20732
10.18 3.97234
10.19 3.70445
10.2 3.41396
10.21 3.1058
10.22 2.78995
10.23 2.47308
10.24 2.16276
10.25 1.86416
10.26 1.58492
10.27 1.32628
10.28 1.09384
10.29 0.887666
10.3 0.708247
10.31 0.556678
10.32 0.428433
10.33 0.324588
10.34 0.239065
10.35 0.169841
10.36 0.112938
10.37 0.0642789
10.38 0.0210578
10.39 -0.0204391
10.4 -0.0626812
10.41 -0.107779
10.42 -0.157082
10.43 -0.211802
10.44 -0.271556
10.45 -0.336813
10.46 -0.406121
10.47 -0.478674
10.48 -0.552968
10.49 -0.627517
10.5 -0.700564
10.51 -0.770876
10.52 -0.836705
10.53 -0.897109
10.54 -0.951216
10.55 -0.997842
10.56 -1.03744
10.57 -1.06868
10.58 -1.09265
10.59 -1.10907
10.6 -1.11834
10.61 -1.12136
10.62 -1.11785
10.63 -1.10926
10.64 -1.09552
10.65 -1.07752
10.66 -1.05573
10.67 -1.03043
10.68 -1.00244
10.69 -0.971812
10.7 -0.939333
10.71 -0.905328
10.72 -0.870345
10.73 -0.83494
10.74 -0.799727
10.75 -0.765287
10.76 -0.732397
10.77 -0.701673
10.78 -0.673747
10.79 -0.64954
10.8 -0.629185
10.81 -0.613878
10.82 -0.603418
10.83 -0.598424
10.84 -0.599067
10.85 -0.604982
10.86 -0.616751
10.87 -0.633286
10.88 -0.654747
10.89 -0.68026
10.9 -0.709235
10.91 -0.741121
10.92 -0.774914
10.93 -0.810071
10.94 -0.845667
10.95 -0.881038
10.96 -0.915455
10.97 -0.94844
10.98 -0.979202
10.99 -1.00764
11 -1.03315
11.01 -1.05567
11.02 -1.07511
11.03 -1.09124
11.04 -1.1045
11.05 -1.11463
11.06 -1.12228
11.07 -1.1276
11.08 -1.13101
11.09 -1.13303
11.1 -1.13398
11.11 -1.13444
11.12 -1.13477
11.13 -1.13533
11.14 -1.13633
11.15 -1.13793
11.16 -1.13996
11.17 -1.14219
11.18 -1.14403
11.19 -1.1447
11.2 -1.14302
11.21 -1.13796
11.22 -1.12723
11.23 -1.10992
11.24 -1.08324
11.25 -1.04565
11.26 -0.995315
11.27 -0.929236
11.28 -0.847636
11.29 -0.746532
11.3 -0.627368
11.31 -0.488538
11.32 -0.330239
11.33 -0.154578
11.34 0.039092
11.35 0.246037
11.36 0.464818
11.37 0.690878
11.38 0.920323
11.39 1.14824
11.4 1.37036
11.41 1.58026
11.42 1.77451
11.43 1.94763
11.44 2.09503
11.45 2.21526
11.46 2.30124
11.47 2.35591
11.48 2.37443
11.49 2.35907
11.5 2.31084
11.51 2.22964
11.52 2.12171
11.53 1.98672
11.54 1.83208
11.55 1.66082
11.56 1.47802
11.57 1.28875
11.58 1.09731
11.59 0.908076
11.6 0.725134
11.61 0.551407
11.62 0.389149
11.63 0.241123
11.64 0.106643
11.65 -0.0118139
11.66 -0.116539
11.67 -0.207493
11.68 -0.286099
11.69 -0.354692
11.7 -0.413932
11.71 -0.466929
11.72 -0.514747
11.73 -0.559389
11.74 -0.602099
11.75 -0.643845
11.76 -0.685284
11.77 -0.726587
11.78 -0.767574
11.79 -0.807687
11.8 -0.845987
11.81 -0.881611
11.82 -0.912714
11.83 -0.93862
11.84 -0.95729
11.85 -0.967778
11.86 -0.969018
11.87 -0.959218
11.88 -0.93891
11.89 -0.905849
11.9 -0.861315
11.91 -0.804586
11.92 -0.735954
11.93 -0.656761
11.94 -0.566429
11.95 -0.467538
11.96 -0.360331
11.97 -0.246834
11.98 -0.128564
11.99 -0.00713506
12 0.115408
12.01 0.237111
12.02 0.35608
12.03 0.470221
12.04 0.57737
12.05 0.676298
12.06 0.763751
12.07 0.839764
12.08 0.901482
12.09 0.948525
12.1 0.980157
12.11 0.994681
12.12 0.993905
12.13 0.975703
12.14 0.94284
12.15 0.895406
12.16 0.834923
12.17 0.763906
12.18 0.683183
12.19 0.596277
12.2 0.504833
12.21 0.411606
12.22 0.318711
12.23 0.228518
12.24 0.142382
12.25 0.0625606
12.26 -0.0106313
12.27 -0.0761776
12.28 -0.13386
12.29 -0.184469
12.3 -0.227731
12.31 -0.265635
12.32 -0.298791
12.33 -0.328936
12.34 -0.357404
12.35 -0.385588
12.36 -0.41459
12.37 -0.445526
12.38 -0.478706
12.39 -0.514394
