# xPDFsuite Configuration #
[PDF]
wavelength = 0.1432
dataformat = twotheta
inputfile = 1_1Pd_CeO2_cycle-00260.chi
backgroundfile = background-00000.chi
mode = xray
bgscale = 1.007
composition = CeO2
outputtype = gr
qmaxinst = 28.8974762299
qmin = 0.5
qmax = 27.9
rmax = 50.0
rmin = 0.0
rstep = 0.01
rpoly = 1.8657

[Misc]
inputdir = G:/SankarDec16/1Pd/Chi
savedir = D:/DATA/APS_CeO2/1Pd
backgroundfilefull = G:/SankarDec16/Background/background-00000.chi

#### start data
#S 1
#L r($\AA$)  G($\AA^{-2}$)
0 0
0.01 -0.00483243
0.02 -0.00929995
0.03 -0.0130269
0.04 -0.0157305
0.05 -0.0172536
0.06 -0.0173436
0.07 -0.0161697
0.08 -0.0136516
0.09 -0.0101115
0.1 -0.00577298
0.11 -0.000977534
0.12 0.00390338
0.13 0.00845209
0.14 0.0123745
0.15 0.0153095
0.16 0.0170469
0.17 0.0175037
0.18 0.0165099
0.19 0.014315
0.2 0.0109313
0.21 0.00673534
0.22 0.00200559
0.23 -0.00287431
0.24 -0.00755563
0.25 -0.0115887
0.26 -0.0147646
0.27 -0.0167549
0.28 -0.0174325
0.29 -0.0167929
0.3 -0.0147568
0.31 -0.011642
0.32 -0.00755319
0.33 -0.00290223
0.34 0.00199104
0.35 0.00671967
0.36 0.0109751
0.37 0.0142979
0.38 0.0165749
0.39 0.0175267
0.4 0.0171155
0.41 0.0154159
0.42 0.0124433
0.43 0.00856844
0.44 0.00398288
0.45 -0.00088604
0.46 -0.00569329
0.47 -0.0100285
0.48 -0.0136389
0.49 -0.0160783
0.5 -0.0173346
0.51 -0.0171919
0.52 -0.0157038
0.53 -0.0130202
0.54 -0.00925122
0.55 -0.00480177
0.56 5.88329e-05
0.57 0.00490889
0.58 0.00939549
0.59 0.0131251
0.6 0.0159134
0.61 0.0173498
0.62 0.0175244
0.63 0.0162954
0.64 0.0138054
0.65 0.0102725
0.66 0.00589634
0.67 0.0010959
0.68 -0.00379512
0.69 -0.00838139
0.7 -0.0123198
0.71 -0.0152528
0.72 -0.0170741
0.73 -0.0174287
0.74 -0.0165041
0.75 -0.0142393
0.76 -0.0108583
0.77 -0.00663572
0.78 -0.00184924
0.79 0.0030893
0.8 0.00780085
0.81 0.0119367
0.82 0.0151825
0.83 0.0172362
0.84 0.0180746
0.85 0.0174187
0.86 0.0155417
0.87 0.0124667
0.88 0.00848548
0.89 0.00391183
0.9 -0.000916862
0.91 -0.00562278
0.92 -0.00980977
0.93 -0.0132016
0.94 -0.0155398
0.95 -0.0166079
0.96 -0.0164744
0.97 -0.0149761
0.98 -0.0124605
0.99 -0.0090554
1 -0.00511576
1.01 -0.000983783
1.02 0.00293942
1.03 0.00634444
1.04 0.00882253
1.05 0.0102052
1.06 0.0103134
1.07 0.0090478
1.08 0.00660078
1.09 0.0029682
1.1 -0.00139737
1.11 -0.00621412
1.12 -0.0110191
1.13 -0.0154051
1.14 -0.0188268
1.15 -0.021031
1.16 -0.0214968
1.17 -0.0201443
1.18 -0.0168128
1.19 -0.0114503
1.2 -0.00439175
1.21 0.00433642
1.22 0.0140933
1.23 0.0245017
1.24 0.0349491
1.25 0.0449018
1.26 0.0536497
1.27 0.0608424
1.28 0.0657696
1.29 0.0682641
1.3 0.0680285
1.31 0.0648486
1.32 0.0590492
1.33 0.0503745
1.34 0.0395542
1.35 0.0267787
1.36 0.0126397
1.37 -0.00230435
1.38 -0.0174792
1.39 -0.0323141
1.4 -0.0461823
1.41 -0.0586672
1.42 -0.0693394
1.43 -0.077774
1.44 -0.0839912
1.45 -0.0874579
1.46 -0.0885553
1.47 -0.0871043
1.48 -0.0833253
1.49 -0.0774905
1.5 -0.069662
1.51 -0.06036
1.52 -0.0497036
1.53 -0.0381414
1.54 -0.0259478
1.55 -0.0134483
1.56 -0.00094763
1.57 0.0112112
1.58 0.0227956
1.59 0.0334773
1.6 0.0429995
1.61 0.0511816
1.62 0.0576205
1.63 0.0623503
1.64 0.0649568
1.65 0.0655051
1.66 0.0638726
1.67 0.0599715
1.68 0.054086
1.69 0.0460331
1.7 0.0363522
1.71 0.0251719
1.72 0.0129243
1.73 3.07828e-05
1.74 -0.0130657
1.75 -0.0259048
1.76 -0.0379738
1.77 -0.0489201
1.78 -0.0583901
1.79 -0.0660486
1.8 -0.0719479
1.81 -0.0757577
1.82 -0.0778935
1.83 -0.0784174
1.84 -0.0777413
1.85 -0.0763057
1.86 -0.0745865
1.87 -0.0731048
1.88 -0.0724272
1.89 -0.0729466
1.9 -0.0750349
1.91 -0.0790154
1.92 -0.0847802
1.93 -0.0925546
1.94 -0.1018
1.95 -0.11226
1.96 -0.123314
1.97 -0.134335
1.98 -0.144486
1.99 -0.153163
2 -0.159377
2.01 -0.162655
2.02 -0.162393
2.03 -0.158001
2.04 -0.149684
2.05 -0.136712
2.06 -0.119918
2.07 -0.0992474
2.08 -0.0753125
2.09 -0.0487764
2.1 -0.0200854
2.11 0.00987229
2.12 0.0406294
2.13 0.0715865
2.14 0.102394
2.15 0.132808
2.16 0.162836
2.17 0.192567
2.18 0.222341
2.19 0.252568
2.2 0.283755
2.21 0.31631
2.22 0.350869
2.23 0.387451
2.24 0.426441
2.25 0.467468
2.26 0.510173
2.27 0.553793
2.28 0.597304
2.29 0.639169
2.3 0.678098
2.31 0.712141
2.32 0.739544
2.33 0.759029
2.34 0.767964
2.35 0.766509
2.36 0.752273
2.37 0.725915
2.38 0.687176
2.39 0.636227
2.4 0.57531
2.41 0.504583
2.42 0.427546
2.43 0.345967
2.44 0.262811
2.45 0.180633
2.46 0.102569
2.47 0.0303865
2.48 -0.0328973
2.49 -0.0863984
2.5 -0.128884
2.51 -0.15944
2.52 -0.179456
2.53 -0.188068
2.54 -0.188328
2.55 -0.181262
2.56 -0.169428
2.57 -0.15521
2.58 -0.141106
2.59 -0.129259
2.6 -0.122105
2.61 -0.120882
2.62 -0.126751
2.63 -0.140551
2.64 -0.161383
2.65 -0.189658
2.66 -0.223062
2.67 -0.260439
2.68 -0.299555
2.69 -0.338383
2.7 -0.374454
2.71 -0.406265
2.72 -0.431479
2.73 -0.449408
2.74 -0.459233
2.75 -0.460513
2.76 -0.454561
2.77 -0.441358
2.78 -0.423516
2.79 -0.40251
2.8 -0.380777
2.81 -0.360422
2.82 -0.344081
2.83 -0.333046
2.84 -0.329648
2.85 -0.334249
2.86 -0.347405
2.87 -0.369183
2.88 -0.397915
2.89 -0.433109
2.9 -0.471883
2.91 -0.512315
2.92 -0.551684
2.93 -0.587761
2.94 -0.617543
2.95 -0.640002
2.96 -0.652601
2.97 -0.65533
2.98 -0.647822
2.99 -0.630276
3 -0.604822
3.01 -0.572215
3.02 -0.5358
3.03 -0.497811
3.04 -0.461278
3.05 -0.42861
3.06 -0.403037
3.07 -0.385528
3.08 -0.378681
3.09 -0.382319
3.1 -0.396655
3.11 -0.421269
3.12 -0.453793
3.13 -0.493213
3.14 -0.536041
3.15 -0.579883
3.16 -0.621689
3.17 -0.659134
3.18 -0.689136
3.19 -0.711044
3.2 -0.722674
3.21 -0.724658
3.22 -0.717311
3.23 -0.701726
3.24 -0.680554
3.25 -0.65577
3.26 -0.630782
3.27 -0.608546
3.28 -0.592139
3.29 -0.583647
3.3 -0.586254
3.31 -0.599697
3.32 -0.625849
3.33 -0.663048
3.34 -0.710145
3.35 -0.764982
3.36 -0.824065
3.37 -0.884102
3.38 -0.941235
3.39 -0.991555
3.4 -1.03158
3.41 -1.05922
3.42 -1.07087
3.43 -1.06774
3.44 -1.0481
3.45 -1.0148
3.46 -0.969932
3.47 -0.916864
3.48 -0.86021
3.49 -0.80466
3.5 -0.754718
3.51 -0.715193
3.52 -0.689792
3.53 -0.680239
3.54 -0.68969
3.55 -0.715208
3.56 -0.756553
3.57 -0.808092
3.58 -0.864505
3.59 -0.917749
3.6 -0.960402
3.61 -0.979868
3.62 -0.969827
3.63 -0.918302
3.64 -0.817011
3.65 -0.661718
3.66 -0.440367
3.67 -0.159035
3.68 0.190322
3.69 0.59878
3.7 1.06188
3.71 1.57201
3.72 2.11391
3.73 2.67711
3.74 3.24308
3.75 3.79571
3.76 4.31696
3.77 4.79311
3.78 5.20131
3.79 5.53763
3.8 5.78062
3.81 5.92975
3.82 5.97858
3.83 5.92131
3.84 5.77099
3.85 5.51837
3.86 5.18702
3.87 4.78116
3.88 4.3174
3.89 3.81242
3.9 3.2799
3.91 2.73878
3.92 2.20431
3.93 1.69079
3.94 1.21037
3.95 0.775922
3.96 0.389597
3.97 0.0652242
3.98 -0.203886
3.99 -0.413159
4 -0.566962
4.01 -0.672306
4.02 -0.730946
4.03 -0.756157
4.04 -0.752038
4.05 -0.729625
4.06 -0.69599
4.07 -0.658592
4.08 -0.623292
4.09 -0.59589
4.1 -0.578545
4.11 -0.573949
4.12 -0.582289
4.13 -0.602192
4.14 -0.632823
4.15 -0.670197
4.16 -0.71179
4.17 -0.753622
4.18 -0.792441
4.19 -0.824565
4.2 -0.848249
4.21 -0.859685
4.22 -0.859264
4.23 -0.845315
4.24 -0.818231
4.25 -0.779303
4.26 -0.72859
4.27 -0.6692
4.28 -0.601939
4.29 -0.529485
4.3 -0.453507
4.31 -0.375732
4.32 -0.297629
4.33 -0.220394
4.34 -0.14465
4.35 -0.0709507
4.36 0.000568852
4.37 0.0700405
4.38 0.137377
4.39 0.202991
4.4 0.26671
4.41 0.328571
4.42 0.388218
4.43 0.444883
4.44 0.498097
4.45 0.546017
4.46 0.588099
4.47 0.622443
4.48 0.64767
4.49 0.663006
4.5 0.665989
4.51 0.65745
4.52 0.635358
4.53 0.600803
4.54 0.553974
4.55 0.495325
4.56 0.427311
4.57 0.350345
4.58 0.267741
4.59 0.181209
4.6 0.0933623
4.61 0.00636995
4.62 -0.077206
4.63 -0.156031
4.64 -0.227861
4.65 -0.292116
4.66 -0.348046
4.67 -0.39505
4.68 -0.434281
4.69 -0.46516
4.7 -0.489827
4.71 -0.508905
4.72 -0.523944
4.73 -0.536386
4.74 -0.547408
4.75 -0.558279
4.76 -0.569946
4.77 -0.583014
4.78 -0.597836
4.79 -0.614553
4.8 -0.632771
4.81 -0.652222
4.82 -0.672107
4.83 -0.691744
4.84 -0.710312
4.85 -0.727203
4.86 -0.741515
4.87 -0.753156
4.88 -0.761505
4.89 -0.766789
4.9 -0.769124
4.91 -0.768795
4.92 -0.766572
4.93 -0.762895
4.94 -0.758702
4.95 -0.754676
4.96 -0.751569
4.97 -0.749888
4.98 -0.750338
4.99 -0.752927
5 -0.758079
5.01 -0.765545
5.02 -0.775179
5.03 -0.786726
5.04 -0.799611
5.05 -0.813525
5.06 -0.82784
5.07 -0.842137
5.08 -0.855958
5.09 -0.868997
5.1 -0.880813
5.11 -0.891325
5.12 -0.90012
5.13 -0.907086
5.14 -0.911922
5.15 -0.914102
5.16 -0.913449
5.17 -0.908727
5.18 -0.899663
5.19 -0.884879
5.2 -0.863212
5.21 -0.833842
5.22 -0.794326
5.23 -0.744778
5.24 -0.682642
5.25 -0.607957
5.26 -0.519958
5.27 -0.417826
5.28 -0.303373
5.29 -0.175624
5.3 -0.0380283
5.31 0.108078
5.32 0.259459
5.33 0.412772
5.34 0.563881
5.35 0.709176
5.36 0.843435
5.37 0.963174
5.38 1.06445
5.39 1.14245
5.4 1.19699
5.41 1.2217
5.42 1.21948
5.43 1.18774
5.44 1.12778
5.45 1.04259
5.46 0.932149
5.47 0.803073
5.48 0.657204
5.49 0.50064
5.5 0.337755
5.51 0.173672
5.52 0.0127599
5.53 -0.139545
5.54 -0.280694
5.55 -0.406757
5.56 -0.515561
5.57 -0.606727
5.58 -0.677519
5.59 -0.730941
5.6 -0.765794
5.61 -0.785276
5.62 -0.791143
5.63 -0.785402
5.64 -0.771551
5.65 -0.751033
5.66 -0.727012
5.67 -0.701049
5.68 -0.674778
5.69 -0.649117
5.7 -0.624695
5.71 -0.601341
5.72 -0.578741
5.73 -0.556041
5.74 -0.532319
5.75 -0.506332
5.76 -0.477392
5.77 -0.44404
5.78 -0.406318
5.79 -0.363666
5.8 -0.316415
5.81 -0.265417
5.82 -0.21149
5.83 -0.156451
5.84 -0.102051
5.85 -0.050337
5.86 -0.00331213
5.87 0.0365085
5.88 0.068206
5.89 0.0886564
5.9 0.098259
5.91 0.0954445
5.92 0.080255
5.93 0.0536904
5.94 0.0153878
5.95 -0.0317972
5.96 -0.0872286
5.97 -0.148195
5.98 -0.212786
5.99 -0.278815
6 -0.344315
6.01 -0.407181
6.02 -0.466328
6.03 -0.520415
6.04 -0.568834
6.05 -0.611702
6.06 -0.648572
6.07 -0.680776
6.08 -0.708576
6.09 -0.733364
6.1 -0.756112
6.11 -0.777884
6.12 -0.79961
6.13 -0.822079
6.14 -0.845611
6.15 -0.870411
6.16 -0.896257
6.17 -0.922668
6.18 -0.948912
6.19 -0.974199
6.2 -0.997438
6.21 -1.01786
6.22 -1.03471
6.23 -1.04718
6.24 -1.0555
6.25 -1.059
6.26 -1.05871
6.27 -1.05497
6.28 -1.04878
6.29 -1.04121
6.3 -1.03329
6.31 -1.02595
6.32 -1.01993
6.33 -1.01536
6.34 -1.01195
6.35 -1.00868
6.36 -1.00399
6.37 -0.994893
6.38 -0.978813
6.39 -0.951479
6.4 -0.908433
6.41 -0.846394
6.42 -0.757748
6.43 -0.641912
6.44 -0.491301
6.45 -0.305391
6.46 -0.0818731
6.47 0.182009
6.48 0.48125
6.49 0.818993
6.5 1.18591
6.51 1.57883
6.52 1.98949
6.53 2.40915
6.54 2.82788
6.55 3.23595
6.56 3.62082
6.57 3.97321
6.58 4.28329
6.59 4.53866
6.6 4.7381
6.61 4.86545
6.62 4.92635
6.63 4.91342
6.64 4.82795
6.65 4.67612
6.66 4.45493
6.67 4.17993
6.68 3.85265
6.69 3.48699
6.7 3.09224
6.71 2.67898
6.72 2.25904
6.73 1.8432
6.74 1.44061
6.75 1.06072
6.76 0.711061
6.77 0.395088
6.78 0.121552
6.79 -0.113152
6.8 -0.303396
6.81 -0.453566
6.82 -0.565372
6.83 -0.640532
6.84 -0.686765
6.85 -0.704617
6.86 -0.70286
6.87 -0.68467
6.88 -0.655293
6.89 -0.619138
6.9 -0.579434
6.91 -0.539375
6.92 -0.501122
6.93 -0.46601
6.94 -0.434788
6.95 -0.407924
6.96 -0.384784
6.97 -0.365474
6.98 -0.348903
6.99 -0.334744
7 -0.322492
7.01 -0.311832
7.02 -0.303005
7.03 -0.296069
7.04 -0.291878
7.05 -0.291057
7.06 -0.294515
7.07 -0.303571
7.08 -0.318446
7.09 -0.340935
7.1 -0.370486
7.11 -0.407791
7.12 -0.452463
7.13 -0.50347
7.14 -0.56036
7.15 -0.620946
7.16 -0.683878
7.17 -0.746943
7.18 -0.808242
7.19 -0.865462
7.2 -0.917402
7.21 -0.961478
7.22 -0.997618
7.23 -1.02455
7.24 -1.04223
7.25 -1.0515
7.26 -1.05228
7.27 -1.04695
7.28 -1.03639
7.29 -1.0229
7.3 -1.00823
7.31 -0.994351
7.32 -0.98263
7.33 -0.974834
7.34 -0.971216
7.35 -0.97233
7.36 -0.977728
7.37 -0.986292
7.38 -0.996661
7.39 -1.00664
7.4 -1.01364
7.41 -1.01504
7.42 -1.00818
7.43 -0.989504
7.44 -0.958021
7.45 -0.909235
7.46 -0.84388
7.47 -0.759759
7.48 -0.656899
7.49 -0.536926
7.5 -0.39927
7.51 -0.248394
7.52 -0.0855627
7.53 0.0847675
7.54 0.259061
7.55 0.432929
7.56 0.602589
7.57 0.762659
7.58 0.910483
7.59 1.04165
7.6 1.15303
7.61 1.24356
7.62 1.30855
7.63 1.35048
7.64 1.36605
7.65 1.35761
7.66 1.3259
7.67 1.27141
7.68 1.1985
7.69 1.10693
7.7 1.00195
7.71 0.885386
7.72 0.760674
7.73 0.631066
7.74 0.499372
7.75 0.368608
7.76 0.241679
7.77 0.120879
7.78 0.00831874
7.79 -0.0933739
7.8 -0.183896
7.81 -0.25993
7.82 -0.322399
7.83 -0.36961
7.84 -0.40139
7.85 -0.41869
7.86 -0.420137
7.87 -0.408658
7.88 -0.383819
7.89 -0.3482
7.9 -0.303463
7.91 -0.251503
7.92 -0.19528
7.93 -0.136991
7.94 -0.0795778
7.95 -0.0256956
7.96 0.0219078
7.97 0.0614623
7.98 0.0895731
7.99 0.106226
8 0.108745
8.01 0.0974955
8.02 0.0723304
8.03 0.0330407
8.04 -0.0178489
8.05 -0.0804269
8.06 -0.151107
8.07 -0.228214
8.08 -0.30889
8.09 -0.390533
8.1 -0.470328
8.11 -0.546291
8.12 -0.615859
8.13 -0.677876
8.14 -0.731339
8.15 -0.775255
8.16 -0.810786
8.17 -0.837341
8.18 -0.857281
8.19 -0.871609
8.2 -0.882331
8.21 -0.891372
8.22 -0.90059
8.23 -0.911452
8.24 -0.925365
8.25 -0.942747
8.26 -0.963585
8.27 -0.987229
8.28 -1.01201
8.29 -1.03561
8.3 -1.05529
8.31 -1.06742
8.32 -1.06796
8.33 -1.05399
8.34 -1.01913
8.35 -0.962758
8.36 -0.878858
8.37 -0.766861
8.38 -0.625174
8.39 -0.451533
8.4 -0.250061
8.41 -0.0183901
8.42 0.236369
8.43 0.511789
8.44 0.801891
8.45 1.10019
8.46 1.3999
8.47 1.69391
8.48 1.97386
8.49 2.23321
8.5 2.4655
8.51 2.66232
8.52 2.82283
8.53 2.93659
8.54 3.00689
8.55 3.02903
8.56 3.00332
8.57 2.9338
8.58 2.81764
8.59 2.66478
8.6 2.47543
8.61 2.25793
8.62 2.01777
8.63 1.76075
8.64 1.49459
8.65 1.22493
8.66 0.958227
8.67 0.700019
8.68 0.455455
8.69 0.227345
8.7 0.0214717
8.71 -0.16308
8.72 -0.322238
8.73 -0.457314
8.74 -0.568521
8.75 -0.655629
8.76 -0.722808
8.77 -0.769266
8.78 -0.800234
8.79 -0.817233
8.8 -0.823484
8.81 -0.822224
8.82 -0.815592
8.83 -0.806719
8.84 -0.79761
8.85 -0.790236
8.86 -0.785982
8.87 -0.786241
8.88 -0.791129
8.89 -0.80171
8.9 -0.817168
8.91 -0.837482
8.92 -0.86191
8.93 -0.889431
8.94 -0.919322
8.95 -0.950251
8.96 -0.981251
8.97 -1.01126
8.98 -1.03945
8.99 -1.06484
9 -1.08724
9.01 -1.10572
9.02 -1.12062
9.03 -1.13169
9.04 -1.13916
9.05 -1.14355
9.06 -1.14492
9.07 -1.14413
9.08 -1.14139
9.09 -1.13724
9.1 -1.13197
9.11 -1.12567
9.12 -1.11843
9.13 -1.10985
9.14 -1.09968
9.15 -1.08724
9.16 -1.07173
9.17 -1.05259
9.18 -1.02833
9.19 -0.99884
9.2 -0.962702
9.21 -0.919785
9.22 -0.869774
9.23 -0.812226
9.24 -0.748289
9.25 -0.677747
9.26 -0.602569
9.27 -0.523851
9.28 -0.443572
9.29 -0.36368
9.3 -0.286767
9.31 -0.214598
9.32 -0.150062
9.33 -0.0947804
9.34 -0.0504258
9.35 -0.0192142
9.36 -0.000513846
9.37 0.00325511
9.38 -0.00577593
9.39 -0.0277689
9.4 -0.0611968
9.41 -0.103695
9.42 -0.153941
9.43 -0.208473
9.44 -0.265102
9.45 -0.320908
9.46 -0.373548
9.47 -0.420321
9.48 -0.460202
9.49 -0.490573
9.5 -0.511866
9.51 -0.523243
9.52 -0.525187
9.53 -0.519145
9.54 -0.505671
9.55 -0.487514
9.56 -0.466199
9.57 -0.444207
9.58 -0.423527
9.59 -0.406447
9.6 -0.3941
9.61 -0.388696
9.62 -0.390189
9.63 -0.399401
9.64 -0.416131
9.65 -0.439349
9.66 -0.468778
9.67 -0.502308
9.68 -0.538907
9.69 -0.576735
9.7 -0.614395
9.71 -0.650394
9.72 -0.683955
9.73 -0.713886
9.74 -0.740311
9.75 -0.763013
9.76 -0.782402
9.77 -0.799249
9.78 -0.814081
9.79 -0.82792
9.8 -0.841301
9.81 -0.854627
9.82 -0.867834
9.83 -0.880229
9.84 -0.890772
9.85 -0.897019
9.86 -0.89689
9.87 -0.886802
9.88 -0.862728
9.89 -0.821875
9.9 -0.757097
9.91 -0.667731
9.92 -0.54679
9.93 -0.393028
9.94 -0.204226
9.95 0.0232628
9.96 0.285122
9.97 0.585259
9.98 0.915885
9.99 1.27489
10 1.65584
10.01 2.05093
10.02 2.4528
10.03 2.85201
10.04 3.23866
10.05 3.60374
10.06 3.93879
10.07 4.23242
10.08 4.4825
10.09 4.67521
10.1 4.81321
10.11 4.8899
10.12 4.90436
10.13 4.86136
10.14 4.75598
10.15 4.60094
10.16 4.39588
10.17 4.15125
10.18 3.87417
10.19 3.57168
10.2 3.25424
10.21 2.92857
10.22 2.60349
10.23 2.28577
10.24 1.98201
10.25 1.69576
10.26 1.43374
10.27 1.19499
10.28 0.98373
10.29 0.798328
10.3 0.638015
10.31 0.502561
10.32 0.387078
10.33 0.29166
10.34 0.210733
10.35 0.142298
10.36 0.0830187
10.37 0.0297542
10.38 -0.019521
10.39 -0.0673557
10.4 -0.115255
10.41 -0.164474
10.42 -0.215729
10.43 -0.269594
10.44 -0.325835
10.45 -0.384607
10.46 -0.445193
10.47 -0.507202
10.48 -0.569965
10.49 -0.63285
10.5 -0.695126
10.51 -0.756268
10.52 -0.815505
10.53 -0.872336
10.54 -0.926216
10.55 -0.976296
10.56 -1.02246
10.57 -1.0634
10.58 -1.09913
10.59 -1.1287
10.6 -1.15145
10.61 -1.16731
10.62 -1.17477
10.63 -1.17466
10.64 -1.16582
10.65 -1.1488
10.66 -1.12383
10.67 -1.0909
10.68 -1.05158
10.69 -1.00593
10.7 -0.955988
10.71 -0.902822
10.72 -0.848148
10.73 -0.793556
10.74 -0.740976
10.75 -0.691672
10.76 -0.647569
10.77 -0.609681
10.78 -0.578962
10.79 -0.556721
10.8 -0.542388
10.81 -0.537321
10.82 -0.540137
10.83 -0.550864
10.84 -0.568653
10.85 -0.592157
10.86 -0.620909
10.87 -0.653054
10.88 -0.687809
10.89 -0.723837
10.9 -0.760203
10.91 -0.795965
10.92 -0.830566
10.93 -0.863258
10.94 -0.893953
10.95 -0.922355
10.96 -0.948435
10.97 -0.97241
10.98 -0.994142
10.99 -1.0141
11 -1.03224
11.01 -1.0488
11.02 -1.06388
11.03 -1.07742
11.04 -1.0896
11.05 -1.10016
11.06 -1.10926
11.07 -1.11677
11.08 -1.1227
11.09 -1.12723
11.1 -1.13031
11.11 -1.13234
11.12 -1.1335
11.13 -1.13417
11.14 -1.13464
11.15 -1.13522
11.16 -1.13605
11.17 -1.13717
11.18 -1.13832
11.19 -1.13901
11.2 -1.13832
11.21 -1.13528
11.22 -1.12778
11.23 -1.11464
11.24 -1.09295
11.25 -1.06075
11.26 -1.01577
11.27 -0.954418
11.28 -0.87646
11.29 -0.777114
11.3 -0.657531
11.31 -0.515557
11.32 -0.35107
11.33 -0.166273
11.34 0.0398225
11.35 0.261762
11.36 0.497946
11.37 0.742986
11.38 0.992245
11.39 1.23985
11.4 1.48066
11.41 1.70703
11.42 1.91486
11.43 2.0977
11.44 2.25024
11.45 2.37093
11.46 2.45178
11.47 2.49652
11.48 2.50005
11.49 2.46545
11.5 2.39448
11.51 2.28777
11.52 2.15285
11.53 1.99035
11.54 1.80889
11.55 1.61254
11.56 1.40747
11.57 1.19924
11.58 0.993361
11.59 0.79392
11.6 0.605685
11.61 0.43118
11.62 0.272354
11.63 0.131693
11.64 0.0074535
11.65 -0.0983038
11.66 -0.189033
11.67 -0.265451
11.68 -0.329897
11.69 -0.385368
11.7 -0.433419
11.71 -0.477367
11.72 -0.518878
11.73 -0.559954
11.74 -0.601814
11.75 -0.645419
11.76 -0.69083
11.77 -0.738076
11.78 -0.786217
11.79 -0.834237
11.8 -0.880576
11.81 -0.923861
11.82 -0.96162
11.83 -0.992909
11.84 -1.01519
11.85 -1.02738
11.86 -1.02831
11.87 -1.01601
11.88 -0.991333
11.89 -0.951904
11.9 -0.899471
11.91 -0.833473
11.92 -0.754529
11.93 -0.664339
11.94 -0.56259
11.95 -0.452212
11.96 -0.333728
11.97 -0.209417
11.98 -0.0810007
11.99 0.0496463
12 0.180437
12.01 0.309114
12.02 0.433825
12.03 0.55231
12.04 0.662317
12.05 0.762672
12.06 0.849865
12.07 0.92415
12.08 0.982491
12.09 1.02463
12.1 1.04991
12.11 1.05661
12.12 1.04685
12.13 1.01849
12.14 0.974656
12.15 0.915633
12.16 0.84325
12.17 0.760324
12.18 0.668049
12.19 0.570214
12.2 0.468856
12.21 0.36697
12.22 0.266893
12.23 0.171318
12.24 0.0815119
12.25 6.7714e-05
12.26 -0.0729647
12.27 -0.136546
12.28 -0.190631
12.29 -0.236333
12.3 -0.273514
12.31 -0.304642
12.32 -0.330596
12.33 -0.353514
12.34 -0.375049
12.35 -0.39697
12.36 -0.420556
12.37 -0.447297
12.38 -0.477512
12.39 -0.511621
