# xPDFsuite Configuration #
[PDF]
wavelength = 0.1432
dataformat = twotheta
inputfile = 1_1Pd_CeO2_cycle-00300.chi
backgroundfile = background-00000.chi
mode = xray
bgscale = 1.007
composition = CeO2
outputtype = gr
qmaxinst = 28.8974762299
qmin = 0.5
qmax = 27.9
rmax = 50.0
rmin = 0.0
rstep = 0.01
rpoly = 1.8657

[Misc]
inputdir = G:/SankarDec16/1Pd/Chi
savedir = D:/DATA/APS_CeO2/1Pd
backgroundfilefull = G:/SankarDec16/Background/background-00000.chi

#### start data
#S 1
#L r($\AA$)  G($\AA^{-2}$)
0 0
0.01 -0.0043626
0.02 -0.0083943
0.03 -0.0117545
0.04 -0.0141872
0.05 -0.0155503
0.06 -0.0156161
0.07 -0.0145385
0.08 -0.0122465
0.09 -0.00903357
0.1 -0.00510353
0.11 -0.000767416
0.12 0.00363828
0.13 0.00773356
0.14 0.0112539
0.15 0.0138728
0.16 0.0154023
0.17 0.01577
0.18 0.0148254
0.19 0.0127977
0.2 0.0097027
0.21 0.00588388
0.22 0.00159643
0.23 -0.00280984
0.24 -0.00702029
0.25 -0.0106258
0.26 -0.0134421
0.27 -0.015174
0.28 -0.0157116
0.29 -0.0150561
0.3 -0.0131424
0.31 -0.010263
0.32 -0.00651991
0.33 -0.00228884
0.34 0.00213723
0.35 0.00638775
0.36 0.0101866
0.37 0.0131172
0.38 0.0150852
0.39 0.0158425
0.4 0.0153632
0.41 0.0137224
0.42 0.0109441
0.43 0.00736897
0.44 0.00317995
0.45 -0.00123441
0.46 -0.00555885
0.47 -0.00942135
0.48 -0.0125993
0.49 -0.0146903
0.5 -0.0156956
0.51 -0.0154273
0.52 -0.0139454
0.53 -0.0113953
0.54 -0.00788938
0.55 -0.00379849
0.56 0.000622695
0.57 0.00499305
0.58 0.0089918
0.59 0.0122649
0.6 0.0146553
0.61 0.0157965
0.62 0.0157852
0.63 0.0145045
0.64 0.0120973
0.65 0.00877186
0.66 0.00472355
0.67 0.000334075
0.68 -0.00408353
0.69 -0.00817554
0.7 -0.0116328
0.71 -0.0141378
0.72 -0.0156076
0.73 -0.0157308
0.74 -0.0146947
0.75 -0.012459
0.76 -0.00924173
0.77 -0.00530224
0.78 -0.000907285
0.79 0.00357169
0.8 0.00778239
0.81 0.0114183
0.82 0.0142008
0.83 0.015868
0.84 0.0164162
0.85 0.0156099
0.86 0.0137151
0.87 0.0107721
0.88 0.00706078
0.89 0.00287495
0.9 -0.00146451
0.91 -0.00562311
0.92 -0.00923619
0.93 -0.0120706
0.94 -0.0139048
0.95 -0.0145635
0.96 -0.0141319
0.97 -0.0124917
0.98 -0.00997894
0.99 -0.00673845
1 -0.00311219
1.01 0.000578508
1.02 0.00394693
1.03 0.00672671
1.04 0.00853553
1.05 0.00924518
1.06 0.00870842
1.07 0.00686025
1.08 0.00390867
1.09 -0.000116563
1.1 -0.00477017
1.11 -0.00975795
1.12 -0.0146262
1.13 -0.0189819
1.14 -0.0222876
1.15 -0.0243175
1.16 -0.0245613
1.17 -0.0229594
1.18 -0.0193613
1.19 -0.0137208
1.2 -0.00637431
1.21 0.00266116
1.22 0.0127538
1.23 0.0235453
1.24 0.0344421
1.25 0.0449246
1.26 0.0543094
1.27 0.0622415
1.28 0.0680266
1.29 0.0714775
1.3 0.0722801
1.31 0.0701866
1.32 0.0654774
1.33 0.057834
1.34 0.0479331
1.35 0.0358888
1.36 0.0222274
1.37 0.00746154
1.38 -0.0079238
1.39 -0.0233415
1.4 -0.0382336
1.41 -0.0521366
1.42 -0.064603
1.43 -0.0751592
1.44 -0.0837212
1.45 -0.0896778
1.46 -0.0932713
1.47 -0.0941955
1.48 -0.0925304
1.49 -0.0884395
1.5 -0.0818102
1.51 -0.0731402
1.52 -0.0623938
1.53 -0.0500461
1.54 -0.0363513
1.55 -0.0216521
1.56 -0.00639353
1.57 0.00904443
1.58 0.0242033
1.59 0.038611
1.6 0.0517987
1.61 0.0634053
1.62 0.072778
1.63 0.0798444
1.64 0.0839434
1.65 0.0850946
1.66 0.0830811
1.67 0.0777518
1.68 0.069521
1.69 0.0581405
1.7 0.0444266
1.71 0.0286126
1.72 0.0113761
1.73 -0.00662995
1.74 -0.0246913
1.75 -0.0421323
1.76 -0.0581414
1.77 -0.0722127
1.78 -0.0838131
1.79 -0.0924402
1.8 -0.0982078
1.81 -0.100594
1.82 -0.100265
1.83 -0.0973
1.84 -0.0923227
1.85 -0.0860023
1.86 -0.0790311
1.87 -0.0722255
1.88 -0.0664257
1.89 -0.062271
1.9 -0.0603634
1.91 -0.0612661
1.92 -0.0649094
1.93 -0.0717876
1.94 -0.0812086
1.95 -0.0929902
1.96 -0.10638
1.97 -0.120579
1.98 -0.134626
1.99 -0.147619
2 -0.15837
2.01 -0.16613
2.02 -0.170069
2.03 -0.169346
2.04 -0.164056
2.05 -0.153194
2.06 -0.137644
2.07 -0.117232
2.08 -0.0926222
2.09 -0.0645851
2.1 -0.0336164
2.11 -0.000857442
2.12 0.0330935
2.13 0.0673868
2.14 0.101476
2.15 0.13489
2.16 0.167499
2.17 0.199151
2.18 0.230169
2.19 0.26084
2.2 0.291677
2.21 0.32315
2.22 0.355912
2.23 0.390192
2.24 0.426471
2.25 0.464605
2.26 0.504412
2.27 0.545346
2.28 0.586528
2.29 0.626668
2.3 0.66452
2.31 0.698283
2.32 0.726236
2.33 0.747064
2.34 0.75817
2.35 0.75952
2.36 0.74867
2.37 0.726057
2.38 0.691253
2.39 0.644213
2.4 0.586999
2.41 0.51951
2.42 0.445138
2.43 0.365452
2.44 0.283319
2.45 0.201265
2.46 0.122304
2.47 0.0483559
2.48 -0.0176045
2.49 -0.0744949
2.5 -0.120958
2.51 -0.1559
2.52 -0.180489
2.53 -0.193647
2.54 -0.198216
2.55 -0.194997
2.56 -0.186358
2.57 -0.174566
2.58 -0.161891
2.59 -0.150529
2.6 -0.142749
2.61 -0.139898
2.62 -0.14317
2.63 -0.153481
2.64 -0.170156
2.65 -0.193696
2.66 -0.222077
2.67 -0.254341
2.68 -0.288505
2.69 -0.322746
2.7 -0.354883
2.71 -0.383511
2.72 -0.406561
2.73 -0.423383
2.74 -0.433245
2.75 -0.435777
2.76 -0.432137
2.77 -0.422389
2.78 -0.408841
2.79 -0.392868
2.8 -0.376652
2.81 -0.362049
2.82 -0.351424
2.83 -0.345818
2.84 -0.347251
2.85 -0.355889
2.86 -0.372079
2.87 -0.39567
2.88 -0.425021
2.89 -0.459382
2.9 -0.496101
2.91 -0.533219
2.92 -0.568201
2.93 -0.599047
2.94 -0.622937
2.95 -0.639193
2.96 -0.645555
2.97 -0.642335
2.98 -0.62945
2.99 -0.607428
3 -0.578514
3.01 -0.543843
3.02 -0.506671
3.03 -0.469398
3.04 -0.434983
3.05 -0.405683
3.06 -0.384671
3.07 -0.372542
3.08 -0.371708
3.09 -0.381613
3.1 -0.402165
3.11 -0.432576
3.12 -0.470244
3.13 -0.513733
3.14 -0.559493
3.15 -0.604876
3.16 -0.646777
3.17 -0.682938
3.18 -0.710207
3.19 -0.728267
3.2 -0.735011
3.21 -0.731441
3.22 -0.718147
3.23 -0.696566
3.24 -0.669645
3.25 -0.639752
3.26 -0.610467
3.27 -0.585029
3.28 -0.566649
3.29 -0.557427
3.3 -0.560685
3.31 -0.575904
3.32 -0.604957
3.33 -0.645866
3.34 -0.697266
3.35 -0.756714
3.36 -0.820423
3.37 -0.884788
3.38 -0.945745
3.39 -0.999141
3.4 -1.04135
3.41 -1.07027
3.42 -1.08215
3.43 -1.07842
3.44 -1.05736
3.45 -1.0221
3.46 -0.974909
3.47 -0.919435
3.48 -0.860524
3.49 -0.803165
3.5 -0.752001
3.51 -0.712047
3.52 -0.68709
3.53 -0.678834
3.54 -0.69047
3.55 -0.718822
3.56 -0.763535
3.57 -0.818669
3.58 -0.878641
3.59 -0.935072
3.6 -0.98031
3.61 -1.00135
3.62 -0.991786
3.63 -0.939403
3.64 -0.835865
3.65 -0.677016
3.66 -0.450774
3.67 -0.163582
3.68 0.192435
3.69 0.607922
3.7 1.07805
3.71 1.59475
3.72 2.14244
3.73 2.71008
3.74 3.27899
3.75 3.83273
3.76 4.3531
3.77 4.82648
3.78 5.22988
3.79 5.55983
3.8 5.79501
3.81 5.93541
3.82 5.97502
3.83 5.90861
3.84 5.74965
3.85 5.48959
3.86 5.15225
3.87 4.74235
3.88 4.27676
3.89 3.77216
3.9 3.24251
3.91 2.70629
3.92 2.17876
3.93 1.67366
3.94 1.20274
3.95 0.778305
3.96 0.401962
3.97 0.0868832
3.98 -0.174047
3.99 -0.376807
4 -0.526121
4.01 -0.629129
4.02 -0.687966
4.03 -0.715545
4.04 -0.716081
4.05 -0.70011
4.06 -0.67436
4.07 -0.645811
4.08 -0.619739
4.09 -0.601373
4.1 -0.592362
4.11 -0.594858
4.12 -0.608637
4.13 -0.63213
4.14 -0.664088
4.15 -0.700787
4.16 -0.739542
4.17 -0.776787
4.18 -0.809557
4.19 -0.834584
4.2 -0.850672
4.21 -0.854517
4.22 -0.847015
4.23 -0.827003
4.24 -0.79528
4.25 -0.753345
4.26 -0.701656
4.27 -0.643105
4.28 -0.57866
4.29 -0.510625
4.3 -0.440403
4.31 -0.369333
4.32 -0.298367
4.33 -0.22821
4.34 -0.159005
4.35 -0.0908104
4.36 -0.0233627
4.37 0.0436711
4.38 0.110603
4.39 0.177634
4.4 0.244755
4.41 0.311634
4.42 0.377656
4.43 0.441666
4.44 0.50268
4.45 0.55836
4.46 0.607671
4.47 0.648208
4.48 0.678177
4.49 0.696581
4.5 0.700527
4.51 0.691044
4.52 0.665895
4.53 0.626519
4.54 0.573341
4.55 0.507168
4.56 0.430979
4.57 0.34564
4.58 0.254988
4.59 0.161229
4.6 0.0674188
4.61 -0.0240196
4.62 -0.110067
4.63 -0.189528
4.64 -0.259908
4.65 -0.320921
4.66 -0.372
4.67 -0.412832
4.68 -0.445067
4.69 -0.468498
4.7 -0.485794
4.71 -0.498029
4.72 -0.507194
4.73 -0.515001
4.74 -0.523075
4.75 -0.532614
4.76 -0.544831
4.77 -0.560115
4.78 -0.578689
4.79 -0.600479
4.8 -0.624651
4.81 -0.650651
4.82 -0.677188
4.83 -0.703191
4.84 -0.727431
4.85 -0.749034
4.86 -0.766685
4.87 -0.780309
4.88 -0.789015
4.89 -0.793178
4.9 -0.792989
4.91 -0.788869
4.92 -0.781949
4.93 -0.77286
4.94 -0.762964
4.95 -0.753243
4.96 -0.74479
4.97 -0.738348
4.98 -0.734952
4.99 -0.734641
5 -0.738057
5.01 -0.744871
5.02 -0.754903
5.03 -0.767815
5.04 -0.782776
5.05 -0.79936
5.06 -0.816632
5.07 -0.83397
5.08 -0.850683
5.09 -0.866301
5.1 -0.880176
5.11 -0.892206
5.12 -0.901859
5.13 -0.909088
5.14 -0.913637
5.15 -0.915067
5.16 -0.913369
5.17 -0.907432
5.18 -0.897163
5.19 -0.881332
5.2 -0.858914
5.21 -0.829165
5.22 -0.789755
5.23 -0.740755
5.24 -0.679638
5.25 -0.606338
5.26 -0.520004
5.27 -0.419688
5.28 -0.307059
5.29 -0.180981
5.3 -0.0447852
5.31 0.100326
5.32 0.251207
5.33 0.404536
5.34 0.55625
5.35 0.702633
5.36 0.838448
5.37 0.960062
5.38 1.06342
5.39 1.14353
5.4 1.20007
5.41 1.22648
5.42 1.22556
5.43 1.1946
5.44 1.13481
5.45 1.04919
5.46 0.937657
5.47 0.806969
5.48 0.658999
5.49 0.50002
5.5 0.334543
5.51 0.167874
5.52 0.004532
5.53 -0.149835
5.54 -0.292586
5.55 -0.419645
5.56 -0.528768
5.57 -0.619581
5.58 -0.689278
5.59 -0.741017
5.6 -0.773618
5.61 -0.790461
5.62 -0.793438
5.63 -0.784731
5.64 -0.768001
5.65 -0.744892
5.66 -0.718674
5.67 -0.691059
5.68 -0.663766
5.69 -0.637725
5.7 -0.613652
5.71 -0.591249
5.72 -0.570212
5.73 -0.549533
5.74 -0.52818
5.75 -0.504772
5.76 -0.478469
5.77 -0.447656
5.78 -0.412256
5.79 -0.371579
5.8 -0.325864
5.81 -0.27593
5.82 -0.222499
5.83 -0.167463
5.84 -0.112536
5.85 -0.0598616
5.86 -0.0115028
5.87 0.0299482
5.88 0.0634566
5.89 0.0858204
5.9 0.0973331
5.91 0.0963446
5.92 0.0828216
5.93 0.0577214
5.94 0.0206103
5.95 -0.0256424
5.96 -0.0804451
5.97 -0.14106
5.98 -0.205568
5.99 -0.271774
6 -0.337664
6.01 -0.401138
6.02 -0.461059
6.03 -0.516076
6.04 -0.565558
6.05 -0.609597
6.06 -0.64774
6.07 -0.681289
6.08 -0.710494
6.09 -0.736719
6.1 -0.76091
6.11 -0.784091
6.12 -0.807159
6.13 -0.830838
6.14 -0.855419
6.15 -0.88104
6.16 -0.907426
6.17 -0.93407
6.18 -0.96016
6.19 -0.984933
6.2 -1.00724
6.21 -1.02636
6.22 -1.04156
6.23 -1.05207
6.24 -1.0582
6.25 -1.05936
6.26 -1.0567
6.27 -1.05064
6.28 -1.04232
6.29 -1.0329
6.3 -1.02353
6.31 -1.01517
6.32 -1.00866
6.33 -1.00413
6.34 -1.0013
6.35 -0.999116
6.36 -0.995925
6.37 -0.988688
6.38 -0.974678
6.39 -0.949511
6.4 -0.908578
6.41 -0.848476
6.42 -0.761419
6.43 -0.646764
6.44 -0.496779
6.45 -0.310923
6.46 -0.086857
6.47 0.178192
6.48 0.479107
6.49 0.819019
6.5 1.18842
6.51 1.58401
6.52 1.99738
6.53 2.41961
6.54 2.84059
6.55 3.25048
6.56 3.63654
6.57 3.98945
6.58 4.2993
6.59 4.5536
6.6 4.75127
6.61 4.87606
6.62 4.93384
6.63 4.91728
6.64 4.82786
6.65 4.67195
6.66 4.44672
6.67 4.1679
6.68 3.83724
6.69 3.46876
6.7 3.07187
6.71 2.65731
6.72 2.23686
6.73 1.82145
6.74 1.42008
6.75 1.0422
6.76 0.695196
6.77 0.38239
6.78 0.112408
6.79 -0.118568
6.8 -0.305072
6.81 -0.45167
6.82 -0.560226
6.83 -0.63263
6.84 -0.67665
6.85 -0.693014
6.86 -0.69044
6.87 -0.672168
6.88 -0.643401
6.89 -0.608454
6.9 -0.570524
6.91 -0.532617
6.92 -0.496802
6.93 -0.46424
6.94 -0.435543
6.95 -0.411017
6.96 -0.389932
6.97 -0.372223
6.98 -0.356775
6.99 -0.343173
7 -0.330892
7.01 -0.31966
7.02 -0.3097
7.03 -0.301214
7.04 -0.295103
7.05 -0.292145
7.06 -0.293366
7.07 -0.300231
7.08 -0.31308
7.09 -0.333872
7.1 -0.362119
7.11 -0.398625
7.12 -0.443057
7.13 -0.494375
7.14 -0.552186
7.15 -0.614182
7.16 -0.678999
7.17 -0.744285
7.18 -0.808033
7.19 -0.867791
7.2 -0.922221
7.21 -0.968574
7.22 -1.00668
7.23 -1.03514
7.24 -1.05381
7.25 -1.06353
7.26 -1.06412
7.27 -1.05806
7.28 -1.04623
7.29 -1.03105
7.3 -1.01438
7.31 -0.998322
7.32 -0.984392
7.33 -0.974523
7.34 -0.969093
7.35 -0.968802
7.36 -0.973302
7.37 -0.981512
7.38 -0.992175
7.39 -1.003
7.4 -1.0114
7.41 -1.01464
7.42 -1.00992
7.43 -0.993564
7.44 -0.964389
7.45 -0.91771
7.46 -0.854121
7.47 -0.771252
7.48 -0.669006
7.49 -0.548969
7.5 -0.410437
7.51 -0.257995
7.52 -0.092875
7.53 0.0803014
7.54 0.257868
7.55 0.435265
7.56 0.6085
7.57 0.771972
7.58 0.922845
7.59 1.05651
7.6 1.16968
7.61 1.26124
7.62 1.32635
7.63 1.36761
7.64 1.38168
7.65 1.3711
7.66 1.33676
7.67 1.27934
7.68 1.20342
7.69 1.10902
7.7 1.00159
7.71 0.883163
7.72 0.757343
7.73 0.62743
7.74 0.496383
7.75 0.367061
7.76 0.242375
7.77 0.124392
7.78 0.0150314
7.79 -0.0833424
7.8 -0.17069
7.81 -0.244038
7.82 -0.304512
7.83 -0.3507
7.84 -0.382618
7.85 -0.401253
7.86 -0.405426
7.87 -0.397826
7.88 -0.378028
7.89 -0.348301
7.9 -0.310047
7.91 -0.264819
7.92 -0.215211
7.93 -0.162974
7.94 -0.110758
7.95 -0.060833
7.96 -0.0156682
7.97 0.0230472
7.98 0.0522328
7.99 0.0716045
8 0.0785753
8.01 0.0731626
8.02 0.0549437
8.03 0.0233551
8.04 -0.0195446
8.05 -0.0742997
8.06 -0.137745
8.07 -0.208649
8.08 -0.284525
8.09 -0.362934
8.1 -0.441462
8.11 -0.517913
8.12 -0.589891
8.13 -0.655924
8.14 -0.714769
8.15 -0.765115
8.16 -0.80763
8.17 -0.841304
8.18 -0.868016
8.19 -0.888318
8.2 -0.903799
8.21 -0.916173
8.22 -0.926861
8.23 -0.937482
8.24 -0.949232
8.25 -0.962798
8.26 -0.978369
8.27 -0.995571
8.28 -1.01322
8.29 -1.02937
8.3 -1.04177
8.31 -1.04723
8.32 -1.04215
8.33 -1.02384
8.34 -0.986369
8.35 -0.92901
8.36 -0.846001
8.37 -0.73656
8.38 -0.598939
8.39 -0.430674
8.4 -0.235444
8.41 -0.0106008
8.42 0.237217
8.43 0.505949
8.44 0.790002
8.45 1.08312
8.46 1.3789
8.47 1.67021
8.48 1.94888
8.49 2.20822
8.5 2.44168
8.51 2.6407
8.52 2.80412
8.53 2.92128
8.54 2.99513
8.55 3.02071
8.56 2.99807
8.57 2.93111
8.58 2.81677
8.59 2.66506
8.6 2.4761
8.61 2.25837
8.62 2.01751
8.63 1.75948
8.64 1.49224
8.65 1.22165
8.66 0.954354
8.67 0.696074
8.68 0.452087
8.69 0.225212
8.7 0.0213032
8.71 -0.160733
8.72 -0.316907
8.73 -0.448777
8.74 -0.556781
8.75 -0.640979
8.76 -0.705748
8.77 -0.750641
8.78 -0.780976
8.79 -0.79847
8.8 -0.8064
8.81 -0.80791
8.82 -0.805155
8.83 -0.800934
8.84 -0.797081
8.85 -0.795195
8.86 -0.796343
8.87 -0.801515
8.88 -0.810576
8.89 -0.824138
8.9 -0.841309
8.91 -0.861833
8.92 -0.884921
8.93 -0.90969
8.94 -0.935405
8.95 -0.961159
8.96 -0.986195
8.97 -1.00991
8.98 -1.03183
8.99 -1.05148
9 -1.06894
9.01 -1.08382
9.02 -1.09653
9.03 -1.10711
9.04 -1.11582
9.05 -1.12305
9.06 -1.12888
9.07 -1.1337
9.08 -1.13751
9.09 -1.14037
9.1 -1.14213
9.11 -1.14242
9.12 -1.14098
9.13 -1.13689
9.14 -1.12979
9.15 -1.11871
9.16 -1.10277
9.17 -1.08157
9.18 -1.05356
9.19 -1.01911
9.2 -0.976974
9.21 -0.927507
9.22 -0.870776
9.23 -0.806794
9.24 -0.737026
9.25 -0.661726
9.26 -0.582977
9.27 -0.502116
9.28 -0.421171
9.29 -0.341954
9.3 -0.267064
9.31 -0.197856
9.32 -0.137023
9.33 -0.0857764
9.34 -0.0454558
9.35 -0.0178917
9.36 -0.00221848
9.37 -0.000488194
9.38 -0.0105393
9.39 -0.0324004
9.4 -0.064591
9.41 -0.104936
9.42 -0.152238
9.43 -0.20342
9.44 -0.256584
9.45 -0.309184
9.46 -0.359196
9.47 -0.404297
9.48 -0.443573
9.49 -0.474759
9.5 -0.498164
9.51 -0.513
9.52 -0.519582
9.53 -0.519061
9.54 -0.511739
9.55 -0.499911
9.56 -0.484699
9.57 -0.468167
9.58 -0.451941
9.59 -0.437879
9.6 -0.42705
9.61 -0.421263
9.62 -0.420682
9.63 -0.426096
9.64 -0.437528
9.65 -0.454315
9.66 -0.476464
9.67 -0.502398
9.68 -0.531521
9.69 -0.562458
9.7 -0.5942
9.71 -0.625702
9.72 -0.656262
9.73 -0.685092
9.74 -0.7121
9.75 -0.737098
9.76 -0.760265
9.77 -0.782004
9.78 -0.802562
9.79 -0.822441
9.8 -0.841763
9.81 -0.860497
9.82 -0.87823
9.83 -0.893879
9.84 -0.906361
9.85 -0.912917
9.86 -0.911699
9.87 -0.89916
9.88 -0.871538
9.89 -0.826402
9.9 -0.756937
9.91 -0.662928
9.92 -0.537802
9.93 -0.380667
9.94 -0.18958
9.95 0.0388
9.96 0.300218
9.97 0.598382
9.98 0.92583
9.99 1.2806
10 1.6566
10.01 2.04646
10.02 2.44323
10.03 2.8379
10.04 3.22101
10.05 3.58387
10.06 3.91822
10.07 4.21294
10.08 4.46568
10.09 4.66277
10.1 4.80638
10.11 4.88965
10.12 4.91119
10.13 4.87526
10.14 4.77638
10.15 4.62685
10.16 4.42573
10.17 4.18321
10.18 3.90617
10.19 3.60144
10.2 3.27975
10.21 2.94773
10.22 2.6148
10.23 2.2881
10.24 1.97479
10.25 1.67903
10.26 1.40825
10.27 1.16195
10.28 0.945017
10.29 0.756141
10.3 0.594808
10.31 0.461081
10.32 0.349723
10.33 0.260971
10.34 0.188559
10.35 0.13013
10.36 0.0816932
10.37 0.0394563
10.38 0.000644536
10.39 -0.0378308
10.4 -0.0781998
10.41 -0.12208
10.42 -0.170485
10.43 -0.224324
10.44 -0.28303
10.45 -0.346942
10.46 -0.414649
10.47 -0.485426
10.48 -0.557956
10.49 -0.63095
10.5 -0.702957
10.51 -0.77289
10.52 -0.839277
10.53 -0.901243
10.54 -0.957955
10.55 -1.00824
10.56 -1.05228
10.57 -1.08863
10.58 -1.11795
10.59 -1.13964
10.6 -1.15366
10.61 -1.16058
10.62 -1.1596
10.63 -1.15207
10.64 -1.13753
10.65 -1.11687
10.66 -1.09057
10.67 -1.05894
10.68 -1.02321
10.69 -0.983592
10.7 -0.941452
10.71 -0.897516
10.72 -0.852865
10.73 -0.808467
10.74 -0.765532
10.75 -0.724814
10.76 -0.68755
10.77 -0.654411
10.78 -0.626075
10.79 -0.603529
10.8 -0.586518
10.81 -0.576213
10.82 -0.57187
10.83 -0.573811
10.84 -0.581763
10.85 -0.594974
10.86 -0.613599
10.87 -0.636306
10.88 -0.662919
10.89 -0.692454
10.9 -0.724249
10.91 -0.757677
10.92 -0.791951
10.93 -0.826519
10.94 -0.860781
10.95 -0.894234
10.96 -0.926396
10.97 -0.957008
10.98 -0.985477
10.99 -1.01184
11 -1.0356
11.01 -1.05676
11.02 -1.0752
11.03 -1.09066
11.04 -1.1035
11.05 -1.11338
11.06 -1.12083
11.07 -1.1259
11.08 -1.12896
11.09 -1.1305
11.1 -1.13083
11.11 -1.13059
11.12 -1.13022
11.13 -1.13022
11.14 -1.13094
11.15 -1.13271
11.16 -1.13545
11.17 -1.13913
11.18 -1.14316
11.19 -1.1468
11.2 -1.14882
11.21 -1.14803
11.22 -1.14199
11.23 -1.12946
11.24 -1.10735
11.25 -1.07374
11.26 -1.02645
11.27 -0.961983
11.28 -0.880413
11.29 -0.777186
11.3 -0.653793
11.31 -0.508384
11.32 -0.341154
11.33 -0.154478
11.34 0.0523066
11.35 0.273824
11.36 0.50834
11.37 0.750646
11.38 0.996283
11.39 1.23961
11.4 1.47588
11.41 1.69778
11.42 1.9016
11.43 2.08125
11.44 2.23177
11.45 2.35174
11.46 2.43352
11.47 2.48066
11.48 2.48813
11.49 2.45876
11.5 2.39401
11.51 2.29418
11.52 2.16633
11.53 2.01062
11.54 1.83522
11.55 1.64377
11.56 1.442
11.57 1.23538
11.58 1.02895
11.59 0.827086
11.6 0.634412
11.61 0.45381
11.62 0.287544
11.63 0.138482
11.64 0.00544271
11.65 -0.108996
11.66 -0.20777
11.67 -0.291081
11.68 -0.360805
11.69 -0.419754
11.7 -0.468983
11.71 -0.512059
11.72 -0.550462
11.73 -0.586538
11.74 -0.621806
11.75 -0.657585
11.76 -0.694523
11.77 -0.733136
11.78 -0.773046
11.79 -0.813752
11.8 -0.85418
11.81 -0.893184
11.82 -0.928801
11.83 -0.959895
11.84 -0.984146
11.85 -1.00018
11.86 -1.00656
11.87 -1.00103
11.88 -0.983886
11.89 -0.95233
11.9 -0.907571
11.91 -0.84858
11.92 -0.775519
11.93 -0.689861
11.94 -0.590826
11.95 -0.481487
11.96 -0.362164
11.97 -0.235377
11.98 -0.103066
11.99 0.0326402
12 0.169171
12.01 0.303911
12.02 0.434535
12.03 0.558381
12.04 0.672803
12.05 0.776434
12.06 0.865377
12.07 0.940011
12.08 0.997148
12.09 1.03676
12.1 1.05837
12.11 1.06053
12.12 1.04575
12.13 1.01227
12.14 0.963593
12.15 0.900375
12.16 0.824791
12.17 0.739808
12.18 0.64698
12.19 0.549948
12.2 0.450889
12.21 0.352585
12.22 0.257179
12.23 0.167138
12.24 0.0833386
12.25 0.00806244
12.26 -0.0590172
12.27 -0.117198
12.28 -0.166764
12.29 -0.208985
12.3 -0.244075
12.31 -0.274398
12.32 -0.301006
12.33 -0.325884
12.34 -0.350555
12.35 -0.376659
12.36 -0.405136
12.37 -0.437297
12.38 -0.473119
12.39 -0.512775
12.4 -0.555684
