# xPDFsuite Configuration #
[PDF]
wavelength = 0.1432
dataformat = twotheta
inputfile = 1_1Pd_CeO2_cycle-00119.chi
backgroundfile = background-00000.chi
mode = xray
bgscale = 1.007
composition = CeO2
outputtype = gr
qmaxinst = 28.8974762299
qmin = 0.5
qmax = 27.9
rmax = 50.0
rmin = 0.0
rstep = 0.01
rpoly = 1.8657

[Misc]
inputdir = G:/SankarDec16/1Pd/Chi
savedir = D:/DATA/APS_CeO2/1Pd
backgroundfilefull = G:/SankarDec16/Background/background-00000.chi

#### start data
#S 1
#L r($\AA$)  G($\AA^{-2}$)
0 0
0.01 -0.00670053
0.02 -0.0128949
0.03 -0.0180622
0.04 -0.02181
0.05 -0.0239205
0.06 -0.0240436
0.07 -0.0224137
0.08 -0.0189196
0.09 -0.0140085
0.1 -0.00799046
0.11 -0.00133933
0.12 0.0054296
0.13 0.0117367
0.14 0.0171743
0.15 0.0212411
0.16 0.0236459
0.17 0.0242736
0.18 0.0228884
0.19 0.0198367
0.2 0.0151361
0.21 0.00930901
0.22 0.00274225
0.23 -0.00403156
0.24 -0.0105284
0.25 -0.0161238
0.26 -0.0205281
0.27 -0.0232853
0.28 -0.024219
0.29 -0.0233235
0.3 -0.0204887
0.31 -0.0161564
0.32 -0.0104724
0.33 -0.00400885
0.34 0.00278959
0.35 0.00935735
0.36 0.0152658
0.37 0.0198764
0.38 0.023032
0.39 0.0243446
0.4 0.0237619
0.41 0.021388
0.42 0.0172448
0.43 0.0118479
0.44 0.00546439
0.45 -0.00131118
0.46 -0.00799862
0.47 -0.0140268
0.48 -0.0190441
0.49 -0.0224295
0.5 -0.0241668
0.51 -0.0239554
0.52 -0.0218705
0.53 -0.0181213
0.54 -0.0128618
0.55 -0.00665603
0.56 0.000119956
0.57 0.00687857
0.58 0.0131277
0.59 0.0183187
0.6 0.022195
0.61 0.024184
0.62 0.0244119
0.63 0.0226814
0.64 0.0191919
0.65 0.0142484
0.66 0.00813006
0.67 0.00142196
0.68 -0.00540927
0.69 -0.0118117
0.7 -0.0173059
0.71 -0.0213928
0.72 -0.0239242
0.73 -0.0244046
0.74 -0.0230971
0.75 -0.0199172
0.76 -0.0151795
0.77 -0.0092691
0.78 -0.00257612
0.79 0.004323
0.8 0.010896
0.81 0.0166549
0.82 0.0211594
0.83 0.0239868
0.84 0.0251061
0.85 0.0241275
0.86 0.0214371
0.87 0.0170701
0.88 0.0114399
0.89 0.00499049
0.9 -0.00179785
0.91 -0.0083922
0.92 -0.0142274
0.93 -0.0189126
0.94 -0.0220788
0.95 -0.0234154
0.96 -0.0230195
0.97 -0.0206518
0.98 -0.0168083
0.99 -0.0116656
1 -0.00572944
1.01 0.000510609
1.02 0.00648149
1.03 0.0117313
1.04 0.0156671
1.05 0.0180306
1.06 0.018546
1.07 0.0170418
1.08 0.0137716
1.09 0.00867791
1.1 0.0023922
1.11 -0.00473179
1.12 -0.012062
1.13 -0.019034
1.14 -0.0249195
1.15 -0.0293318
1.16 -0.0315659
1.17 -0.0314688
1.18 -0.0287952
1.19 -0.0234356
1.2 -0.0157986
1.21 -0.00586682
1.22 0.00553978
1.23 0.0179758
1.24 0.0306747
1.25 0.0429646
1.26 0.0539877
1.27 0.0632847
1.28 0.070013
1.29 0.0739588
1.3 0.0747787
1.31 0.0722404
1.32 0.0667363
1.33 0.058018
1.34 0.0469452
1.35 0.0337796
1.36 0.0192207
1.37 0.00391027
1.38 -0.0114873
1.39 -0.0263724
1.4 -0.0400714
1.41 -0.0521985
1.42 -0.0623577
1.43 -0.0701946
1.44 -0.0758183
1.45 -0.0788151
1.46 -0.0796524
1.47 -0.0782689
1.48 -0.0749612
1.49 -0.0700344
1.5 -0.0636175
1.51 -0.0561466
1.52 -0.0477332
1.53 -0.038685
1.54 -0.029159
1.55 -0.0193131
1.56 -0.00930309
1.57 0.000750457
1.58 0.0107096
1.59 0.0204187
1.6 0.0296973
1.61 0.0383742
1.62 0.0461125
1.63 0.0527812
1.64 0.0579287
1.65 0.0613966
1.66 0.062886
1.67 0.0620741
1.68 0.0590487
1.69 0.0533438
1.7 0.0453947
1.71 0.035133
1.72 0.0229246
1.73 0.00920736
1.74 -0.00561518
1.75 -0.0208605
1.76 -0.0359276
1.77 -0.0501836
1.78 -0.0630463
1.79 -0.0738907
1.8 -0.0825596
1.81 -0.0883847
1.82 -0.0917121
1.83 -0.0924032
1.84 -0.0908466
1.85 -0.0875526
1.86 -0.0830176
1.87 -0.0780603
1.88 -0.07342
1.89 -0.0698373
1.9 -0.0679818
1.91 -0.0685374
1.92 -0.0716097
1.93 -0.0778377
1.94 -0.0866907
1.95 -0.0981199
1.96 -0.111464
1.97 -0.125954
1.98 -0.140656
1.99 -0.154563
2 -0.166409
2.01 -0.175278
2.02 -0.180175
2.03 -0.180052
2.04 -0.174886
2.05 -0.163421
2.06 -0.146547
2.07 -0.123976
2.08 -0.0964185
2.09 -0.0647609
2.1 -0.02961
2.11 0.00760962
2.12 0.0460481
2.13 0.0845385
2.14 0.12223
2.15 0.158298
2.16 0.192471
2.17 0.224178
2.18 0.253847
2.19 0.281601
2.2 0.308079
2.21 0.333973
2.22 0.360117
2.23 0.387208
2.24 0.416098
2.25 0.447129
2.26 0.480561
2.27 0.516363
2.28 0.553867
2.29 0.592373
2.3 0.630514
2.31 0.666733
2.32 0.699168
2.33 0.726227
2.34 0.745124
2.35 0.755207
2.36 0.753608
2.37 0.740127
2.38 0.713787
2.39 0.673899
2.4 0.622219
2.41 0.557918
2.42 0.484473
2.43 0.403125
2.44 0.316855
2.45 0.22848
2.46 0.141172
2.47 0.0575697
2.48 -0.0189159
2.49 -0.0864566
2.5 -0.143067
2.51 -0.186913
2.52 -0.218765
2.53 -0.236704
2.54 -0.243594
2.55 -0.239813
2.56 -0.22779
2.57 -0.210056
2.58 -0.18897
2.59 -0.167495
2.6 -0.148295
2.61 -0.13353
2.62 -0.125055
2.63 -0.124572
2.64 -0.131895
2.65 -0.148412
2.66 -0.172182
2.67 -0.202736
2.68 -0.23812
2.69 -0.276306
2.7 -0.31512
2.71 -0.35241
2.72 -0.385798
2.73 -0.413824
2.74 -0.435124
2.75 -0.448559
2.76 -0.454748
2.77 -0.452902
2.78 -0.445148
2.79 -0.432348
2.8 -0.416583
2.81 -0.39984
2.82 -0.384402
2.83 -0.371978
2.84 -0.364811
2.85 -0.363813
2.86 -0.369899
2.87 -0.383618
2.88 -0.403869
2.89 -0.43068
2.9 -0.461633
2.91 -0.495272
2.92 -0.529214
2.93 -0.561392
2.94 -0.589123
2.95 -0.611163
2.96 -0.625116
2.97 -0.630646
2.98 -0.627191
2.99 -0.614679
3 -0.594848
3.01 -0.568175
3.02 -0.53764
3.03 -0.505188
3.04 -0.473588
3.05 -0.4451
3.06 -0.422712
3.07 -0.407452
3.08 -0.401767
3.09 -0.405607
3.1 -0.419226
3.11 -0.442276
3.12 -0.472582
3.13 -0.509161
3.14 -0.548739
3.15 -0.589002
3.16 -0.627021
3.17 -0.660567
3.18 -0.686639
3.19 -0.704656
3.2 -0.712509
3.21 -0.710885
3.22 -0.700161
3.23 -0.68152
3.24 -0.657649
3.25 -0.630678
3.26 -0.604029
3.27 -0.580795
3.28 -0.564126
3.29 -0.55614
3.3 -0.560161
3.31 -0.575826
3.32 -0.605102
3.33 -0.646185
3.34 -0.697851
3.35 -0.757808
3.36 -0.822339
3.37 -0.887962
3.38 -0.950561
3.39 -1.00598
3.4 -1.05047
3.41 -1.08179
3.42 -1.096
3.43 -1.09436
3.44 -1.07489
3.45 -1.04057
3.46 -0.993495
3.47 -0.937149
3.48 -0.876427
3.49 -0.816168
3.5 -0.761253
3.51 -0.716765
3.52 -0.686741
3.53 -0.673154
3.54 -0.679509
3.55 -0.70293
3.56 -0.743442
3.57 -0.795352
3.58 -0.853333
3.59 -0.909265
3.6 -0.955446
3.61 -0.979139
3.62 -0.973637
3.63 -0.926685
3.64 -0.829656
3.65 -0.678063
3.66 -0.459489
3.67 -0.179946
3.68 0.168879
3.69 0.578003
3.7 1.04296
3.71 1.55606
3.72 2.10175
3.73 2.66946
3.74 3.24023
3.75 3.79771
3.76 4.32352
3.77 4.8037
3.78 5.21507
3.79 5.55364
3.8 5.79774
3.81 5.94688
3.82 5.99466
3.83 5.93538
3.84 5.78233
3.85 5.52644
3.86 5.19161
3.87 4.78232
3.88 4.31547
3.89 3.80794
3.9 3.27369
3.91 2.73166
3.92 2.19729
3.93 1.68477
3.94 1.20619
3.95 0.774276
3.96 0.390923
3.97 0.0697554
3.98 -0.196212
3.99 -0.402668
4 -0.554229
4.01 -0.658061
4.02 -0.716169
4.03 -0.74177
4.04 -0.739091
4.05 -0.719007
4.06 -0.688476
4.07 -0.654775
4.08 -0.623486
4.09 -0.600159
4.1 -0.586671
4.11 -0.585439
4.12 -0.596416
4.13 -0.618096
4.14 -0.649412
4.15 -0.686476
4.16 -0.726659
4.17 -0.766174
4.18 -0.801901
4.19 -0.830365
4.2 -0.850103
4.21 -0.857568
4.22 -0.853419
4.23 -0.836255
4.24 -0.806688
4.25 -0.766122
4.26 -0.714832
4.27 -0.655815
4.28 -0.589969
4.29 -0.519779
4.3 -0.446781
4.31 -0.37251
4.32 -0.298172
4.33 -0.224729
4.34 -0.152562
4.35 -0.0819913
4.36 -0.0129636
4.37 0.0547472
4.38 0.121233
4.39 0.186811
4.4 0.251383
4.41 0.314823
4.42 0.376671
4.43 0.436009
4.44 0.492161
4.45 0.543119
4.46 0.588154
4.47 0.625209
4.48 0.652779
4.49 0.670029
4.5 0.674397
4.51 0.666778
4.52 0.645112
4.53 0.610593
4.54 0.56348
4.55 0.504316
4.56 0.435663
4.57 0.358012
4.58 0.274747
4.59 0.187624
4.6 0.0992747
4.61 0.0118549
4.62 -0.072101
4.63 -0.151313
4.64 -0.223601
4.65 -0.288445
4.66 -0.345149
4.67 -0.39316
4.68 -0.433621
4.69 -0.46597
4.7 -0.492265
4.71 -0.513063
4.72 -0.529798
4.73 -0.543796
4.74 -0.556062
4.75 -0.567781
4.76 -0.579717
4.77 -0.592431
4.78 -0.606213
4.79 -0.621167
4.8 -0.637012
4.81 -0.653498
4.82 -0.670058
4.83 -0.686172
4.84 -0.70127
4.85 -0.714967
4.86 -0.726674
4.87 -0.73644
4.88 -0.743938
4.89 -0.749456
4.9 -0.753196
4.91 -0.755489
4.92 -0.756902
4.93 -0.757857
4.94 -0.758912
4.95 -0.760513
4.96 -0.763036
4.97 -0.766661
4.98 -0.771648
4.99 -0.777799
5 -0.78512
5.01 -0.793268
5.02 -0.801972
5.03 -0.810891
5.04 -0.819715
5.05 -0.828122
5.06 -0.835979
5.07 -0.843144
5.08 -0.849625
5.09 -0.855532
5.1 -0.860953
5.11 -0.866096
5.12 -0.871046
5.13 -0.875837
5.14 -0.880338
5.15 -0.884151
5.16 -0.886816
5.17 -0.88715
5.18 -0.884326
5.19 -0.876683
5.2 -0.862548
5.21 -0.840639
5.22 -0.80795
5.23 -0.764258
5.24 -0.706475
5.25 -0.634462
5.26 -0.547264
5.27 -0.443911
5.28 -0.326499
5.29 -0.193993
5.3 -0.0504027
5.31 0.102646
5.32 0.261397
5.33 0.422036
5.34 0.57986
5.35 0.730912
5.36 0.869439
5.37 0.991779
5.38 1.09381
5.39 1.17056
5.4 1.22214
5.41 1.24214
5.42 1.23401
5.43 1.19546
5.44 1.1283
5.45 1.03599
5.46 0.91906
5.47 0.784458
5.48 0.634532
5.49 0.475541
5.5 0.312024
5.51 0.149222
5.52 -0.00878803
5.53 -0.156545
5.54 -0.292045
5.55 -0.411652
5.56 -0.513688
5.57 -0.59821
5.58 -0.663004
5.59 -0.711364
5.6 -0.74255
5.61 -0.759881
5.62 -0.765238
5.63 -0.7607
5.64 -0.749476
5.65 -0.732987
5.66 -0.713887
5.67 -0.693447
5.68 -0.672849
5.69 -0.652631
5.7 -0.632957
5.71 -0.613444
5.72 -0.593411
5.73 -0.571959
5.74 -0.548119
5.75 -0.520668
5.76 -0.489227
5.77 -0.452471
5.78 -0.410905
5.79 -0.364299
5.8 -0.313403
5.81 -0.259386
5.82 -0.203497
5.83 -0.147636
5.84 -0.0938452
5.85 -0.0440869
5.86 -0.000299425
5.87 0.0351583
5.88 0.0617528
5.89 0.076659
5.9 0.0807592
5.91 0.0729195
5.92 0.0536384
5.93 0.0242155
5.94 -0.0152101
5.95 -0.0618201
5.96 -0.114666
5.97 -0.171239
5.98 -0.229768
5.99 -0.288307
6 -0.3454
6.01 -0.399331
6.02 -0.449613
6.03 -0.495436
6.04 -0.536745
6.05 -0.574013
6.06 -0.607402
6.07 -0.638206
6.08 -0.667078
6.09 -0.695195
6.1 -0.723401
6.11 -0.752527
6.12 -0.782923
6.13 -0.815018
6.14 -0.848434
6.15 -0.882818
6.16 -0.91733
6.17 -0.95106
6.18 -0.982611
6.19 -1.01115
6.2 -1.03514
6.21 -1.05394
6.22 -1.06687
6.23 -1.0733
6.24 -1.074
6.25 -1.06858
6.26 -1.0588
6.27 -1.04551
6.28 -1.03034
6.29 -1.01483
6.3 -1.00068
6.31 -0.98894
6.32 -0.980868
6.33 -0.976538
6.34 -0.975677
6.35 -0.977199
6.36 -0.979066
6.37 -0.978132
6.38 -0.97115
6.39 -0.953414
6.4 -0.919877
6.41 -0.866786
6.42 -0.785904
6.43 -0.676415
6.44 -0.530217
6.45 -0.346718
6.46 -0.123496
6.47 0.142286
6.48 0.445262
6.49 0.788604
6.5 1.16241
6.51 1.56321
6.52 1.98228
6.53 2.41044
6.54 2.83727
6.55 3.25272
6.56 3.6438
6.57 4.00101
6.58 4.31436
6.59 4.57123
6.6 4.77059
6.61 4.8961
6.62 4.9538
6.63 4.93641
6.64 4.84554
6.65 4.68771
6.66 4.46021
6.67 4.17896
6.68 3.84582
6.69 3.47497
6.7 3.07592
6.71 2.65951
6.72 2.23758
6.73 1.82117
6.74 1.41924
6.75 1.04128
6.76 0.694656
6.77 0.382619
6.78 0.11378
6.79 -0.115809
6.8 -0.300752
6.81 -0.445742
6.82 -0.552755
6.83 -0.623824
6.84 -0.666805
6.85 -0.682603
6.86 -0.679974
6.87 -0.662275
6.88 -0.634759
6.89 -0.601718
6.9 -0.566411
6.91 -0.53169
6.92 -0.499591
6.93 -0.47109
6.94 -0.446639
6.95 -0.426327
6.96 -0.409231
6.97 -0.394993
6.98 -0.382353
6.99 -0.370648
7 -0.359193
7.01 -0.347673
7.02 -0.336108
7.03 -0.324892
7.04 -0.314867
7.05 -0.307061
7.06 -0.302697
7.07 -0.303509
7.08 -0.31017
7.09 -0.325007
7.1 -0.347845
7.11 -0.379854
7.12 -0.421005
7.13 -0.470397
7.14 -0.527989
7.15 -0.591301
7.16 -0.659131
7.17 -0.728856
7.18 -0.798264
7.19 -0.864613
7.2 -0.926111
7.21 -0.979593
7.22 -1.02442
7.23 -1.05872
7.24 -1.0819
7.25 -1.09455
7.26 -1.096
7.27 -1.08884
7.28 -1.07366
7.29 -1.05316
7.3 -1.02936
7.31 -1.00464
7.32 -0.981092
7.33 -0.961046
7.34 -0.945517
7.35 -0.935763
7.36 -0.932027
7.37 -0.933607
7.38 -0.939921
7.39 -0.948652
7.4 -0.957684
7.41 -0.964097
7.42 -0.965008
7.43 -0.956581
7.44 -0.937046
7.45 -0.901449
7.46 -0.849632
7.47 -0.778695
7.48 -0.687886
7.49 -0.5783
7.5 -0.448523
7.51 -0.302975
7.52 -0.142343
7.53 0.0287465
7.54 0.206671
7.55 0.386879
7.56 0.564899
7.57 0.735056
7.58 0.893828
7.59 1.03622
7.6 1.15838
7.61 1.25873
7.62 1.33184
7.63 1.38005
7.64 1.39958
7.65 1.39284
7.66 1.36062
7.67 1.30354
7.68 1.22648
7.69 1.12946
7.7 1.01841
7.71 0.895628
7.72 0.765105
7.73 0.630488
7.74 0.495114
7.75 0.362062
7.76 0.234541
7.77 0.114701
7.78 0.00452309
7.79 -0.0935886
7.8 -0.179795
7.81 -0.251147
7.82 -0.30908
7.83 -0.352352
7.84 -0.381229
7.85 -0.396898
7.86 -0.398403
7.87 -0.38853
7.88 -0.366998
7.89 -0.33608
7.9 -0.297168
7.91 -0.25178
7.92 -0.202371
7.93 -0.150617
7.94 -0.099003
7.95 -0.0496905
7.96 -0.00504102
7.97 0.0333134
7.98 0.0623458
7.99 0.0817291
8 0.0888371
8.01 0.0835779
8.02 0.0654131
8.03 0.0336176
8.04 -0.00984893
8.05 -0.0657296
8.06 -0.13088
8.07 -0.20416
8.08 -0.283073
8.09 -0.365083
8.1 -0.447707
8.11 -0.528509
8.12 -0.604888
8.13 -0.6751
8.14 -0.737643
8.15 -0.790882
8.16 -0.835359
8.17 -0.869698
8.18 -0.89583
8.19 -0.91417
8.2 -0.926375
8.21 -0.934363
8.22 -0.939669
8.23 -0.944337
8.24 -0.949863
8.25 -0.957367
8.26 -0.967415
8.27 -0.980094
8.28 -0.994414
8.29 -1.00892
8.3 -1.02131
8.31 -1.02858
8.32 -1.02701
8.33 -1.01368
8.34 -0.982489
8.35 -0.932159
8.36 -0.856544
8.37 -0.754301
8.38 -0.623197
8.39 -0.460172
8.4 -0.268649
8.41 -0.0453414
8.42 0.203059
8.43 0.474744
8.44 0.764044
8.45 1.06439
8.46 1.36925
8.47 1.6708
8.48 1.96046
8.49 2.23084
8.5 2.47481
8.51 2.68307
8.52 2.8541
8.53 2.97645
8.54 3.05302
8.55 3.07849
8.56 3.05287
8.57 2.98034
8.58 2.85782
8.59 2.69606
8.6 2.49551
8.61 2.2654
8.62 2.01196
8.63 1.74189
8.64 1.46366
8.65 1.18392
8.66 0.909544
8.67 0.646694
8.68 0.400822
8.69 0.174602
8.7 -0.0259264
8.71 -0.202494
8.72 -0.351255
8.73 -0.474411
8.74 -0.5729
8.75 -0.64737
8.76 -0.702726
8.77 -0.739141
8.78 -0.762245
8.79 -0.774168
8.8 -0.778408
8.81 -0.778077
8.82 -0.775535
8.83 -0.773155
8.84 -0.772715
8.85 -0.775355
8.86 -0.781786
8.87 -0.792588
8.88 -0.807213
8.89 -0.825843
8.9 -0.847324
8.91 -0.8711
8.92 -0.896209
8.93 -0.921774
8.94 -0.946914
8.95 -0.971006
8.96 -0.993333
8.97 -1.0136
8.98 -1.03159
8.99 -1.0471
9 -1.06049
9.01 -1.07166
9.02 -1.0812
9.03 -1.08934
9.04 -1.09648
9.05 -1.10298
9.06 -1.10905
9.07 -1.11489
9.08 -1.12049
9.09 -1.12573
9.1 -1.13033
9.11 -1.13378
9.12 -1.13566
9.13 -1.13492
9.14 -1.1311
9.15 -1.12312
9.16 -1.11008
9.17 -1.09152
9.18 -1.06586
9.19 -1.0335
9.2 -0.993159
9.21 -0.94521
9.22 -0.889707
9.23 -0.826619
9.24 -0.757414
9.25 -0.682238
9.26 -0.603173
9.27 -0.521466
9.28 -0.43909
9.29 -0.357858
9.3 -0.280276
9.31 -0.207808
9.32 -0.143137
9.33 -0.0876192
9.34 -0.0427251
9.35 -0.0104702
9.36 0.00980462
9.37 0.0157716
9.38 0.00939821
9.39 -0.00960721
9.4 -0.0399797
9.41 -0.0796226
9.42 -0.127603
9.43 -0.18068
9.44 -0.237056
9.45 -0.293956
9.46 -0.349165
9.47 -0.400103
9.48 -0.445484
9.49 -0.482674
9.5 -0.511615
9.51 -0.531129
9.52 -0.541177
9.53 -0.542747
9.54 -0.535745
9.55 -0.522629
9.56 -0.504348
9.57 -0.483229
9.58 -0.461123
9.59 -0.440185
9.6 -0.421969
9.61 -0.408717
9.62 -0.401089
9.63 -0.400359
9.64 -0.407012
9.65 -0.42062
9.66 -0.441703
9.67 -0.468522
9.68 -0.500735
9.69 -0.536683
9.7 -0.575127
9.71 -0.614717
9.72 -0.65418
9.73 -0.692276
9.74 -0.728311
9.75 -0.761555
9.76 -0.791643
9.77 -0.818675
9.78 -0.842307
9.79 -0.86316
9.8 -0.881039
9.81 -0.896169
9.82 -0.908348
9.83 -0.916763
9.84 -0.920932
9.85 -0.918509
9.86 -0.908298
9.87 -0.887296
9.88 -0.852308
9.89 -0.801244
9.9 -0.727891
9.91 -0.631967
9.92 -0.50724
9.93 -0.352606
9.94 -0.16595
9.95 0.0562969
9.96 0.310442
9.97 0.600549
9.98 0.919778
9.99 1.26665
10 1.63563
10.01 2.01964
10.02 2.41231
10.03 2.80456
10.04 3.18727
10.05 3.55155
10.06 3.88901
10.07 4.18836
10.08 4.44675
10.09 4.65024
10.1 4.80047
10.11 4.89019
10.12 4.91758
10.13 4.88667
10.14 4.79154
10.15 4.64457
10.16 4.4446
10.17 4.20199
10.18 3.92376
10.19 3.61691
10.2 3.29254
10.21 2.95753
10.22 2.62164
10.23 2.29228
10.24 1.97687
10.25 1.67966
10.26 1.40827
10.27 1.16206
10.28 0.945932
10.29 0.758328
10.3 0.598526
10.31 0.466308
10.32 0.356187
10.33 0.268066
10.34 0.195535
10.35 0.136036
10.36 0.0855009
10.37 0.0402245
10.38 -0.00256271
10.39 -0.0456167
10.4 -0.090943
10.41 -0.139766
10.42 -0.192743
10.43 -0.250323
10.44 -0.311704
10.45 -0.376716
10.46 -0.443929
10.47 -0.512402
10.48 -0.580838
10.49 -0.648193
10.5 -0.713107
10.51 -0.775057
10.52 -0.832942
10.53 -0.886474
10.54 -0.935331
10.55 -0.978979
10.56 -1.01792
10.57 -1.05137
10.58 -1.08001
10.59 -1.1035
10.6 -1.12178
10.61 -1.13509
10.62 -1.14252
10.63 -1.14468
10.64 -1.14066
10.65 -1.13062
10.66 -1.1144
10.67 -1.09151
10.68 -1.0628
10.69 -1.02763
10.7 -0.987324
10.71 -0.942249
10.72 -0.893477
10.73 -0.842329
10.74 -0.790056
10.75 -0.738262
10.76 -0.688625
10.77 -0.64266
10.78 -0.601754
10.79 -0.567756
10.8 -0.540921
10.81 -0.523337
10.82 -0.514396
10.83 -0.514871
10.84 -0.524581
10.85 -0.542468
10.86 -0.568757
10.87 -0.601259
10.88 -0.639449
10.89 -0.681501
10.9 -0.72606
10.91 -0.771681
10.92 -0.817002
10.93 -0.860614
10.94 -0.901684
10.95 -0.93925
10.96 -0.972672
10.97 -1.00192
10.98 -1.02627
10.99 -1.04649
11 -1.06236
11.01 -1.0746
11.02 -1.08368
11.03 -1.09004
11.04 -1.09454
11.05 -1.09754
11.06 -1.09979
11.07 -1.10171
11.08 -1.10378
11.09 -1.1063
11.1 -1.10963
11.11 -1.11382
11.12 -1.11905
11.13 -1.12523
11.14 -1.1322
11.15 -1.13974
11.16 -1.14742
11.17 -1.15463
11.18 -1.1607
11.19 -1.16466
11.2 -1.16529
11.21 -1.16163
11.22 -1.15132
11.23 -1.13368
11.24 -1.10592
11.25 -1.06667
11.26 -1.01417
11.27 -0.945422
11.28 -0.860725
11.29 -0.755993
11.3 -0.63266
11.31 -0.488988
11.32 -0.325049
11.33 -0.142896
11.34 0.0583454
11.35 0.273841
11.36 0.502267
11.37 0.738909
11.38 0.979714
11.39 1.21953
11.4 1.4537
11.41 1.67535
11.42 1.88058
11.43 2.06332
11.44 2.21837
11.45 2.34394
11.46 2.43204
11.47 2.48568
11.48 2.49933
11.49 2.47534
11.5 2.41477
11.51 2.31744
11.52 2.19038
11.53 2.03337
11.54 1.85486
11.55 1.65854
11.56 1.45047
11.57 1.23656
11.58 1.02231
11.59 0.812673
11.6 0.612837
11.61 0.426195
11.62 0.255426
11.63 0.103907
11.64 -0.0295673
11.65 -0.141999
11.66 -0.236684
11.67 -0.313891
11.68 -0.375863
11.69 -0.425932
11.7 -0.465609
11.71 -0.499114
11.72 -0.528523
11.73 -0.556731
11.74 -0.585705
11.75 -0.617306
11.76 -0.652181
11.77 -0.691303
11.78 -0.733946
11.79 -0.779576
11.8 -0.826781
11.81 -0.873897
11.82 -0.918569
11.83 -0.958991
11.84 -0.992293
11.85 -1.01655
11.86 -1.02988
11.87 -1.0295
11.88 -1.01567
11.89 -0.985133
11.9 -0.939384
11.91 -0.87739
11.92 -0.799585
11.93 -0.707885
11.94 -0.601824
11.95 -0.48507
11.96 -0.358397
11.97 -0.224812
11.98 -0.0866377
11.99 0.0535541
12 0.193133
12.01 0.32912
12.02 0.4594
12.03 0.581309
12.04 0.692422
12.05 0.791728
12.06 0.875582
12.07 0.944839
12.08 0.996669
12.09 1.03142
12.1 1.0489
12.11 1.048
12.12 1.03126
12.13 0.997142
12.14 0.948992
12.15 0.887414
12.16 0.814384
12.17 0.732582
12.18 0.64332
12.19 0.549894
12.2 0.454185
12.21 0.358712
12.22 0.265419
12.23 0.17655
12.24 0.0930191
12.25 0.0169637
12.26 -0.0517405
12.27 -0.112306
12.28 -0.164804
12.29 -0.21025
12.3 -0.248605
12.31 -0.28198
12.32 -0.311157
12.33 -0.337939
12.34 -0.363714
12.35 -0.389961
12.36 -0.417713
12.37 -0.448189
12.38 -0.481592
12.39 -0.518202
12.4 -0.557654
