# xPDFsuite Configuration #
[PDF]
wavelength = 0.1432
dataformat = twotheta
inputfile = 1_1Pd_CeO2_cycle-00243.chi
backgroundfile = background-00000.chi
mode = xray
bgscale = 1.007
composition = CeO2
outputtype = gr
qmaxinst = 28.8974762299
qmin = 0.5
qmax = 27.9
rmax = 50.0
rmin = 0.0
rstep = 0.01
rpoly = 1.8657

[Misc]
inputdir = G:/SankarDec16/1Pd/Chi
savedir = D:/DATA/APS_CeO2/1Pd
backgroundfilefull = G:/SankarDec16/Background/background-00000.chi

#### start data
#S 1
#L r($\AA$)  G($\AA^{-2}$)
0 0
0.01 -0.00520553
0.02 -0.0100185
0.03 -0.0140347
0.04 -0.0169498
0.05 -0.0185945
0.06 -0.0186966
0.07 -0.0174377
0.08 -0.0147307
0.09 -0.0109219
0.1 -0.0062511
0.11 -0.00108537
0.12 0.00417546
0.13 0.00908243
0.14 0.0133181
0.15 0.0164933
0.16 0.0183807
0.17 0.0188898
0.18 0.0178356
0.19 0.0154856
0.2 0.011851
0.21 0.00733626
0.22 0.00224011
0.23 -0.00302514
0.24 -0.00808315
0.25 -0.0124501
0.26 -0.0158986
0.27 -0.0180735
0.28 -0.0188354
0.29 -0.0181769
0.3 -0.0160095
0.31 -0.0126737
0.32 -0.00827906
0.33 -0.00326861
0.34 0.00201415
0.35 0.00713099
0.36 0.0117474
0.37 0.0153678
0.38 0.0178659
0.39 0.018938
0.4 0.0185392
0.41 0.0167464
0.42 0.0135717
0.43 0.00941293
0.44 0.0044728
0.45 -0.000787751
0.46 -0.00599711
0.47 -0.0107118
0.48 -0.0146556
0.49 -0.0173449
0.5 -0.0187612
0.51 -0.0186668
0.52 -0.0171143
0.53 -0.0142614
0.54 -0.0102212
0.55 -0.00542982
0.56 -0.000173848
0.57 0.00508969
0.58 0.009979
0.59 0.0140664
0.6 0.0171476
0.61 0.0187747
0.62 0.0190381
0.63 0.0177784
0.64 0.0151436
0.65 0.0113652
0.66 0.00665278
0.67 0.00146003
0.68 -0.00385574
0.69 -0.00886314
0.7 -0.0131885
0.71 -0.0164403
0.72 -0.0184964
0.73 -0.0189658
0.74 -0.018044
0.75 -0.0156577
0.76 -0.0120434
0.77 -0.00749521
0.78 -0.0023088
0.79 0.00306625
0.8 0.00822004
0.81 0.0127675
0.82 0.0163618
0.83 0.0186665
0.84 0.0196475
0.85 0.0189898
0.86 0.0169834
0.87 0.0136426
0.88 0.00927896
0.89 0.0042316
0.9 -0.00113722
0.91 -0.00640791
0.92 -0.0111469
0.93 -0.0150395
0.94 -0.0177916
0.95 -0.0191491
0.96 -0.019171
0.97 -0.0176523
0.98 -0.0149604
0.99 -0.0112099
1 -0.00677405
1.01 -0.00201865
1.02 0.0026388
1.03 0.00684607
1.04 0.0101689
1.05 0.0124009
1.06 0.0133337
1.07 0.0128368
1.08 0.0110875
1.09 0.00804901
1.1 0.00417752
1.11 -0.000262434
1.12 -0.00480813
1.13 -0.00904875
1.14 -0.0124514
1.15 -0.0147476
1.16 -0.0154349
1.17 -0.0144279
1.18 -0.0115784
1.19 -0.00685327
1.2 -0.000585659
1.21 0.00715306
1.22 0.0157376
1.23 0.0247619
1.24 0.033617
1.25 0.0417826
1.26 0.0485501
1.27 0.0536253
1.28 0.0563308
1.29 0.0565759
1.3 0.0541371
1.31 0.0489022
1.32 0.0412693
1.33 0.0311386
1.34 0.0192807
1.35 0.00601658
1.36 -0.00799905
1.37 -0.0221836
1.38 -0.0358665
1.39 -0.048577
1.4 -0.0596438
1.41 -0.0687905
1.42 -0.075675
1.43 -0.0800088
1.44 -0.0819873
1.45 -0.0812569
1.46 -0.0783731
1.47 -0.073354
1.48 -0.0665835
1.49 -0.0584379
1.5 -0.0491695
1.51 -0.0392444
1.52 -0.0289082
1.53 -0.0184842
1.54 -0.00818676
1.55 0.00177984
1.56 0.0113291
1.57 0.0202792
1.58 0.0286537
1.59 0.0363448
1.6 0.0433185
1.61 0.0495488
1.62 0.0548659
1.63 0.0592903
1.64 0.062562
1.65 0.0646321
1.66 0.0653161
1.67 0.0643871
1.68 0.0618795
1.69 0.0573943
1.7 0.0511683
1.71 0.0430358
1.72 0.0331396
1.73 0.0216979
1.74 0.0088205
1.75 -0.00501025
1.76 -0.0195241
1.77 -0.0342239
1.78 -0.0486975
1.79 -0.0624526
1.8 -0.0751987
1.81 -0.0863602
1.82 -0.0959076
1.83 -0.103514
1.84 -0.109165
1.85 -0.11298
1.86 -0.114932
1.87 -0.115489
1.88 -0.114794
1.89 -0.113338
1.9 -0.111461
1.91 -0.109558
1.92 -0.107927
1.93 -0.106915
1.94 -0.106597
1.95 -0.107102
1.96 -0.108353
1.97 -0.110176
1.98 -0.112337
1.99 -0.114469
2 -0.116141
2.01 -0.116944
2.02 -0.116443
2.03 -0.114135
2.04 -0.109883
2.05 -0.103022
2.06 -0.0937471
2.07 -0.0817226
2.08 -0.0670139
2.09 -0.0497956
2.1 -0.0299472
2.11 -0.00797367
2.12 0.0162129
2.13 0.0422238
2.14 0.0699607
2.15 0.09937
2.16 0.130236
2.17 0.162815
2.18 0.196906
2.19 0.232737
2.2 0.270344
2.21 0.309695
2.22 0.350948
2.23 0.393723
2.24 0.437923
2.25 0.482936
2.26 0.528158
2.27 0.572639
2.28 0.615513
2.29 0.655108
2.3 0.690583
2.31 0.720167
2.32 0.742524
2.33 0.75677
2.34 0.760724
2.35 0.754888
2.36 0.737322
2.37 0.708878
2.38 0.669503
2.39 0.619511
2.4 0.560952
2.41 0.49406
2.42 0.421869
2.43 0.345916
2.44 0.268716
2.45 0.192411
2.46 0.119627
2.47 0.0518176
2.48 -0.0085076
2.49 -0.0606276
2.5 -0.103515
2.51 -0.13639
2.52 -0.160394
2.53 -0.174734
2.54 -0.181908
2.55 -0.182666
2.56 -0.179042
2.57 -0.172938
2.58 -0.166256
2.59 -0.160765
2.6 -0.158302
2.61 -0.159897
2.62 -0.16645
2.63 -0.178604
2.64 -0.195732
2.65 -0.218094
2.66 -0.244006
2.67 -0.272579
2.68 -0.302161
2.69 -0.331271
2.7 -0.358091
2.71 -0.381594
2.72 -0.400119
2.73 -0.413283
2.74 -0.420609
2.75 -0.421949
2.76 -0.418382
2.77 -0.410151
2.78 -0.399219
2.79 -0.386851
2.8 -0.374889
2.81 -0.36485
2.82 -0.358717
2.83 -0.3572
2.84 -0.361905
2.85 -0.372781
2.86 -0.389951
2.87 -0.413078
2.88 -0.440648
2.89 -0.471773
2.9 -0.504184
2.91 -0.536073
2.92 -0.565276
2.93 -0.590153
2.94 -0.608302
2.95 -0.619372
2.96 -0.621542
2.97 -0.615335
2.98 -0.600893
2.99 -0.578933
3 -0.551551
3.01 -0.52004
3.02 -0.48724
3.03 -0.455408
3.04 -0.427125
3.05 -0.404277
3.06 -0.389631
3.07 -0.383436
3.08 -0.387677
3.09 -0.401573
3.1 -0.424805
3.11 -0.456392
3.12 -0.493856
3.13 -0.535601
3.14 -0.578458
3.15 -0.619902
3.16 -0.657175
3.17 -0.688354
3.18 -0.710654
3.19 -0.724078
3.2 -0.726897
3.21 -0.720322
3.22 -0.70514
3.23 -0.682959
3.24 -0.656615
3.25 -0.628605
3.26 -0.602177
3.27 -0.580452
3.28 -0.56634
3.29 -0.561647
3.3 -0.569376
3.31 -0.588743
3.32 -0.621302
3.33 -0.664915
3.34 -0.718062
3.35 -0.778178
3.36 -0.841588
3.37 -0.904603
3.38 -0.963452
3.39 -1.01409
3.4 -1.05317
3.41 -1.07879
3.42 -1.08748
3.43 -1.08087
3.44 -1.05744
3.45 -1.02042
3.46 -0.972166
3.47 -0.916335
3.48 -0.857655
3.49 -0.80108
3.5 -0.751011
3.51 -0.712302
3.52 -0.688515
3.53 -0.681176
3.54 -0.693245
3.55 -0.721486
3.56 -0.765383
3.57 -0.819042
3.58 -0.876914
3.59 -0.930722
3.6 -0.973025
3.61 -0.991017
3.62 -0.978571
3.63 -0.923732
3.64 -0.818434
3.65 -0.658693
3.66 -0.432727
3.67 -0.146927
3.68 0.206402
3.69 0.618074
3.7 1.08337
3.71 1.59443
3.72 2.136
3.73 2.69736
3.74 3.26023
3.75 3.80853
3.76 4.32447
3.77 4.79464
3.78 5.19649
3.79 5.52646
3.8 5.76352
3.81 5.90745
3.82 5.95214
3.83 5.89213
3.84 5.74047
3.85 5.4883
3.86 5.15892
3.87 4.75662
3.88 4.29781
3.89 3.79885
3.9 3.2732
3.91 2.73935
3.92 2.21221
3.93 1.70567
3.94 1.23156
3.95 0.80233
3.96 0.420033
3.97 0.0980774
3.98 -0.170096
3.99 -0.380062
4 -0.536075
4.01 -0.644936
4.02 -0.708304
4.03 -0.739035
4.04 -0.741007
4.05 -0.724868
4.06 -0.697387
4.07 -0.665681
4.08 -0.635416
4.09 -0.612038
4.1 -0.597698
4.11 -0.594917
4.12 -0.60389
4.13 -0.623349
4.14 -0.652464
4.15 -0.687543
4.16 -0.726173
4.17 -0.764658
4.18 -0.799954
4.19 -0.828621
4.2 -0.849086
4.21 -0.857773
4.22 -0.855129
4.23 -0.839607
4.24 -0.811617
4.25 -0.772402
4.26 -0.722021
4.27 -0.663407
4.28 -0.597295
4.29 -0.526186
4.3 -0.451617
4.31 -0.375163
4.32 -0.298193
4.33 -0.221762
4.34 -0.146474
4.35 -0.0728198
4.36 -0.000947898
4.37 0.0692217
4.38 0.137567
4.39 0.204378
4.4 0.269396
4.41 0.332538
4.42 0.393345
4.43 0.450936
4.44 0.504794
4.45 0.552962
4.46 0.594923
4.47 0.62874
4.48 0.653072
4.49 0.667205
4.5 0.668723
4.51 0.658571
4.52 0.634796
4.53 0.59859
4.54 0.550226
4.55 0.490248
4.56 0.421143
4.57 0.343413
4.58 0.260339
4.59 0.173656
4.6 0.085945
4.61 -0.00067585
4.62 -0.083677
4.63 -0.161807
4.64 -0.23287
4.65 -0.296352
4.66 -0.351548
4.67 -0.397897
4.68 -0.436564
4.69 -0.46699
4.7 -0.491285
4.71 -0.510056
4.72 -0.524811
4.73 -0.536953
4.74 -0.547605
4.75 -0.558009
4.76 -0.569063
4.77 -0.581369
4.78 -0.595273
4.79 -0.610931
4.8 -0.627991
4.81 -0.646235
4.82 -0.664934
4.83 -0.683487
4.84 -0.701159
4.85 -0.717407
4.86 -0.731441
4.87 -0.743177
4.88 -0.752082
4.89 -0.75836
4.9 -0.762122
4.91 -0.763625
4.92 -0.763533
4.93 -0.762232
4.94 -0.760509
4.95 -0.758929
4.96 -0.758101
4.97 -0.758419
4.98 -0.760416
4.99 -0.764063
5 -0.769638
5.01 -0.776896
5.02 -0.785671
5.03 -0.795708
5.04 -0.806558
5.05 -0.817932
5.06 -0.8294
5.07 -0.84066
5.08 -0.851433
5.09 -0.861562
5.1 -0.870806
5.11 -0.879179
5.12 -0.886449
5.13 -0.89255
5.14 -0.897244
5.15 -0.900057
5.16 -0.900707
5.17 -0.898001
5.18 -0.891468
5.19 -0.87965
5.2 -0.861215
5.21 -0.835183
5.22 -0.798931
5.23 -0.752433
5.24 -0.692951
5.25 -0.620425
5.26 -0.533995
5.27 -0.432741
5.28 -0.318523
5.29 -0.190271
5.3 -0.0515769
5.31 0.0961993
5.32 0.249705
5.33 0.405466
5.34 0.559235
5.35 0.707245
5.36 0.844144
5.37 0.966325
5.38 1.06975
5.39 1.14948
5.4 1.20533
5.41 1.23082
5.42 1.22892
5.43 1.19701
5.44 1.13644
5.45 1.05029
5.46 0.938552
5.47 0.807992
5.48 0.660509
5.49 0.502309
5.5 0.337846
5.51 0.172336
5.52 0.0101928
5.53 -0.143051
5.54 -0.284845
5.55 -0.411211
5.56 -0.519971
5.57 -0.610768
5.58 -0.680851
5.59 -0.733298
5.6 -0.766923
5.61 -0.785
5.62 -0.789341
5.63 -0.782018
5.64 -0.766604
5.65 -0.744623
5.66 -0.719297
5.67 -0.692269
5.68 -0.665238
5.69 -0.639155
5.7 -0.614743
5.71 -0.591801
5.72 -0.570089
5.73 -0.548712
5.74 -0.526735
5.75 -0.502893
5.76 -0.476403
5.77 -0.445766
5.78 -0.410892
5.79 -0.371125
5.8 -0.326665
5.81 -0.278256
5.82 -0.22655
5.83 -0.173302
5.84 -0.120099
5.85 -0.0689497
5.86 -0.0217939
5.87 0.0189173
5.88 0.0521781
5.89 0.0749278
5.9 0.0873861
5.91 0.0879219
5.92 0.0764175
5.93 0.0537079
5.94 0.0192487
5.95 -0.0242756
5.96 -0.0764385
5.97 -0.134667
5.98 -0.197188
5.99 -0.261966
6 -0.327007
6.01 -0.390362
6.02 -0.45079
6.03 -0.506946
6.04 -0.558086
6.05 -0.604154
6.06 -0.644554
6.07 -0.680388
6.08 -0.711714
6.09 -0.739725
6.1 -0.76522
6.11 -0.789065
6.12 -0.812162
6.13 -0.835101
6.14 -0.858312
6.15 -0.881963
6.16 -0.905935
6.17 -0.929902
6.18 -0.95325
6.19 -0.975427
6.2 -0.995529
6.21 -1.013
6.22 -1.02727
6.23 -1.03775
6.24 -1.04469
6.25 -1.04767
6.26 -1.04762
6.27 -1.04493
6.28 -1.04053
6.29 -1.03535
6.3 -1.03031
6.31 -1.0261
6.32 -1.02329
6.33 -1.02181
6.34 -1.02117
6.35 -1.02012
6.36 -1.01706
6.37 -1.00875
6.38 -0.992681
6.39 -0.964502
6.4 -0.919807
6.41 -0.855428
6.42 -0.7638
6.43 -0.644564
6.44 -0.490256
6.45 -0.300559
6.46 -0.0733251
6.47 0.194019
6.48 0.496365
6.49 0.836671
6.5 1.2056
6.51 1.59989
6.52 2.01128
6.53 2.43107
6.54 2.84931
6.55 3.2564
6.56 3.63982
6.57 3.99039
6.58 4.29836
6.59 4.55136
6.6 4.74825
6.61 4.87289
6.62 4.93096
6.63 4.91507
6.64 4.8265
6.65 4.67148
6.66 4.44698
6.67 4.16859
6.68 3.83787
6.69 3.4688
6.7 3.07073
6.71 2.65439
6.72 2.2317
6.73 1.81366
6.74 1.40951
6.75 1.0289
6.76 0.679481
6.77 0.364766
6.78 0.0937046
6.79 -0.137457
6.8 -0.323001
6.81 -0.467517
6.82 -0.572867
6.83 -0.640992
6.84 -0.679931
6.85 -0.690557
6.86 -0.681982
6.87 -0.65776
6.88 -0.623485
6.89 -0.583771
6.9 -0.542279
6.91 -0.502107
6.92 -0.465696
6.93 -0.434185
6.94 -0.408204
6.95 -0.388032
6.96 -0.372575
6.97 -0.361639
6.98 -0.353582
6.99 -0.347618
7 -0.342729
7.01 -0.338246
7.02 -0.333832
7.03 -0.329513
7.04 -0.325732
7.05 -0.323232
7.06 -0.322979
7.07 -0.32642
7.08 -0.334283
7.09 -0.348621
7.1 -0.369544
7.11 -0.398241
7.12 -0.434933
7.13 -0.479035
7.14 -0.530767
7.15 -0.588059
7.16 -0.650061
7.17 -0.714492
7.18 -0.779435
7.19 -0.84248
7.2 -0.901884
7.21 -0.954809
7.22 -1.00044
7.23 -1.03695
7.24 -1.06358
7.25 -1.08067
7.26 -1.08734
7.27 -1.08579
7.28 -1.07628
7.29 -1.06115
7.3 -1.04212
7.31 -1.0212
7.32 -1.00036
7.33 -0.981577
7.34 -0.965971
7.35 -0.954697
7.36 -0.948113
7.37 -0.94575
7.38 -0.94717
7.39 -0.950474
7.4 -0.953842
7.41 -0.954752
7.42 -0.95066
7.43 -0.938133
7.44 -0.915567
7.45 -0.878432
7.46 -0.826512
7.47 -0.757067
7.48 -0.669275
7.49 -0.564017
7.5 -0.439784
7.51 -0.300544
7.52 -0.146704
7.53 0.0175563
7.54 0.188997
7.55 0.363526
7.56 0.536909
7.57 0.703976
7.58 0.861215
7.59 1.00387
7.6 1.12811
7.61 1.23215
7.62 1.31059
7.63 1.36527
7.64 1.39219
7.65 1.39329
7.66 1.36895
7.67 1.3193
7.68 1.24891
7.69 1.15724
7.7 1.05012
7.71 0.929505
7.72 0.799308
7.73 0.663271
7.74 0.524619
7.75 0.386871
7.76 0.253348
7.77 0.12666
7.78 0.0091488
7.79 -0.0963501
7.8 -0.189624
7.81 -0.267252
7.82 -0.330454
7.83 -0.377671
7.84 -0.409006
7.85 -0.425673
7.86 -0.42656
7.87 -0.414784
7.88 -0.390109
7.89 -0.35517
7.9 -0.311642
7.91 -0.261372
7.92 -0.207141
7.93 -0.150975
7.94 -0.0955613
7.95 -0.0433001
7.96 0.00332207
7.97 0.0426901
7.98 0.0716933
7.99 0.0902521
8 0.0958195
8.01 0.0885877
8.02 0.0682504
8.03 0.0343622
8.04 -0.0109006
8.05 -0.0679899
8.06 -0.133672
8.07 -0.206656
8.08 -0.284417
8.09 -0.364507
8.1 -0.444473
8.11 -0.522146
8.12 -0.595104
8.13 -0.66189
8.14 -0.721258
8.15 -0.77188
8.16 -0.814448
8.17 -0.847911
8.18 -0.874184
8.19 -0.893806
8.2 -0.908386
8.21 -0.919675
8.22 -0.929119
8.23 -0.938408
8.24 -0.948799
8.25 -0.961061
8.26 -0.975462
8.27 -0.991731
8.28 -1.00873
8.29 -1.02463
8.3 -1.03719
8.31 -1.04328
8.32 -1.03925
8.33 -1.02241
8.34 -0.98676
8.35 -0.931449
8.36 -0.850614
8.37 -0.743314
8.38 -0.607662
8.39 -0.441011
8.4 -0.24695
8.41 -0.0226215
8.42 0.22534
8.43 0.494973
8.44 0.780684
8.45 1.07613
8.46 1.3749
8.47 1.66961
8.48 1.952
8.49 2.21513
8.5 2.45223
8.51 2.65449
8.52 2.82059
8.53 2.93958
8.54 3.01436
8.55 3.03982
8.56 3.01598
8.57 2.94682
8.58 2.82926
8.59 2.67357
8.6 2.48002
8.61 2.25736
8.62 2.01149
8.63 1.74869
8.64 1.47712
8.65 1.20301
8.66 0.933104
8.67 0.673344
8.68 0.4291
8.69 0.203138
8.7 0.00141719
8.71 -0.177441
8.72 -0.329504
8.73 -0.456629
8.74 -0.55949
8.75 -0.638437
8.76 -0.69811
8.77 -0.738383
8.78 -0.764742
8.79 -0.779131
8.8 -0.78496
8.81 -0.785372
8.82 -0.782659
8.83 -0.779404
8.84 -0.777439
8.85 -0.778129
8.86 -0.782361
8.87 -0.79092
8.88 -0.803439
8.89 -0.820316
8.9 -0.8405
8.91 -0.863574
8.92 -0.888651
8.93 -0.914838
8.94 -0.941327
8.95 -0.967346
8.96 -0.992165
8.97 -1.01533
8.98 -1.0365
8.99 -1.05534
9 -1.07204
9.01 -1.08635
9.02 -1.09874
9.03 -1.10928
9.04 -1.11827
9.05 -1.126
9.06 -1.13253
9.07 -1.13811
9.08 -1.14261
9.09 -1.14597
9.1 -1.14793
9.11 -1.14797
9.12 -1.14583
9.13 -1.14046
9.14 -1.13161
9.15 -1.1183
9.16 -1.09982
9.17 -1.0759
9.18 -1.0452
9.19 -1.00826
9.2 -0.964111
9.21 -0.913267
9.22 -0.855964
9.23 -0.792411
9.24 -0.724033
9.25 -0.651251
9.26 -0.575946
9.27 -0.499394
9.28 -0.423408
9.29 -0.349535
9.3 -0.280093
9.31 -0.216121
9.32 -0.159957
9.33 -0.112535
9.34 -0.0749465
9.35 -0.0487198
9.36 -0.033018
9.37 -0.0296111
9.38 -0.0365823
9.39 -0.0539759
9.4 -0.0805401
9.41 -0.11442
9.42 -0.154682
9.43 -0.198677
9.44 -0.244874
9.45 -0.291092
9.46 -0.335616
9.47 -0.376481
9.48 -0.412817
9.49 -0.442693
9.5 -0.466229
9.51 -0.48267
9.52 -0.492146
9.53 -0.495515
9.54 -0.492874
9.55 -0.486088
9.56 -0.475966
9.57 -0.464211
9.58 -0.452166
9.59 -0.441368
9.6 -0.432824
9.61 -0.428078
9.62 -0.427449
9.63 -0.431727
9.64 -0.441123
9.65 -0.455243
9.66 -0.474342
9.67 -0.497198
9.68 -0.523549
9.69 -0.552317
9.7 -0.582741
9.71 -0.614053
9.72 -0.645535
9.73 -0.676612
9.74 -0.706955
9.75 -0.736303
9.76 -0.764567
9.77 -0.791824
9.78 -0.817969
9.79 -0.843131
9.8 -0.867008
9.81 -0.889254
9.82 -0.909186
9.83 -0.925394
9.84 -0.936868
9.85 -0.940582
9.86 -0.935014
9.87 -0.916704
9.88 -0.882213
9.89 -0.829518
9.9 -0.752198
9.91 -0.650515
9.92 -0.518389
9.93 -0.355328
9.94 -0.159736
9.95 0.0713129
9.96 0.333596
9.97 0.630446
9.98 0.954719
9.99 1.30447
10 1.67393
10.01 2.05612
10.02 2.44445
10.03 2.83046
10.04 3.20518
10.05 3.56037
10.06 3.8882
10.07 4.17801
10.08 4.42753
10.09 4.62354
10.1 4.76799
10.11 4.85411
10.12 4.88029
10.13 4.85045
10.14 4.7589
10.15 4.61739
10.16 4.42462
10.17 4.19029
10.18 3.9209
10.19 3.62281
10.2 3.30659
10.21 2.97845
10.22 2.64787
10.23 2.32184
10.24 2.00758
10.25 1.70949
10.26 1.43504
10.27 1.18417
10.28 0.961962
10.29 0.76748
10.3 0.60049
10.31 0.461366
10.32 0.345061
10.33 0.25209
10.34 0.176225
10.35 0.115224
10.36 0.0650987
10.37 0.0219555
10.38 -0.0169796
10.39 -0.0550247
10.4 -0.0944892
10.41 -0.137177
10.42 -0.184232
10.43 -0.236689
10.44 -0.294066
10.45 -0.356777
10.46 -0.423416
10.47 -0.493256
10.48 -0.564938
10.49 -0.637113
10.5 -0.70825
10.51 -0.777201
10.52 -0.842416
10.53 -0.902987
10.54 -0.958065
10.55 -1.00647
10.56 -1.04848
10.57 -1.08269
10.58 -1.10989
10.59 -1.1296
10.6 -1.14194
10.61 -1.14757
10.62 -1.14589
10.63 -1.13827
10.64 -1.12436
10.65 -1.10503
10.66 -1.08074
10.67 -1.05174
10.68 -1.01908
10.69 -0.98285
10.7 -0.944165
10.71 -0.903549
10.72 -0.861841
10.73 -0.819842
10.74 -0.778479
10.75 -0.738482
10.76 -0.700894
10.77 -0.666427
10.78 -0.635794
10.79 -0.610033
10.8 -0.589143
10.81 -0.574431
10.82 -0.565473
10.83 -0.562846
10.84 -0.566585
10.85 -0.576159
10.86 -0.592074
10.87 -0.613054
10.88 -0.639176
10.89 -0.669442
10.9 -0.703172
10.91 -0.739722
10.92 -0.778028
10.93 -0.817444
10.94 -0.857003
10.95 -0.895951
10.96 -0.933479
10.97 -0.969073
10.98 -1.00178
10.99 -1.03154
11 -1.0576
11.01 -1.0799
11.02 -1.09834
11.03 -1.11264
11.04 -1.1234
11.05 -1.13033
11.06 -1.13429
11.07 -1.13558
11.08 -1.13481
11.09 -1.13274
11.1 -1.12995
11.11 -1.1272
11.12 -1.12515
11.13 -1.12431
11.14 -1.12503
11.15 -1.12761
11.16 -1.1318
11.17 -1.13743
11.18 -1.14366
11.19 -1.14954
11.2 -1.15357
11.21 -1.1544
11.22 -1.1493
11.23 -1.137
11.24 -1.11423
11.25 -1.07912
11.26 -1.02953
11.27 -0.962036
11.28 -0.876947
11.29 -0.769865
11.3 -0.64257
11.31 -0.493453
11.32 -0.322983
11.33 -0.133706
11.34 0.0747303
11.35 0.296955
11.36 0.531042
11.37 0.771848
11.38 1.01498
11.39 1.25486
11.4 1.48702
11.41 1.70429
11.42 1.90329
11.43 2.07816
11.44 2.22422
11.45 2.34026
11.46 2.41892
11.47 2.46378
11.48 2.47001
11.49 2.44037
11.5 2.37629
11.51 2.27801
11.52 2.15233
11.53 1.99931
11.54 1.82682
11.55 1.63829
11.56 1.43923
11.57 1.23492
11.58 1.03018
11.59 0.829376
11.6 0.637004
11.61 0.456007
11.62 0.288722
11.63 0.138112
11.64 0.00320798
11.65 -0.113241
11.66 -0.213942
11.67 -0.298891
11.68 -0.369755
11.69 -0.429241
11.7 -0.478196
11.71 -0.520251
11.72 -0.556805
11.73 -0.590332
11.74 -0.622474
11.75 -0.654712
11.76 -0.687943
11.77 -0.722918
11.78 -0.759502
11.79 -0.797439
11.8 -0.835882
11.81 -0.873773
11.82 -0.909396
11.83 -0.941494
11.84 -0.967833
11.85 -0.986868
11.86 -0.997004
11.87 -0.995786
11.88 -0.983205
11.89 -0.956198
11.9 -0.915678
11.91 -0.860332
11.92 -0.790053
11.93 -0.706201
11.94 -0.607709
11.95 -0.497772
11.96 -0.376597
11.97 -0.246886
11.98 -0.110747
11.99 0.0294896
12 0.170912
12.01 0.310612
12.02 0.445925
12.03 0.573865
12.04 0.691469
12.05 0.797221
12.06 0.886868
12.07 0.960897
12.08 1.01595
12.09 1.05215
12.1 1.06919
12.11 1.06578
12.12 1.04482
12.13 1.00479
12.14 0.949629
12.15 0.880318
12.16 0.799407
12.17 0.710083
12.18 0.614321
12.19 0.515732
12.2 0.416754
12.21 0.320078
12.22 0.227768
12.23 0.14222
12.24 0.0639441
12.25 -0.00492865
12.26 -0.0651553
12.27 -0.116334
12.28 -0.159119
12.29 -0.195055
12.3 -0.224753
12.31 -0.250674
12.32 -0.274157
12.33 -0.29721
12.34 -0.321364
12.35 -0.348293
12.36 -0.378673
12.37 -0.413784
12.38 -0.453251
12.39 -0.497049
