# xPDFsuite Configuration #
[PDF]
wavelength = 0.1432
dataformat = twotheta
inputfile = 1_1Pd_CeO2_cycle-00025.chi
backgroundfile = background-00000.chi
mode = xray
bgscale = 1.007
composition = CeO2
outputtype = gr
qmaxinst = 28.8974762299
qmin = 0.5
qmax = 27.9
rmax = 50.0
rmin = 0.0
rstep = 0.01
rpoly = 1.8657

[Misc]
inputdir = G:/SankarDec16/1Pd/Chi
savedir = D:/DATA/APS_CeO2/1Pd
backgroundfilefull = G:/SankarDec16/Background/background-00000.chi

#### start data
#S 1
#L r($\AA$)  G($\AA^{-2}$)
0 0
0.01 -0.00757311
0.02 -0.0145764
0.03 -0.020423
0.04 -0.0246708
0.05 -0.0270738
0.06 -0.0272359
0.07 -0.0254202
0.08 -0.0214986
0.09 -0.0159732
0.1 -0.00919116
0.11 -0.00168404
0.12 0.00596745
0.13 0.0131126
0.14 0.019289
0.15 0.0239311
0.16 0.0267069
0.17 0.0274828
0.18 0.0259875
0.19 0.0226068
0.2 0.0173538
0.21 0.0108135
0.22 0.00341757
0.23 -0.00423711
0.24 -0.0116032
0.25 -0.0179797
0.26 -0.0230326
0.27 -0.0262448
0.28 -0.0274096
0.29 -0.0265127
0.3 -0.0234201
0.31 -0.0186229
0.32 -0.0122747
0.33 -0.00501672
0.34 0.00265498
0.35 0.0101057
0.36 0.0168473
0.37 0.0221608
0.38 0.025857
0.39 0.0274913
0.4 0.0269921
0.41 0.0244657
0.42 0.0199222
0.43 0.0139353
0.44 0.00679241
0.45 -0.000838716
0.46 -0.00842076
0.47 -0.0153104
0.48 -0.0211019
0.49 -0.0250924
0.5 -0.0272461
0.51 -0.0272124
0.52 -0.0250591
0.53 -0.0210082
0.54 -0.0152145
0.55 -0.00830774
0.56 -0.00069605
0.57 0.0069569
0.58 0.0140979
0.59 0.0201049
0.6 0.024674
0.61 0.0271515
0.62 0.0276576
0.63 0.0259526
0.64 0.0222412
0.65 0.0168514
0.66 0.0100763
0.67 0.00257249
0.68 -0.00514981
0.69 -0.0124618
0.7 -0.0188207
0.71 -0.0236542
0.72 -0.0267755
0.73 -0.0276106
0.74 -0.0264305
0.75 -0.0231178
0.76 -0.0180046
0.77 -0.0115091
0.78 -0.00404859
0.79 0.00372489
0.8 0.0112249
0.81 0.017888
0.82 0.023209
0.83 0.0266947
0.84 0.0282849
0.85 0.0275158
0.86 0.0247955
0.87 0.0201361
0.88 0.0139803
0.89 0.00681473
0.9 -0.000841482
0.91 -0.00837753
0.92 -0.0151656
0.93 -0.0207423
0.94 -0.0246752
0.95 -0.0265877
0.96 -0.0265577
0.97 -0.0242793
0.98 -0.020283
0.99 -0.0147329
1 -0.00817443
1.01 -0.00114709
1.02 0.00572762
1.03 0.0119213
1.04 0.0167735
1.05 0.0199604
1.06 0.021148
1.07 0.020108
1.08 0.0170868
1.09 0.0119736
1.1 0.00544604
1.11 -0.00214091
1.12 -0.0101051
1.13 -0.0178269
1.14 -0.0245192
1.15 -0.029726
1.16 -0.0326713
1.17 -0.0331496
1.18 -0.0308673
1.19 -0.0256728
1.2 -0.0179841
1.21 -0.00775154
1.22 0.00414431
1.23 0.0172368
1.24 0.0306957
1.25 0.0437863
1.26 0.0555768
1.27 0.0655481
1.28 0.0727794
1.29 0.077021
1.3 0.0778913
1.31 0.0751326
1.32 0.0691688
1.33 0.0597398
1.34 0.0477878
1.35 0.0336183
1.36 0.0180129
1.37 0.00168797
1.38 -0.0145983
1.39 -0.0301932
1.4 -0.0443325
1.41 -0.0566086
1.42 -0.0665947
1.43 -0.0739239
1.44 -0.0787589
1.45 -0.0806902
1.46 -0.080292
1.47 -0.0775665
1.48 -0.0729121
1.49 -0.0667212
1.5 -0.0592366
1.51 -0.0509458
1.52 -0.0420638
1.53 -0.0329119
1.54 -0.0236748
1.55 -0.0145163
1.56 -0.00552193
1.57 0.00319792
1.58 0.0116308
1.59 0.0196941
1.6 0.0273204
1.61 0.0344325
1.62 0.0408117
1.63 0.0463773
1.64 0.0507788
1.65 0.0538634
1.66 0.0553508
1.67 0.0549115
1.68 0.0525551
1.69 0.0477877
1.7 0.0409186
1.71 0.0317967
1.72 0.0206766
1.73 0.0079101
1.74 -0.00621
1.75 -0.0210292
1.76 -0.0360249
1.77 -0.0505403
1.78 -0.0639803
1.79 -0.0756718
1.8 -0.0853583
1.81 -0.0922825
1.82 -0.096662
1.83 -0.0982323
1.84 -0.0972585
1.85 -0.0941664
1.86 -0.0893164
1.87 -0.0835447
1.88 -0.0775052
1.89 -0.0720165
1.9 -0.0677962
1.91 -0.0656252
1.92 -0.0657672
1.93 -0.0690121
1.94 -0.0750123
1.95 -0.0839098
1.96 -0.095221
1.97 -0.108295
1.98 -0.122406
1.99 -0.136514
2 -0.149496
2.01 -0.16033
2.02 -0.167974
2.03 -0.171271
2.04 -0.169977
2.05 -0.162682
2.06 -0.150004
2.07 -0.131424
2.08 -0.107409
2.09 -0.0786657
2.1 -0.0455274
2.11 -0.00940701
2.12 0.0290572
2.13 0.0686186
2.14 0.108414
2.15 0.147542
2.16 0.185495
2.17 0.221589
2.18 0.255924
2.19 0.288395
2.2 0.319354
2.21 0.349274
2.22 0.378677
2.23 0.408189
2.24 0.438404
2.25 0.469689
2.26 0.502269
2.27 0.536133
2.28 0.570826
2.29 0.605697
2.3 0.639708
2.31 0.671494
2.32 0.699472
2.33 0.722283
2.34 0.737428
2.35 0.744381
2.36 0.740524
2.37 0.725684
2.38 0.698948
2.39 0.659644
2.4 0.609362
2.41 0.547267
2.42 0.476547
2.43 0.398295
2.44 0.315248
2.45 0.230014
2.46 0.14552
2.47 0.0642727
2.48 -0.010535
2.49 -0.0771191
2.5 -0.133559
2.51 -0.178049
2.52 -0.211228
2.53 -0.23118
2.54 -0.24053
2.55 -0.239535
2.56 -0.230418
2.57 -0.215534
2.58 -0.197036
2.59 -0.177774
2.6 -0.160231
2.61 -0.146528
2.62 -0.138464
2.63 -0.137721
2.64 -0.144222
2.65 -0.159357
2.66 -0.18138
2.67 -0.209926
2.68 -0.243208
2.69 -0.279339
2.7 -0.316309
2.71 -0.352052
2.72 -0.384328
2.73 -0.411695
2.74 -0.432819
2.75 -0.44656
2.76 -0.45344
2.77 -0.45264
2.78 -0.44613
2.79 -0.434672
2.8 -0.420207
2.81 -0.404614
2.82 -0.390036
2.83 -0.37814
2.84 -0.371062
2.85 -0.369726
2.86 -0.375044
2.87 -0.387591
2.88 -0.406368
2.89 -0.431453
2.9 -0.460571
2.91 -0.492364
2.92 -0.524567
2.93 -0.555199
2.94 -0.581693
2.95 -0.602815
2.96 -0.616246
2.97 -0.621612
2.98 -0.618331
2.99 -0.60628
3 -0.587103
3.01 -0.561204
3.02 -0.531451
3.03 -0.499701
3.04 -0.46864
3.05 -0.440481
3.06 -0.41815
3.07 -0.402708
3.08 -0.396601
3.09 -0.39986
3.1 -0.412818
3.11 -0.435245
3.12 -0.465066
3.13 -0.501467
3.14 -0.541244
3.15 -0.582212
3.16 -0.621505
3.17 -0.656902
3.18 -0.685455
3.19 -0.706453
3.2 -0.717749
3.21 -0.719845
3.22 -0.712959
3.23 -0.698054
3.24 -0.677634
3.25 -0.653532
3.26 -0.629053
3.27 -0.607052
3.28 -0.590555
3.29 -0.581651
3.3 -0.583514
3.31 -0.595979
3.32 -0.620985
3.33 -0.656994
3.34 -0.702974
3.35 -0.756903
3.36 -0.815365
3.37 -0.875225
3.38 -0.932625
3.39 -0.983732
3.4 -1.02505
3.41 -1.05444
3.42 -1.06827
3.43 -1.06761
3.44 -1.05063
3.45 -1.02007
3.46 -0.977874
3.47 -0.927279
3.48 -0.872821
3.49 -0.819034
3.5 -0.770417
3.51 -0.731696
3.52 -0.706573
3.53 -0.696807
3.54 -0.705534
3.55 -0.729936
3.56 -0.769793
3.57 -0.819585
3.58 -0.874064
3.59 -0.925273
3.6 -0.965874
3.61 -0.983351
3.62 -0.971439
3.63 -0.918227
3.64 -0.815477
3.65 -0.658978
3.66 -0.436732
3.67 -0.154794
3.68 0.194825
3.69 0.603227
3.7 1.06594
3.71 1.57537
3.72 2.11628
3.73 2.67822
3.74 3.24272
3.75 3.79372
3.76 4.31326
3.77 4.78771
3.78 5.19433
3.79 5.52928
3.8 5.77128
3.81 5.91986
3.82 5.96871
3.83 5.91216
3.84 5.76324
3.85 5.51287
3.86 5.18449
3.87 4.78234
3.88 4.32293
3.89 3.82276
3.9 3.29538
3.91 2.75946
3.92 2.23001
3.93 1.72107
3.94 1.24455
3.95 0.812986
3.96 0.42845
3.97 0.104381
3.98 -0.165814
3.99 -0.377734
4 -0.535683
4.01 -0.646505
4.02 -0.711905
4.03 -0.744751
4.04 -0.748938
4.05 -0.73508
4.06 -0.709905
4.07 -0.680449
4.08 -0.652305
4.09 -0.630775
4.1 -0.617942
4.11 -0.616193
4.12 -0.62564
4.13 -0.64498
4.14 -0.673274
4.15 -0.706925
4.16 -0.743478
4.17 -0.779375
4.18 -0.811667
4.19 -0.837049
4.2 -0.854122
4.21 -0.859482
4.22 -0.853732
4.23 -0.835494
4.24 -0.805305
4.25 -0.764471
4.26 -0.713181
4.27 -0.654287
4.28 -0.588576
4.29 -0.51842
4.3 -0.445269
4.31 -0.370576
4.32 -0.295545
4.33 -0.221091
4.34 -0.147674
4.35 -0.0756551
4.36 -0.00508201
4.37 0.0641676
4.38 0.132049
4.39 0.198784
4.4 0.264123
4.41 0.327876
4.42 0.389507
4.43 0.448028
4.44 0.502822
4.45 0.551826
4.46 0.594463
4.47 0.628736
4.48 0.653286
4.49 0.667424
4.5 0.668758
4.51 0.658325
4.52 0.634253
4.53 0.59784
4.54 0.549454
4.55 0.489746
4.56 0.421235
4.57 0.344516
4.58 0.262816
4.59 0.17786
4.6 0.0921379
4.61 0.00764949
4.62 -0.0732238
4.63 -0.149385
4.64 -0.21884
4.65 -0.281214
4.66 -0.335947
4.67 -0.382632
4.68 -0.422409
4.69 -0.454864
4.7 -0.481935
4.71 -0.504192
4.72 -0.522963
4.73 -0.539441
4.74 -0.554521
4.75 -0.569193
4.76 -0.584072
4.77 -0.599547
4.78 -0.615767
4.79 -0.632673
4.8 -0.649944
4.81 -0.667155
4.82 -0.683803
4.83 -0.699309
4.84 -0.713154
4.85 -0.725042
4.86 -0.734424
4.87 -0.741523
4.88 -0.746101
4.89 -0.748605
4.9 -0.749359
4.91 -0.748834
4.92 -0.747677
4.93 -0.746458
4.94 -0.745747
4.95 -0.746069
4.96 -0.747814
4.97 -0.751134
4.98 -0.756318
4.99 -0.763062
5 -0.771368
5.01 -0.780796
5.02 -0.791017
5.03 -0.801627
5.04 -0.812241
5.05 -0.822491
5.06 -0.83219
5.07 -0.841157
5.08 -0.849374
5.09 -0.856933
5.1 -0.863899
5.11 -0.870487
5.12 -0.876761
5.13 -0.882757
5.14 -0.888336
5.15 -0.89308
5.16 -0.896529
5.17 -0.89745
5.18 -0.895019
5.19 -0.887531
5.2 -0.873288
5.21 -0.850997
5.22 -0.817599
5.23 -0.772903
5.24 -0.713784
5.25 -0.640144
5.26 -0.551051
5.27 -0.445572
5.28 -0.32588
5.29 -0.190995
5.3 -0.0450251
5.31 0.110317
5.32 0.271178
5.33 0.43367
5.34 0.592963
5.35 0.745083
5.36 0.884169
5.37 1.00656
5.38 1.10812
5.39 1.18386
5.4 1.23398
5.41 1.25207
5.42 1.24171
5.43 1.20068
5.44 1.13092
5.45 1.036
5.46 0.916579
5.47 0.779695
5.48 0.627829
5.49 0.467302
5.5 0.302716
5.51 0.139381
5.52 -0.0186708
5.53 -0.165912
5.54 -0.300456
5.55 -0.418692
5.56 -0.519044
5.57 -0.601676
5.58 -0.664481
5.59 -0.71088
5.6 -0.74026
5.61 -0.756046
5.62 -0.760216
5.63 -0.754959
5.64 -0.743487
5.65 -0.727339
5.66 -0.709096
5.67 -0.690046
5.68 -0.671308
5.69 -0.653323
5.7 -0.636183
5.71 -0.619348
5.72 -0.602013
5.73 -0.583125
5.74 -0.561573
5.75 -0.535963
5.76 -0.505846
5.77 -0.46968
5.78 -0.427986
5.79 -0.380421
5.8 -0.327724
5.81 -0.271124
5.82 -0.21184
5.83 -0.151971
5.84 -0.0936182
5.85 -0.038961
5.86 0.00988524
5.87 0.0503317
5.88 0.0816497
5.89 0.100714
5.9 0.108271
5.91 0.102936
5.92 0.0850471
5.93 0.0558512
5.94 0.0152621
5.95 -0.0337302
5.96 -0.0902905
5.97 -0.151695
5.98 -0.216029
5.99 -0.281152
6 -0.345284
6.01 -0.406441
6.02 -0.463786
6.03 -0.516171
6.04 -0.563203
6.05 -0.605133
6.06 -0.641708
6.07 -0.674237
6.08 -0.703064
6.09 -0.729464
6.1 -0.754306
6.11 -0.77849
6.12 -0.802734
6.13 -0.827598
6.14 -0.853207
6.15 -0.879551
6.16 -0.90625
6.17 -0.932768
6.18 -0.958241
6.19 -0.982025
6.2 -1.00304
6.21 -1.02073
6.22 -1.03453
6.23 -1.0439
6.24 -1.04929
6.25 -1.05037
6.26 -1.0483
6.27 -1.04366
6.28 -1.03757
6.29 -1.0311
6.3 -1.02538
6.31 -1.02108
6.32 -1.01889
6.33 -1.01864
6.34 -1.01981
6.35 -1.02105
6.36 -1.02057
6.37 -1.015
6.38 -1.00164
6.39 -0.975992
6.4 -0.933496
6.41 -0.870905
6.42 -0.780526
6.43 -0.662047
6.44 -0.507952
6.45 -0.318019
6.46 -0.0901714
6.47 0.178075
6.48 0.481485
6.49 0.822927
6.5 1.19298
6.51 1.58829
6.52 2.00061
6.53 2.42122
6.54 2.84022
6.55 3.24811
6.56 3.63246
6.57 3.9842
6.58 4.2937
6.59 4.54872
6.6 4.74814
6.61 4.87593
6.62 4.93768
6.63 4.92596
6.64 4.84193
6.65 4.69161
6.66 4.47174
6.67 4.19767
6.68 3.87065
6.69 3.50441
6.7 3.10807
6.71 2.69207
6.72 2.26835
6.73 1.84764
6.74 1.4394
6.75 1.0533
6.76 0.69725
6.77 0.375078
6.78 0.0960504
6.79 -0.14313
6.8 -0.336303
6.81 -0.487641
6.82 -0.598631
6.83 -0.670775
6.84 -0.712061
6.85 -0.722917
6.86 -0.712713
6.87 -0.684938
6.88 -0.645442
6.89 -0.599217
6.9 -0.550232
6.91 -0.502168
6.92 -0.457945
6.93 -0.419235
6.94 -0.387126
6.95 -0.362425
6.96 -0.344167
6.97 -0.332689
6.98 -0.326128
6.99 -0.323809
7 -0.324482
7.01 -0.327086
7.02 -0.330989
7.03 -0.33557
7.04 -0.340771
7.05 -0.346733
7.06 -0.353907
7.07 -0.363139
7.08 -0.37497
7.09 -0.390835
7.1 -0.411028
7.11 -0.436558
7.12 -0.467838
7.13 -0.504667
7.14 -0.547498
7.15 -0.594961
7.16 -0.646677
7.17 -0.701026
7.18 -0.756644
7.19 -0.811775
7.2 -0.864949
7.21 -0.914014
7.22 -0.958071
7.23 -0.995567
7.24 -1.02567
7.25 -1.04838
7.26 -1.06273
7.27 -1.07025
7.28 -1.07085
7.29 -1.06621
7.3 -1.05751
7.31 -1.04617
7.32 -1.03378
7.33 -1.02166
7.34 -1.01086
7.35 -1.0022
7.36 -0.995984
7.37 -0.991911
7.38 -0.989467
7.39 -0.987301
7.4 -0.983742
7.41 -0.976794
7.42 -0.964309
7.43 -0.943307
7.44 -0.912562
7.45 -0.868002
7.46 -0.809611
7.47 -0.734939
7.48 -0.643302
7.49 -0.535548
7.5 -0.410312
7.51 -0.271263
7.52 -0.118797
7.53 0.0432046
7.54 0.211706
7.55 0.382843
7.56 0.552634
7.57 0.716109
7.58 0.869931
7.59 1.00949
7.6 1.13104
7.61 1.23282
7.62 1.3095
7.63 1.36284
7.64 1.38883
7.65 1.3893
7.66 1.36462
7.67 1.31481
7.68 1.2444
7.69 1.15283
7.7 1.04589
7.71 0.925538
7.72 0.795702
7.73 0.660138
7.74 0.522118
7.75 0.385161
7.76 0.252625
7.77 0.127103
7.78 0.0109204
7.79 -0.0931257
7.8 -0.184894
7.81 -0.261047
7.82 -0.3229
7.83 -0.369005
7.84 -0.399578
7.85 -0.415898
7.86 -0.416991
7.87 -0.40595
7.88 -0.382618
7.89 -0.349566
7.9 -0.308413
7.91 -0.260927
7.92 -0.209724
7.93 -0.156693
7.94 -0.104336
7.95 -0.0548736
7.96 -0.0106117
7.97 0.0269435
7.98 0.0548869
7.99 0.0731093
8 0.079186
8.01 0.0732254
8.02 0.0548596
8.03 0.0235514
8.04 -0.0187313
8.05 -0.0725843
8.06 -0.135011
8.07 -0.204915
8.08 -0.279983
8.09 -0.357894
8.1 -0.436411
8.11 -0.513346
8.12 -0.586399
8.13 -0.654028
8.14 -0.714922
8.15 -0.767655
8.16 -0.812709
8.17 -0.848885
8.18 -0.877869
8.19 -0.900011
8.2 -0.916728
8.21 -0.929657
8.22 -0.940058
8.23 -0.94966
8.24 -0.959633
8.25 -0.97085
8.26 -0.983667
8.27 -0.997935
8.28 -1.01272
8.29 -1.02636
8.3 -1.03681
8.31 -1.04112
8.32 -1.03581
8.33 -1.01823
8.34 -0.98256
8.35 -0.927839
8.36 -0.848235
8.37 -0.742654
8.38 -0.609075
8.39 -0.444667
8.4 -0.252813
8.41 -0.0304148
8.42 0.216062
8.43 0.484863
8.44 0.770539
8.45 1.06678
8.46 1.36732
8.47 1.66462
8.48 1.9504
8.49 2.21753
8.5 2.45904
8.51 2.66589
8.52 2.83651
8.53 2.95965
8.54 3.038
8.55 3.06621
8.56 3.0441
8.57 2.97561
8.58 2.85747
8.59 2.70013
8.6 2.50379
8.61 2.27746
8.62 2.02718
8.63 1.75945
8.64 1.48273
8.65 1.20349
8.66 0.928743
8.67 0.66465
8.68 0.416785
8.69 0.188
8.7 -0.0155525
8.71 -0.195366
8.72 -0.347435
8.73 -0.473783
8.74 -0.575208
8.75 -0.652211
8.76 -0.709662
8.77 -0.747608
8.78 -0.771737
8.79 -0.78416
8.8 -0.788425
8.81 -0.78773
8.82 -0.784471
8.83 -0.781146
8.84 -0.779583
8.85 -0.78101
8.86 -0.78619
8.87 -0.795747
8.88 -0.809157
8.89 -0.826623
8.9 -0.846986
8.91 -0.86969
8.92 -0.893767
8.93 -0.918334
8.94 -0.94252
8.95 -0.965713
8.96 -0.987232
8.97 -1.00682
8.98 -1.0243
8.99 -1.03956
9 -1.05297
9.01 -1.06456
9.02 -1.07489
9.03 -1.08426
9.04 -1.09306
9.05 -1.1016
9.06 -1.11005
9.07 -1.1185
9.08 -1.12682
9.09 -1.13473
9.1 -1.1418
9.11 -1.1473
9.12 -1.15072
9.13 -1.15075
9.14 -1.1469
9.15 -1.13797
9.16 -1.12301
9.17 -1.10167
9.18 -1.07233
9.19 -1.03566
9.2 -0.990502
9.21 -0.937516
9.22 -0.877012
9.23 -0.809287
9.24 -0.736034
9.25 -0.657798
9.26 -0.576772
9.27 -0.494454
9.28 -0.412936
9.29 -0.333972
9.3 -0.260203
9.31 -0.192754
9.32 -0.134239
9.33 -0.0856422
9.34 -0.0481205
9.35 -0.0232972
9.36 -0.0101509
9.37 -0.0105293
9.38 -0.022208
9.39 -0.0451081
9.4 -0.0777165
9.41 -0.117904
9.42 -0.164447
9.43 -0.214422
9.44 -0.265969
9.45 -0.31668
9.46 -0.364626
9.47 -0.407579
9.48 -0.444708
9.49 -0.473816
9.5 -0.495241
9.51 -0.50822
9.52 -0.513069
9.53 -0.510921
9.54 -0.502072
9.55 -0.488789
9.56 -0.472195
9.57 -0.454358
9.58 -0.436927
9.59 -0.42182
9.6 -0.410149
9.61 -0.403844
9.62 -0.403121
9.63 -0.408886
9.64 -0.421252
9.65 -0.439578
9.66 -0.463999
9.67 -0.492835
9.68 -0.52553
9.69 -0.560569
9.7 -0.596822
9.71 -0.633076
9.72 -0.668414
9.73 -0.701798
9.74 -0.732925
9.75 -0.761358
9.76 -0.787055
9.77 -0.810328
9.78 -0.831161
9.79 -0.850185
9.8 -0.867406
9.81 -0.882979
9.82 -0.896645
9.83 -0.907514
9.84 -0.914834
9.85 -0.916128
9.86 -0.909879
9.87 -0.892857
9.88 -0.861597
9.89 -0.813821
9.9 -0.743037
9.91 -0.648923
9.92 -0.525053
9.93 -0.370347
9.94 -0.182703
9.95 0.0414311
9.96 0.298161
9.97 0.591497
9.98 0.914341
9.99 1.26506
10 1.63791
10.01 2.02564
10.02 2.42168
10.03 2.81684
10.04 3.20186
10.05 3.56781
10.06 3.90626
10.07 4.20587
10.08 4.46391
10.09 4.6664
10.1 4.81515
10.11 4.90298
10.12 4.92818
10.13 4.8949
10.14 4.79736
10.15 4.64802
10.16 4.44584
10.17 4.20127
10.18 3.92139
10.19 3.61328
10.2 3.28803
10.21 2.95264
10.22 2.61679
10.23 2.28794
10.24 1.97349
10.25 1.67763
10.26 1.40798
10.27 1.1638
10.28 0.949949
10.29 0.764778
10.3 0.607472
10.31 0.477705
10.32 0.369892
10.33 0.283786
10.34 0.212896
10.35 0.154532
10.36 0.104516
10.37 0.0591072
10.38 0.0153742
10.39 -0.0293575
10.4 -0.0771837
10.41 -0.129235
10.42 -0.186096
10.43 -0.248128
10.44 -0.314325
10.45 -0.384367
10.46 -0.456583
10.47 -0.52981
10.48 -0.602497
10.49 -0.67343
10.5 -0.740918
10.51 -0.804416
10.52 -0.862564
10.53 -0.915084
10.54 -0.961645
10.55 -1.00169
10.56 -1.03598
10.57 -1.06378
10.58 -1.08614
10.59 -1.10294
10.6 -1.11448
10.61 -1.1213
10.62 -1.12291
10.63 -1.12014
10.64 -1.11243
10.65 -1.10011
10.66 -1.08314
10.67 -1.06121
10.68 -1.03495
10.69 -1.00386
10.7 -0.968865
10.71 -0.930164
10.72 -0.888483
10.73 -0.844771
10.74 -0.799889
10.75 -0.755081
10.76 -0.711601
10.77 -0.670683
10.78 -0.633472
10.79 -0.601514
10.8 -0.575157
10.81 -0.556226
10.82 -0.544417
10.83 -0.540558
10.84 -0.544732
10.85 -0.556228
10.86 -0.575548
10.87 -0.600935
10.88 -0.632221
10.89 -0.667932
10.9 -0.707
10.91 -0.748317
10.92 -0.790555
10.93 -0.832617
10.94 -0.873499
10.95 -0.912276
10.96 -0.948162
10.97 -0.980863
10.98 -1.00952
10.99 -1.03451
11 -1.05537
11.01 -1.07251
11.02 -1.08615
11.03 -1.09647
11.04 -1.10423
11.05 -1.10955
11.06 -1.11325
11.07 -1.11572
11.08 -1.1175
11.09 -1.11908
11.1 -1.1209
11.11 -1.12328
11.12 -1.12655
11.13 -1.13084
11.14 -1.13616
11.15 -1.14244
11.16 -1.14929
11.17 -1.15625
11.18 -1.16256
11.19 -1.16722
11.2 -1.16893
11.21 -1.16657
11.22 -1.15765
11.23 -1.14132
11.24 -1.11463
11.25 -1.07606
11.26 -1.02377
11.27 -0.954656
11.28 -0.869048
11.29 -0.762807
11.3 -0.637512
11.31 -0.491504
11.32 -0.325012
11.33 -0.140254
11.34 0.0634493
11.35 0.281123
11.36 0.511252
11.37 0.749031
11.38 0.990338
11.39 1.22994
11.4 1.4633
11.41 1.68353
11.42 1.88694
11.43 2.06758
11.44 2.22047
11.45 2.34401
11.46 2.43045
11.47 2.48293
11.48 2.49614
11.49 2.47247
11.5 2.41302
11.51 2.31764
11.52 2.19317
11.53 2.03932
11.54 1.86426
11.55 1.67145
11.56 1.46665
11.57 1.25553
11.58 1.0432
11.59 0.834495
11.6 0.634319
11.61 0.446012
11.62 0.272233
11.63 0.116322
11.64 -0.0226322
11.65 -0.141548
11.66 -0.243291
11.67 -0.327811
11.68 -0.396915
11.69 -0.453572
11.7 -0.49875
11.71 -0.53647
11.72 -0.568345
11.73 -0.597148
11.74 -0.624746
11.75 -0.652858
11.76 -0.682471
11.77 -0.71453
11.78 -0.748861
11.79 -0.785248
11.8 -0.822798
11.81 -0.86034
11.82 -0.896127
11.83 -0.928731
11.84 -0.955859
11.85 -0.975857
11.86 -0.987071
11.87 -0.987008
11.88 -0.975637
11.89 -0.949909
11.9 -0.910753
11.91 -0.856894
11.92 -0.78826
11.93 -0.706221
11.94 -0.609739
11.95 -0.50196
11.96 -0.383054
11.97 -0.255631
11.98 -0.121691
11.99 0.0165927
12 0.156422
12.01 0.295114
12.02 0.430082
12.03 0.558499
12.04 0.677499
12.05 0.785532
12.06 0.878451
12.07 0.956522
12.08 1.01633
12.09 1.05775
12.1 1.08022
12.11 1.08216
12.12 1.06619
12.13 1.03041
12.14 0.978545
12.15 0.911292
12.16 0.830998
12.17 0.740856
12.18 0.642606
12.19 0.540165
12.2 0.435965
12.21 0.333037
12.22 0.233736
12.23 0.140813
12.24 0.0551776
12.25 -0.0205984
12.26 -0.0869493
12.27 -0.143107
12.28 -0.189437
12.29 -0.227425
12.3 -0.257372
12.31 -0.282013
12.32 -0.302631
12.33 -0.321553
12.34 -0.340592
12.35 -0.361744
12.36 -0.386112
12.37 -0.415374
12.38 -0.449512
12.39 -0.488846
12.4 -0.532797
