# xPDFsuite Configuration #
[PDF]
wavelength = 0.1432
dataformat = twotheta
inputfile = 1_1Pd_CeO2_cycle-00326.chi
backgroundfile = background-00000.chi
mode = xray
bgscale = 1.007
composition = CeO2
outputtype = gr
qmaxinst = 28.8974762299
qmin = 0.5
qmax = 27.9
rmax = 50.0
rmin = 0.0
rstep = 0.01
rpoly = 1.8657

[Misc]
inputdir = G:/SankarDec16/1Pd/Chi
savedir = D:/DATA/APS_CeO2/1Pd
backgroundfilefull = G:/SankarDec16/Background/background-00000.chi

#### start data
#S 1
#L r($\AA$)  G($\AA^{-2}$)
0 0
0.01 -0.00490715
0.02 -0.00944352
0.03 -0.0132274
0.04 -0.0159716
0.05 -0.0175165
0.06 -0.0176056
0.07 -0.0164109
0.08 -0.0138511
0.09 -0.0102539
0.1 -0.00584648
0.11 -0.000976066
0.12 0.00397997
0.13 0.0085971
0.14 0.0125768
0.15 0.0155525
0.16 0.0173109
0.17 0.0177683
0.18 0.0167524
0.19 0.0145172
0.2 0.011076
0.21 0.00681166
0.22 0.00200743
0.23 -0.00294664
0.24 -0.00769655
0.25 -0.0117853
0.26 -0.0150016
0.27 -0.0170123
0.28 -0.0176889
0.29 -0.017028
0.3 -0.0149501
0.31 -0.0117786
0.32 -0.00762107
0.33 -0.00289614
0.34 0.00207088
0.35 0.0068665
0.36 0.0111779
0.37 0.0145388
0.38 0.0168354
0.39 0.017785
0.4 0.0173506
0.41 0.0156092
0.42 0.0125784
0.43 0.00863499
0.44 0.00397524
0.45 -0.000966882
0.46 -0.0058407
0.47 -0.0102297
0.48 -0.0138783
0.49 -0.0163341
0.5 -0.017587
0.51 -0.0174191
0.52 -0.0158869
0.53 -0.0131442
0.54 -0.00930487
0.55 -0.00478054
0.56 0.000153653
0.57 0.00507001
0.58 0.0096103
0.59 0.0133757
0.6 0.016181
0.61 0.0176107
0.62 0.0177587
0.63 0.0164835
0.64 0.013932
0.65 0.0103275
0.66 0.00587479
0.67 0.000999387
0.68 -0.00395847
0.69 -0.00859867
0.7 -0.0125736
0.71 -0.015522
0.72 -0.0173383
0.73 -0.0176647
0.74 -0.0166941
0.75 -0.0143675
0.76 -0.0109147
0.77 -0.00661565
0.78 -0.00175447
0.79 0.00325188
0.8 0.00801806
0.81 0.0121926
0.82 0.0154585
0.83 0.0175123
0.84 0.0183338
0.85 0.0176443
0.86 0.0157238
0.87 0.0125998
0.88 0.00857055
0.89 0.00395545
0.9 -0.000901189
0.91 -0.00561914
0.92 -0.00979706
0.93 -0.0131599
0.94 -0.01545
0.95 -0.0164544
0.96 -0.0162484
0.97 -0.0146767
0.98 -0.0120961
0.99 -0.00864531
1 -0.00469004
1.01 -0.000580261
1.02 0.00326941
1.03 0.00655033
1.04 0.00884315
1.05 0.00998509
1.06 0.0097991
1.07 0.00819249
1.08 0.00537237
1.09 0.00134632
1.1 -0.0034123
1.11 -0.00860163
1.12 -0.0137361
1.13 -0.0183896
1.14 -0.0219861
1.15 -0.0242655
1.16 -0.0246747
1.17 -0.0231325
1.18 -0.0194662
1.19 -0.0136151
1.2 -0.00593212
1.21 0.0035694
1.22 0.0142107
1.23 0.0256036
1.24 0.0371027
1.25 0.0481408
1.26 0.0579684
1.27 0.0661973
1.28 0.0720651
1.29 0.0753684
1.3 0.0757664
1.31 0.0729953
1.32 0.0673719
1.33 0.0585688
1.34 0.0473431
1.35 0.0338495
1.36 0.0186929
1.37 0.002458
1.38 -0.014277
1.39 -0.0308675
1.4 -0.0466557
1.41 -0.0611422
1.42 -0.0738293
1.43 -0.0842018
1.44 -0.0922117
1.45 -0.0972023
1.46 -0.0995148
1.47 -0.0988674
1.48 -0.0954271
1.49 -0.0894435
1.5 -0.0808975
1.51 -0.0703797
1.52 -0.0579626
1.53 -0.0441924
1.54 -0.0293978
1.55 -0.0139937
1.56 0.00158411
1.57 0.0168747
1.58 0.0315008
1.59 0.0449856
1.6 0.0569306
1.61 0.0670532
1.62 0.0747729
1.63 0.0801277
1.64 0.0825532
1.65 0.0821651
1.66 0.0788342
1.67 0.0725029
1.68 0.0636079
1.69 0.0520067
1.7 0.0384675
1.71 0.0232573
1.72 0.0070112
1.73 -0.00967897
1.74 -0.0261425
1.75 -0.0418198
1.76 -0.0559785
1.77 -0.0682262
1.78 -0.0781283
1.79 -0.0852967
1.8 -0.0899012
1.81 -0.0915571
1.82 -0.0909234
1.83 -0.0881527
1.84 -0.0838678
1.85 -0.0787046
1.86 -0.0733622
1.87 -0.0685381
1.88 -0.0650342
1.89 -0.0633589
1.9 -0.064014
1.91 -0.0674342
1.92 -0.0734472
1.93 -0.0823885
1.94 -0.0935077
1.95 -0.106499
1.96 -0.120549
1.97 -0.134841
1.98 -0.148333
1.99 -0.160216
2 -0.169271
2.01 -0.174872
2.02 -0.176265
2.03 -0.172722
2.04 -0.164482
2.05 -0.150681
2.06 -0.13234
2.07 -0.109438
2.08 -0.0827643
2.09 -0.0531703
2.1 -0.0213
2.11 0.0117418
2.12 0.045254
2.13 0.0784716
2.14 0.110884
2.15 0.142098
2.16 0.172144
2.17 0.200974
2.18 0.229112
2.19 0.257009
2.2 0.285361
2.21 0.314778
2.22 0.346121
2.23 0.379649
2.24 0.416022
2.25 0.45506
2.26 0.496597
2.27 0.540067
2.28 0.584419
2.29 0.628321
2.3 0.670265
2.31 0.708292
2.32 0.74044
2.33 0.765198
2.34 0.779694
2.35 0.783782
2.36 0.774752
2.37 0.752991
2.38 0.717976
2.39 0.669589
2.4 0.610034
2.41 0.539134
2.42 0.460573
2.43 0.376021
2.44 0.288595
2.45 0.201058
2.46 0.116689
2.47 0.0376343
2.48 -0.0328425
2.49 -0.0934972
2.5 -0.142795
2.51 -0.179471
2.52 -0.204746
2.53 -0.217348
2.54 -0.220349
2.55 -0.214552
2.56 -0.202512
2.57 -0.186702
2.58 -0.169569
2.59 -0.153582
2.6 -0.141236
2.61 -0.134103
2.62 -0.133571
2.63 -0.140763
2.64 -0.155046
2.65 -0.17714
2.66 -0.204912
2.67 -0.237463
2.68 -0.272719
2.69 -0.308727
2.7 -0.343224
2.71 -0.374579
2.72 -0.400594
2.73 -0.420417
2.74 -0.433166
2.75 -0.438306
2.76 -0.436918
2.77 -0.428907
2.78 -0.416607
2.79 -0.401331
2.8 -0.385298
2.81 -0.370432
2.82 -0.359131
2.83 -0.352579
2.84 -0.352865
2.85 -0.360282
2.86 -0.375265
2.87 -0.397761
2.88 -0.426178
2.89 -0.459849
2.9 -0.496109
2.91 -0.533023
2.92 -0.568029
2.93 -0.599086
2.94 -0.623339
2.95 -0.640041
2.96 -0.646885
2.97 -0.64413
2.98 -0.631656
2.99 -0.609958
3 -0.581284
3.01 -0.54676
3.02 -0.509677
3.03 -0.472467
3.04 -0.438137
3.05 -0.408985
3.06 -0.388246
3.07 -0.376535
3.08 -0.376313
3.09 -0.387017
3.1 -0.408549
3.11 -0.440095
3.12 -0.47899
3.13 -0.523733
3.14 -0.570684
3.15 -0.617098
3.16 -0.659771
3.17 -0.696368
3.18 -0.723612
3.19 -0.74119
3.2 -0.746897
3.21 -0.741783
3.22 -0.726454
3.23 -0.702401
3.24 -0.672704
3.25 -0.639825
3.26 -0.607522
3.27 -0.579195
3.28 -0.558236
3.29 -0.546881
3.3 -0.548672
3.31 -0.563124
3.32 -0.592299
3.33 -0.634196
3.34 -0.687474
3.35 -0.749677
3.36 -0.816851
3.37 -0.885356
3.38 -0.950863
3.39 -1.00906
3.4 -1.05607
3.41 -1.08959
3.42 -1.10558
3.43 -1.10535
3.44 -1.0869
3.45 -1.05327
3.46 -1.00665
3.47 -0.950553
3.48 -0.889971
3.49 -0.829775
3.5 -0.774888
3.51 -0.730394
3.52 -0.700312
3.53 -0.686574
3.54 -0.692603
3.55 -0.715476
3.56 -0.755104
3.57 -0.805747
3.58 -0.862017
3.59 -0.915743
3.6 -0.959273
3.61 -0.979842
3.62 -0.970889
3.63 -0.920247
3.64 -0.819457
3.65 -0.664197
3.66 -0.442276
3.67 -0.159846
3.68 0.191153
3.69 0.601644
3.7 1.06703
3.71 1.57953
3.72 2.12368
3.73 2.68881
3.74 3.25626
3.75 3.80976
3.76 4.3312
3.77 4.80689
3.78 5.21397
3.79 5.54869
3.8 5.78974
3.81 5.93683
3.82 5.98375
3.83 5.92501
3.84 5.7738
3.85 5.52125
3.86 5.19092
3.87 4.78722
3.88 4.32676
3.89 3.82607
3.9 3.29877
3.91 2.76344
3.92 2.2351
3.93 1.72763
3.94 1.25284
3.95 0.823131
3.96 0.440435
3.97 0.118041
3.98 -0.150732
3.99 -0.361588
4 -0.518883
4.01 -0.629461
4.02 -0.695055
4.03 -0.728434
4.04 -0.733455
4.05 -0.720613
4.06 -0.696539
4.07 -0.668156
4.08 -0.640974
4.09 -0.62019
4.1 -0.607867
4.11 -0.606355
4.12 -0.615789
4.13 -0.634926
4.14 -0.6629
4.15 -0.696235
4.16 -0.732612
4.17 -0.768599
4.18 -0.801378
4.19 -0.827791
4.2 -0.846464
4.21 -0.854149
4.22 -0.851352
4.23 -0.836713
4.24 -0.810656
4.25 -0.774331
4.26 -0.727766
4.27 -0.673574
4.28 -0.61229
4.29 -0.546047
4.3 -0.476057
4.31 -0.403494
4.32 -0.329502
4.33 -0.254658
4.34 -0.179553
4.35 -0.104427
4.36 -0.0294287
4.37 0.0453764
4.38 0.119844
4.39 0.193814
4.4 0.266805
4.41 0.338248
4.42 0.407285
4.43 0.472547
4.44 0.533207
4.45 0.586753
4.46 0.632595
4.47 0.668482
4.48 0.693028
4.49 0.705642
4.5 0.70387
4.51 0.689122
4.52 0.659615
4.53 0.617034
4.54 0.562033
4.55 0.495608
4.56 0.42058
4.57 0.33792
4.58 0.25103
4.59 0.161902
4.6 0.0731581
4.61 -0.0131933
4.62 -0.0946344
4.63 -0.170305
4.64 -0.238206
4.65 -0.298237
4.66 -0.350029
4.67 -0.393409
4.68 -0.429773
4.69 -0.458949
4.7 -0.483057
4.71 -0.502853
4.72 -0.519778
4.73 -0.53505
4.74 -0.549646
4.75 -0.564418
4.76 -0.579956
4.77 -0.596473
4.78 -0.613978
4.79 -0.632244
4.8 -0.650799
4.81 -0.669048
4.82 -0.686413
4.83 -0.702219
4.84 -0.71593
4.85 -0.727293
4.86 -0.735793
4.87 -0.741806
4.88 -0.745216
4.89 -0.746646
4.9 -0.746578
4.91 -0.745673
4.92 -0.744653
4.93 -0.744286
4.94 -0.745091
4.95 -0.747644
4.96 -0.752254
4.97 -0.758927
4.98 -0.767815
4.99 -0.778362
5 -0.790325
5.01 -0.803008
5.02 -0.815837
5.03 -0.828123
5.04 -0.839411
5.05 -0.849011
5.06 -0.856861
5.07 -0.862692
5.08 -0.866609
5.09 -0.868918
5.1 -0.869845
5.11 -0.86999
5.12 -0.869715
5.13 -0.869434
5.14 -0.869344
5.15 -0.869419
5.16 -0.869348
5.17 -0.868338
5.18 -0.865476
5.19 -0.859232
5.2 -0.847823
5.21 -0.829752
5.22 -0.801864
5.23 -0.763516
5.24 -0.711328
5.25 -0.644758
5.26 -0.562511
5.27 -0.463229
5.28 -0.348853
5.29 -0.217949
5.3 -0.074617
5.31 0.0796454
5.32 0.240968
5.33 0.40531
5.34 0.567814
5.35 0.724098
5.36 0.868111
5.37 0.995789
5.38 1.10267
5.39 1.18342
5.4 1.238
5.41 1.25962
5.42 1.25184
5.43 1.21228
5.44 1.14288
5.45 1.04735
5.46 0.926402
5.47 0.787404
5.48 0.633025
5.49 0.469901
5.5 0.302891
5.51 0.137587
5.52 -0.0218459
5.53 -0.169623
5.54 -0.303912
5.55 -0.421052
5.56 -0.519581
5.57 -0.599854
5.58 -0.659959
5.59 -0.703615
5.6 -0.730505
5.61 -0.744325
5.62 -0.747302
5.63 -0.741887
5.64 -0.731301
5.65 -0.717311
5.66 -0.702273
5.67 -0.687426
5.68 -0.673622
5.69 -0.660985
5.7 -0.649248
5.71 -0.637491
5.72 -0.624452
5.73 -0.608756
5.74 -0.588985
5.75 -0.563412
5.76 -0.531655
5.77 -0.491876
5.78 -0.444977
5.79 -0.390704
5.8 -0.330193
5.81 -0.265124
5.82 -0.197209
5.83 -0.129077
5.84 -0.063439
5.85 -0.00292063
5.86 0.0499382
5.87 0.0920858
5.88 0.122852
5.89 0.138664
5.9 0.140729
5.91 0.127711
5.92 0.10039
5.93 0.0605542
5.94 0.00863638
5.95 -0.0516793
5.96 -0.11888
5.97 -0.189651
5.98 -0.261547
5.99 -0.331838
6 -0.398715
6.01 -0.459615
6.02 -0.514125
6.03 -0.56106
6.04 -0.600429
6.05 -0.633031
6.06 -0.659069
6.07 -0.680631
6.08 -0.69871
6.09 -0.715253
6.1 -0.731704
6.11 -0.749603
6.12 -0.769783
6.13 -0.793423
6.14 -0.82031
6.15 -0.850527
6.16 -0.883348
6.17 -0.917731
6.18 -0.952407
6.19 -0.985963
6.2 -1.0167
6.21 -1.04339
6.22 -1.0649
6.23 -1.08002
6.24 -1.08905
6.25 -1.09101
6.26 -1.08737
6.27 -1.07856
6.28 -1.066
6.29 -1.05122
6.3 -1.03567
6.31 -1.02081
6.32 -1.00785
6.33 -0.997318
6.34 -0.989243
6.35 -0.982925
6.36 -0.976764
6.37 -0.968044
6.38 -0.953868
6.39 -0.929913
6.4 -0.891424
6.41 -0.834773
6.42 -0.752051
6.43 -0.64226
6.44 -0.497467
6.45 -0.316839
6.46 -0.097807
6.47 0.16266
6.48 0.459569
6.49 0.796322
6.5 1.16342
6.51 1.55771
6.52 1.97082
6.53 2.3938
6.54 2.81664
6.55 3.22933
6.56 3.61918
6.57 3.97671
6.58 4.29194
6.59 4.55228
6.6 4.75644
6.61 4.88809
6.62 4.95285
6.63 4.94321
6.64 4.86042
6.65 4.71066
6.66 4.49079
6.67 4.21643
6.68 3.88899
6.69 3.5224
6.7 3.12593
6.71 2.71014
6.72 2.28697
6.73 1.86715
6.74 1.46003
6.75 1.07512
6.76 0.720138
6.77 0.398723
6.78 0.119853
6.79 -0.119877
6.8 -0.314564
6.81 -0.468415
6.82 -0.582954
6.83 -0.659684
6.84 -0.706362
6.85 -0.723313
6.86 -0.719531
6.87 -0.698211
6.88 -0.664811
6.89 -0.62401
6.9 -0.579293
6.91 -0.534213
6.92 -0.491277
6.93 -0.452135
6.94 -0.417813
6.95 -0.389091
6.96 -0.36535
6.97 -0.346987
6.98 -0.33268
6.99 -0.322092
7 -0.31447
7.01 -0.309175
7.02 -0.306138
7.03 -0.304985
7.04 -0.30615
7.05 -0.309889
7.06 -0.316784
7.07 -0.327796
7.08 -0.343148
7.09 -0.364322
7.1 -0.391061
7.11 -0.424107
7.12 -0.463397
7.13 -0.508298
7.14 -0.558772
7.15 -0.613127
7.16 -0.670535
7.17 -0.729197
7.18 -0.787585
7.19 -0.843786
7.2 -0.89655
7.21 -0.94363
7.22 -0.984555
7.23 -1.01795
7.24 -1.04333
7.25 -1.06105
7.26 -1.07049
7.27 -1.07344
7.28 -1.07012
7.29 -1.06235
7.3 -1.05145
7.31 -1.0389
7.32 -1.02615
7.33 -1.01457
7.34 -1.0049
7.35 -0.997838
7.36 -0.993432
7.37 -0.99118
7.38 -0.99034
7.39 -0.989434
7.4 -0.986628
7.41 -0.979903
7.42 -0.967105
7.43 -0.945287
7.44 -0.913377
7.45 -0.867413
7.46 -0.807582
7.47 -0.731612
7.48 -0.639003
7.49 -0.530723
7.5 -0.405591
7.51 -0.26725
7.52 -0.116181
7.53 0.0438405
7.54 0.209874
7.55 0.378197
7.56 0.54504
7.57 0.705649
7.58 0.856891
7.59 0.994374
7.6 1.11454
7.61 1.21571
7.62 1.29273
7.63 1.34725
7.64 1.37533
7.65 1.37862
7.66 1.35732
7.67 1.3113
7.68 1.2448
7.69 1.15705
7.7 1.05361
7.71 0.936221
7.72 0.80864
7.73 0.674563
7.74 0.537105
7.75 0.399922
7.76 0.266347
7.77 0.139167
7.78 0.0208615
7.79 -0.0855769
7.8 -0.179785
7.81 -0.258204
7.82 -0.321985
7.83 -0.369514
7.84 -0.400903
7.85 -0.417432
7.86 -0.418069
7.87 -0.40607
7.88 -0.381349
7.89 -0.346684
7.9 -0.303877
7.91 -0.254917
7.92 -0.20258
7.93 -0.148999
7.94 -0.0967248
7.95 -0.0480969
7.96 -0.00542581
7.97 0.0298749
7.98 0.0549467
7.99 0.0699271
8 0.0725653
8.01 0.0632337
8.02 0.0417952
8.03 0.0079915
8.04 -0.0360884
8.05 -0.090753
8.06 -0.153045
8.07 -0.221778
8.08 -0.294708
8.09 -0.36969
8.1 -0.444606
8.11 -0.517595
8.12 -0.586601
8.13 -0.650397
8.14 -0.707936
8.15 -0.758096
8.16 -0.801454
8.17 -0.837094
8.18 -0.866591
8.19 -0.89033
8.2 -0.909573
8.21 -0.925715
8.22 -0.939783
8.23 -0.95314
8.24 -0.966611
8.25 -0.980733
8.26 -0.995575
8.27 -1.01066
8.28 -1.02503
8.29 -1.03676
8.3 -1.04402
8.31 -1.04391
8.32 -1.03323
8.33 -1.00971
8.34 -0.967896
8.35 -0.907288
8.36 -0.822564
8.37 -0.713028
8.38 -0.577022
8.39 -0.412132
8.4 -0.221701
8.41 -0.00300188
8.42 0.23788
8.43 0.49926
8.44 0.776084
8.45 1.06255
8.46 1.35287
8.47 1.64016
8.48 1.91679
8.49 2.17617
8.5 2.41183
8.51 2.6153
8.52 2.78501
8.53 2.91026
8.54 2.99332
8.55 3.02885
8.56 3.01626
8.57 2.95894
8.58 2.85313
8.59 2.70849
8.6 2.52457
8.61 2.30966
8.62 2.06922
8.63 1.80907
8.64 1.53754
8.65 1.26045
8.66 0.985108
8.67 0.717587
8.68 0.463762
8.69 0.22701
8.7 0.0138296
8.71 -0.176453
8.72 -0.339255
8.73 -0.475882
8.74 -0.586552
8.75 -0.671098
8.76 -0.734191
8.77 -0.775261
8.78 -0.800202
8.79 -0.811001
8.8 -0.811451
8.81 -0.805204
8.82 -0.794967
8.83 -0.783966
8.84 -0.774568
8.85 -0.768648
8.86 -0.767505
8.87 -0.77238
8.88 -0.782922
8.89 -0.799906
8.9 -0.821964
8.91 -0.848642
8.92 -0.878724
8.93 -0.910887
8.94 -0.943937
8.95 -0.976565
8.96 -1.00755
8.97 -1.036
8.98 -1.06122
8.99 -1.08247
9 -1.09996
9.01 -1.11311
9.02 -1.1227
9.03 -1.12889
9.04 -1.13229
9.05 -1.13363
9.06 -1.13335
9.07 -1.13223
9.08 -1.13063
9.09 -1.1289
9.1 -1.12714
9.11 -1.12523
9.12 -1.12286
9.13 -1.11934
9.14 -1.11404
9.15 -1.10597
9.16 -1.09404
9.17 -1.07754
9.18 -1.05473
9.19 -1.02561
9.2 -0.988675
9.21 -0.943996
9.22 -0.891418
9.23 -0.830695
9.24 -0.763261
9.25 -0.689124
9.26 -0.610491
9.27 -0.528652
9.28 -0.445732
9.29 -0.363724
9.3 -0.28531
9.31 -0.21213
9.32 -0.147037
9.33 -0.0914874
9.34 -0.0470117
9.35 -0.0156614
9.36 0.00332138
9.37 0.00766234
9.38 -0.000479137
9.39 -0.0212308
9.4 -0.0531159
9.41 -0.0938782
9.42 -0.142334
9.43 -0.195203
9.44 -0.250513
9.45 -0.305524
9.46 -0.358056
9.47 -0.405599
9.48 -0.447098
9.49 -0.48008
9.5 -0.504781
9.51 -0.52028
9.52 -0.526827
9.53 -0.525599
9.54 -0.516833
9.55 -0.502988
9.56 -0.485228
9.57 -0.465808
9.58 -0.446519
9.59 -0.429434
9.6 -0.415815
9.61 -0.407746
9.62 -0.405533
9.63 -0.410185
9.64 -0.421877
9.65 -0.439969
9.66 -0.464657
9.67 -0.494173
9.68 -0.527965
9.69 -0.564428
9.7 -0.60236
9.71 -0.640471
9.72 -0.677739
9.73 -0.713032
9.74 -0.745958
9.75 -0.775978
9.76 -0.802959
9.77 -0.827156
9.78 -0.84842
9.79 -0.867391
9.8 -0.883962
9.81 -0.89829
9.82 -0.9101
9.83 -0.918467
9.84 -0.922735
9.85 -0.920393
9.86 -0.91008
9.87 -0.888632
9.88 -0.852728
9.89 -0.800241
9.9 -0.724859
9.91 -0.626418
9.92 -0.498714
9.93 -0.340818
9.94 -0.15078
9.95 0.0747463
9.96 0.331885
9.97 0.624421
9.98 0.945397
9.99 1.29315
10 1.66203
10.01 2.045
10.02 2.43558
10.03 2.82494
10.04 3.20401
10.05 3.56418
10.06 3.89727
10.07 4.19226
10.08 4.44658
10.09 4.64656
10.1 4.79403
10.11 4.88194
10.12 4.90859
10.13 4.87799
10.14 4.78435
10.15 4.63978
10.16 4.44311
10.17 4.20443
10.18 3.93055
10.19 3.62822
10.2 3.30829
10.21 2.9774
10.22 2.64515
10.23 2.31875
10.24 2.00554
10.25 1.70977
10.26 1.43898
10.27 1.1927
10.28 0.975864
10.29 0.787095
10.3 0.625812
10.31 0.491945
10.32 0.38015
10.33 0.290446
10.34 0.216484
10.35 0.155743
10.36 0.104134
10.37 0.0578874
10.38 0.0141355
10.39 -0.0299959
10.4 -0.0766652
10.41 -0.127218
10.42 -0.182416
10.43 -0.24283
10.44 -0.307618
10.45 -0.376678
10.46 -0.448413
10.47 -0.521776
10.48 -0.595249
10.49 -0.667559
10.5 -0.737016
10.51 -0.802881
10.52 -0.863689
10.53 -0.918956
10.54 -0.968178
10.55 -1.01058
10.56 -1.04681
10.57 -1.07591
10.58 -1.0989
10.59 -1.11558
10.6 -1.12623
10.61 -1.13149
10.62 -1.1309
10.63 -1.12549
10.64 -1.11484
10.65 -1.09948
10.66 -1.07957
10.67 -1.05503
10.68 -1.02659
10.69 -0.993982
10.7 -0.95816
10.71 -0.919425
10.72 -0.87851
10.73 -0.83628
10.74 -0.793602
10.75 -0.751504
10.76 -0.711151
10.77 -0.673575
10.78 -0.639758
10.79 -0.611062
10.8 -0.587707
10.81 -0.571335
10.82 -0.561596
10.83 -0.559225
10.84 -0.564278
10.85 -0.576096
10.86 -0.595155
10.87 -0.619846
10.88 -0.650045
10.89 -0.68441
10.9 -0.721971
10.91 -0.761723
10.92 -0.802424
10.93 -0.843056
10.94 -0.882649
10.95 -0.920303
10.96 -0.955234
10.97 -0.987112
10.98 -1.01505
10.99 -1.03936
11 -1.05954
11.01 -1.07593
11.02 -1.08872
11.03 -1.09805
11.04 -1.10468
11.05 -1.10873
11.06 -1.11107
11.07 -1.11214
11.08 -1.11256
11.09 -1.11287
11.1 -1.11365
11.11 -1.11524
11.12 -1.1181
11.13 -1.12237
11.14 -1.12811
11.15 -1.13529
11.16 -1.14345
11.17 -1.15213
11.18 -1.16045
11.19 -1.16735
11.2 -1.17139
11.21 -1.17135
11.22 -1.16461
11.23 -1.1502
11.24 -1.12506
11.25 -1.08761
11.26 -1.03596
11.27 -0.966931
11.28 -0.880938
11.29 -0.7738
11.3 -0.647223
11.31 -0.499607
11.32 -0.331293
11.33 -0.144616
11.34 0.0609831
11.35 0.280426
11.36 0.512082
11.37 0.751074
11.38 0.993227
11.39 1.23325
11.4 1.46664
11.41 1.68648
11.42 1.88916
11.43 2.06879
11.44 2.22048
11.45 2.3427
11.46 2.42783
11.47 2.47907
11.48 2.49123
11.49 2.46676
11.5 2.40683
11.51 2.31136
11.52 2.18719
11.53 2.03408
11.54 1.86015
11.55 1.66888
11.56 1.46598
11.57 1.25707
11.58 1.04723
11.59 0.84121
11.6 0.64386
11.61 0.45844
11.62 0.287538
11.63 0.134408
11.64 -0.00192696
11.65 -0.118503
11.66 -0.218237
11.67 -0.301186
11.68 -0.369243
11.69 -0.425416
11.7 -0.470828
11.71 -0.509455
11.72 -0.54303
11.73 -0.574293
11.74 -0.605097
11.75 -0.637166
11.76 -0.671333
11.77 -0.708518
11.78 -0.748331
11.79 -0.790415
11.8 -0.833662
11.81 -0.87671
11.82 -0.91753
11.83 -0.954552
11.84 -0.985205
11.85 -1.00771
11.86 -1.02028
11.87 -1.02027
11.88 -1.00775
11.89 -0.979545
11.9 -0.936833
11.91 -0.878428
11.92 -0.804495
11.93 -0.716692
11.94 -0.614251
11.95 -0.500645
11.96 -0.376377
11.97 -0.244329
11.98 -0.106732
11.99 0.033956
12 0.174961
12.01 0.313356
12.02 0.446768
12.03 0.572404
12.04 0.687609
12.05 0.791143
12.06 0.879119
12.07 0.952201
12.08 1.00733
12.09 1.04474
12.1 1.06414
12.11 1.06431
12.12 1.04787
12.13 1.01324
12.14 0.963922
12.15 0.900606
12.16 0.825414
12.17 0.741194
12.18 0.649394
12.19 0.553466
12.2 0.455417
12.21 0.35786
12.22 0.262801
12.23 0.172548
12.24 0.0879758
12.25 0.0112537
12.26 -0.0578311
12.27 -0.118529
12.28 -0.170979
12.29 -0.21627
12.3 -0.254413
12.31 -0.287567
12.32 -0.316544
12.33 -0.34315
12.34 -0.368762
12.35 -0.39483
12.36 -0.422346
12.37 -0.452469
12.38 -0.485362
12.39 -0.521251
12.4 -0.559737
