# xPDFsuite Configuration #
[PDF]
wavelength = 0.1432
dataformat = twotheta
inputfile = 1_1Pd_CeO2_cycle-00127.chi
backgroundfile = background-00000.chi
mode = xray
bgscale = 1.007
composition = CeO2
outputtype = gr
qmaxinst = 28.8974762299
qmin = 0.5
qmax = 27.9
rmax = 50.0
rmin = 0.0
rstep = 0.01
rpoly = 1.8657

[Misc]
inputdir = G:/SankarDec16/1Pd/Chi
savedir = D:/DATA/APS_CeO2/1Pd
backgroundfilefull = G:/SankarDec16/Background/background-00000.chi

#### start data
#S 1
#L r($\AA$)  G($\AA^{-2}$)
0 0
0.01 -0.00580932
0.02 -0.0111798
0.03 -0.0156598
0.04 -0.0189092
0.05 -0.0207391
0.06 -0.0208459
0.07 -0.0194329
0.08 -0.0164039
0.09 -0.0121464
0.1 -0.00692935
0.11 -0.00116346
0.12 0.00470453
0.13 0.0101722
0.14 0.0148861
0.15 0.0184119
0.16 0.0204972
0.17 0.0210423
0.18 0.0198428
0.19 0.0171991
0.2 0.0131266
0.21 0.0080781
0.22 0.00238878
0.23 -0.00347974
0.24 -0.0091081
0.25 -0.0139553
0.26 -0.0177703
0.27 -0.0201584
0.28 -0.0209669
0.29 -0.0201909
0.3 -0.0177353
0.31 -0.013983
0.32 -0.00906033
0.33 -0.00346307
0.34 0.00242372
0.35 0.00811025
0.36 0.0132255
0.37 0.0172166
0.38 0.0199479
0.39 0.0210836
0.4 0.0205789
0.41 0.0185239
0.42 0.0149382
0.43 0.0102681
0.44 0.00474504
0.45 -0.00111649
0.46 -0.00690094
0.47 -0.0121143
0.48 -0.0164525
0.49 -0.0193788
0.5 -0.0208793
0.51 -0.0206947
0.52 -0.0188904
0.53 -0.0156475
0.54 -0.0110999
0.55 -0.00573519
0.56 0.000121182
0.57 0.00596142
0.58 0.0113603
0.59 0.0158438
0.6 0.0191908
0.61 0.0209068
0.62 0.0211016
0.63 0.0196051
0.64 0.0165902
0.65 0.0123205
0.66 0.00703757
0.67 0.00124661
0.68 -0.00464949
0.69 -0.0101746
0.7 -0.0149154
0.71 -0.0184415
0.72 -0.0206258
0.73 -0.0210415
0.74 -0.0199159
0.75 -0.017177
0.76 -0.0130961
0.77 -0.0080052
0.78 -0.00224048
0.79 0.00370196
0.8 0.00936451
0.81 0.0143282
0.82 0.0182152
0.83 0.0206637
0.84 0.0216486
0.85 0.0208376
0.86 0.0185636
0.87 0.0148597
0.88 0.010082
0.89 0.00461256
0.9 -0.00113491
0.91 -0.00670542
0.92 -0.0116148
0.93 -0.0155324
0.94 -0.0181463
0.95 -0.0191977
0.96 -0.0187765
0.97 -0.0166908
0.98 -0.0133724
0.99 -0.00898676
1 -0.00397783
1.01 0.00122734
1.02 0.00612057
1.03 0.0103184
1.04 0.0132974
1.05 0.0148441
1.06 0.0147229
1.07 0.0127931
1.08 0.00929131
1.09 0.00417909
1.1 -0.0019718
1.11 -0.0088319
1.12 -0.0158244
1.13 -0.0224339
1.14 -0.0279836
1.15 -0.0321209
1.16 -0.0341782
1.17 -0.0340052
1.18 -0.0313538
1.19 -0.0260905
1.2 -0.0185801
1.21 -0.00874735
1.22 0.00264694
1.23 0.0152324
1.24 0.0283062
1.25 0.0412378
1.26 0.0532403
1.27 0.0638262
1.28 0.072185
1.29 0.0780315
1.3 0.0809661
1.31 0.0806601
1.32 0.0773908
1.33 0.0707575
1.34 0.061504
1.35 0.0497288
1.36 0.0360069
1.37 0.0209038
1.38 0.00492872
1.39 -0.0112556
1.4 -0.0270727
1.41 -0.0420119
1.42 -0.0556083
1.43 -0.0673796
1.44 -0.0772316
1.45 -0.0845716
1.46 -0.0896355
1.47 -0.0921323
1.48 -0.0921397
1.49 -0.0898092
1.5 -0.0850127
1.51 -0.0782039
1.52 -0.069295
1.53 -0.058694
1.54 -0.0465787
1.55 -0.0331915
1.56 -0.018927
1.57 -0.00401732
1.58 0.0110765
1.59 0.0259756
1.6 0.0402194
1.61 0.0534182
1.62 0.0649319
1.63 0.0745498
1.64 0.0815583
1.65 0.0858112
1.66 0.0869567
1.67 0.084669
1.68 0.079231
1.69 0.0701772
1.7 0.0582634
1.71 0.0435698
1.72 0.0267223
1.73 0.00837955
1.74 -0.0108015
1.75 -0.0299864
1.76 -0.0483422
1.77 -0.0651694
1.78 -0.0797966
1.79 -0.0915416
1.8 -0.100355
1.81 -0.105518
1.82 -0.1076
1.83 -0.106542
1.84 -0.102912
1.85 -0.0973816
1.86 -0.0906124
1.87 -0.0835594
1.88 -0.0771118
1.89 -0.0720813
1.9 -0.0692035
1.91 -0.0692054
1.92 -0.0721362
1.93 -0.0786572
1.94 -0.0881045
1.95 -0.10037
1.96 -0.114677
1.97 -0.130154
1.98 -0.145756
1.99 -0.160403
2 -0.172733
2.01 -0.181802
2.02 -0.186589
2.03 -0.186038
2.04 -0.180181
2.05 -0.167776
2.06 -0.149812
2.07 -0.126063
2.08 -0.0973259
2.09 -0.0645582
2.1 -0.028451
2.11 0.00954048
2.12 0.0485035
2.13 0.0872779
2.14 0.125013
2.15 0.160902
2.16 0.194736
2.17 0.225981
2.18 0.255146
2.19 0.282418
2.2 0.308501
2.21 0.334136
2.22 0.360217
2.23 0.387439
2.24 0.416685
2.25 0.44826
2.26 0.482398
2.27 0.519014
2.28 0.557371
2.29 0.596695
2.3 0.635549
2.31 0.672295
2.32 0.705007
2.33 0.732062
2.34 0.750605
2.35 0.760023
2.36 0.757417
2.37 0.742654
2.38 0.714804
2.39 0.673249
2.4 0.619838
2.41 0.553837
2.42 0.478812
2.43 0.396104
2.44 0.308774
2.45 0.219683
2.46 0.132092
2.47 0.0486012
2.48 -0.0273263
2.49 -0.0939312
2.5 -0.149266
2.51 -0.191562
2.52 -0.221693
2.53 -0.237822
2.54 -0.242923
2.55 -0.237475
2.56 -0.224003
2.57 -0.2051
2.58 -0.183229
2.59 -0.161341
2.6 -0.142174
2.61 -0.127844
2.62 -0.120189
2.63 -0.120875
2.64 -0.129622
2.65 -0.147771
2.66 -0.173262
2.67 -0.205542
2.68 -0.242556
2.69 -0.282203
2.7 -0.322199
2.71 -0.360371
2.72 -0.394251
2.73 -0.422384
2.74 -0.443391
2.75 -0.456132
2.76 -0.461293
2.77 -0.458083
2.78 -0.448742
2.79 -0.434179
2.8 -0.416565
2.81 -0.397965
2.82 -0.38075
2.83 -0.366691
2.84 -0.358114
2.85 -0.355969
2.86 -0.361211
2.87 -0.374428
2.88 -0.394485
2.89 -0.421453
2.9 -0.452836
2.91 -0.487162
2.92 -0.521984
2.93 -0.55517
2.94 -0.583976
2.95 -0.607083
2.96 -0.622024
2.97 -0.628407
2.98 -0.625617
2.99 -0.61353
3 -0.593888
3.01 -0.567113
3.02 -0.536238
3.03 -0.503209
3.04 -0.470845
3.05 -0.441463
3.06 -0.41811
3.07 -0.401893
3.08 -0.395339
3.09 -0.398465
3.1 -0.411595
3.11 -0.434453
3.12 -0.464871
3.13 -0.501951
3.14 -0.542367
3.15 -0.583821
3.16 -0.623337
3.17 -0.658622
3.18 -0.686619
3.19 -0.706642
3.2 -0.716492
3.21 -0.716756
3.22 -0.707719
3.23 -0.690456
3.24 -0.667621
3.25 -0.641221
3.26 -0.614714
3.27 -0.591143
3.28 -0.573691
3.29 -0.564532
3.3 -0.567023
3.31 -0.580926
3.32 -0.608282
3.33 -0.647411
3.34 -0.69719
3.35 -0.755444
3.36 -0.818519
3.37 -0.883056
3.38 -0.944936
3.39 -1.00005
3.4 -1.04465
3.41 -1.07643
3.42 -1.09143
3.43 -1.09079
3.44 -1.07244
3.45 -1.03925
3.46 -0.993214
3.47 -0.937685
3.48 -0.877503
3.49 -0.817374
3.5 -0.762192
3.51 -0.716987
3.52 -0.685822
3.53 -0.670729
3.54 -0.675255
3.55 -0.696658
3.56 -0.735063
3.57 -0.784914
3.58 -0.841009
3.59 -0.895373
3.6 -0.940368
3.61 -0.963425
3.62 -0.957814
3.63 -0.911358
3.64 -0.815407
3.65 -0.665409
3.66 -0.448924
3.67 -0.171803
3.68 0.174348
3.69 0.580707
3.7 1.04293
3.71 1.55349
3.72 2.09693
3.73 2.6628
3.74 3.23219
3.75 3.78883
3.76 4.3143
3.77 4.79463
3.78 5.20662
3.79 5.54614
3.8 5.79146
3.81 5.94197
3.82 5.99116
3.83 5.9332
3.84 5.78133
3.85 5.52637
3.86 5.1922
3.87 4.78327
3.88 4.31651
3.89 3.80884
3.9 3.27428
3.91 2.73188
3.92 2.19717
3.93 1.68442
3.94 1.20583
3.95 0.774223
3.96 0.391508
3.97 0.071401
3.98 -0.193146
3.99 -0.397821
4 -0.547321
4.01 -0.648911
4.02 -0.704708
4.03 -0.728064
4.04 -0.723361
4.05 -0.701595
4.06 -0.66985
4.07 -0.635536
4.08 -0.604242
4.09 -0.581665
4.1 -0.569578
4.11 -0.570424
4.12 -0.584061
4.13 -0.608864
4.14 -0.643669
4.15 -0.684401
4.16 -0.728292
4.17 -0.77139
4.18 -0.810437
4.19 -0.841806
4.2 -0.86399
4.21 -0.873282
4.22 -0.870399
4.23 -0.853889
4.24 -0.824411
4.25 -0.783452
4.26 -0.731324
4.27 -0.671173
4.28 -0.603966
4.29 -0.532308
4.3 -0.457818
4.31 -0.382111
4.32 -0.306431
4.33 -0.231785
4.34 -0.158538
4.35 -0.0869956
4.36 -0.0170581
4.37 0.0515543
4.38 0.119004
4.39 0.185657
4.4 0.251484
4.41 0.316386
4.42 0.379918
4.43 0.44116
4.44 0.499381
4.45 0.552525
4.46 0.599759
4.47 0.638918
4.48 0.668372
4.49 0.687181
4.5 0.692613
4.51 0.68553
4.52 0.663721
4.53 0.628386
4.54 0.579764
4.55 0.518399
4.56 0.446989
4.57 0.366051
4.58 0.279187
4.59 0.188282
4.6 0.0961674
4.61 0.00516465
4.62 -0.0819704
4.63 -0.163862
4.64 -0.238133
4.65 -0.304224
4.66 -0.361384
4.67 -0.409022
4.68 -0.448409
4.69 -0.478966
4.7 -0.502975
4.71 -0.521101
4.72 -0.534972
4.73 -0.546085
4.74 -0.555639
4.75 -0.56494
4.76 -0.574931
4.77 -0.586224
4.78 -0.599171
4.79 -0.61391
4.8 -0.630067
4.81 -0.647397
4.82 -0.665156
4.83 -0.68273
4.84 -0.699392
4.85 -0.714622
4.86 -0.727676
4.87 -0.73852
4.88 -0.746701
4.89 -0.752486
4.9 -0.756058
4.91 -0.757752
4.92 -0.758231
4.93 -0.757964
4.94 -0.757658
4.95 -0.757868
4.96 -0.759106
4.97 -0.761653
4.98 -0.765908
4.99 -0.771695
5 -0.779109
5.01 -0.787775
5.02 -0.797393
5.03 -0.807567
5.04 -0.817861
5.05 -0.827853
5.06 -0.83726
5.07 -0.845806
5.08 -0.853369
5.09 -0.859975
5.1 -0.865583
5.11 -0.87043
5.12 -0.874538
5.13 -0.87803
5.14 -0.880847
5.15 -0.882701
5.16 -0.883291
5.17 -0.881596
5.18 -0.876945
5.19 -0.86785
5.2 -0.852778
5.21 -0.830518
5.22 -0.798211
5.23 -0.755556
5.24 -0.699524
5.25 -0.62984
5.26 -0.545447
5.27 -0.445227
5.28 -0.331078
5.29 -0.201766
5.3 -0.0611172
5.31 0.0894403
5.32 0.246312
5.33 0.405759
5.34 0.563244
5.35 0.714716
5.36 0.854493
5.37 0.978759
5.38 1.08328
5.39 1.16294
5.4 1.21763
5.41 1.24075
5.42 1.23555
5.43 1.19954
5.44 1.13439
5.45 1.04347
5.46 0.927165
5.47 0.79251
5.48 0.641802
5.49 0.481444
5.5 0.316085
5.51 0.151117
5.52 -0.00919104
5.53 -0.159193
5.54 -0.296721
5.55 -0.417969
5.56 -0.521137
5.57 -0.606233
5.58 -0.670939
5.59 -0.718652
5.6 -0.748621
5.61 -0.76432
5.62 -0.767751
5.63 -0.761155
5.64 -0.747906
5.65 -0.729612
5.66 -0.709044
5.67 -0.687611
5.68 -0.666571
5.69 -0.646459
5.7 -0.627488
5.71 -0.609132
5.72 -0.590655
5.73 -0.57098
5.74 -0.548981
5.75 -0.523246
5.76 -0.49325
5.77 -0.457449
5.78 -0.416293
5.79 -0.369429
5.8 -0.317587
5.81 -0.261994
5.82 -0.203918
5.83 -0.145465
5.84 -0.0888118
5.85 -0.0361598
5.86 0.0103399
5.87 0.0480637
5.88 0.0763324
5.89 0.0920154
5.9 0.0959832
5.91 0.0869501
5.92 0.0654196
5.93 0.0327998
5.94 -0.0107396
5.95 -0.062075
5.96 -0.120081
5.97 -0.181918
5.98 -0.245526
5.99 -0.308605
6 -0.369489
6.01 -0.426044
6.02 -0.477739
6.03 -0.523529
6.04 -0.563317
6.05 -0.597677
6.06 -0.626728
6.07 -0.652132
6.08 -0.67468
6.09 -0.69595
6.1 -0.717114
6.11 -0.739412
6.12 -0.76351
6.13 -0.790318
6.14 -0.819626
6.15 -0.851416
6.16 -0.885005
6.17 -0.91947
6.18 -0.953607
6.19 -0.986244
6.2 -1.01583
6.21 -1.04135
6.22 -1.06185
6.23 -1.07629
6.24 -1.08507
6.25 -1.08736
6.26 -1.08458
6.27 -1.07719
6.28 -1.06653
6.29 -1.05401
6.3 -1.04098
6.31 -1.02867
6.32 -1.01816
6.33 -1.00977
6.34 -1.0034
6.35 -0.998151
6.36 -0.99241
6.37 -0.983278
6.38 -0.967955
6.39 -0.942084
6.4 -0.901005
6.41 -0.841231
6.42 -0.754959
6.43 -0.641418
6.44 -0.49285
6.45 -0.30863
6.46 -0.0863749
6.47 0.176728
6.48 0.475607
6.49 0.813416
6.5 1.18069
6.51 1.57417
6.52 1.9855
6.53 2.40581
6.54 2.82507
6.55 3.23351
6.56 3.61851
6.57 3.9708
6.58 4.28056
6.59 4.53542
6.6 4.73426
6.61 4.86098
6.62 4.92132
6.63 4.90796
6.64 4.82227
6.65 4.67048
6.66 4.44962
6.67 4.17521
6.68 3.84878
6.69 3.48414
6.7 3.09052
6.71 2.6784
6.72 2.25954
6.73 1.84461
6.74 1.44272
6.75 1.06326
6.76 0.713729
6.77 0.397629
6.78 0.123724
6.79 -0.11149
6.8 -0.302307
6.81 -0.452996
6.82 -0.565164
6.83 -0.640411
6.84 -0.686407
6.85 -0.703587
6.86 -0.700762
6.87 -0.6811
6.88 -0.649922
6.89 -0.61175
6.9 -0.569943
6.91 -0.527861
6.92 -0.487857
6.93 -0.451425
6.94 -0.419466
6.95 -0.392618
6.96 -0.370245
6.97 -0.352612
6.98 -0.338477
6.99 -0.327491
7 -0.318985
7.01 -0.312436
7.02 -0.307871
7.03 -0.305088
7.04 -0.304665
7.05 -0.307006
7.06 -0.312824
7.07 -0.323222
7.08 -0.33845
7.09 -0.360123
7.1 -0.38791
7.11 -0.422562
7.12 -0.463926
7.13 -0.511244
7.14 -0.564357
7.15 -0.621386
7.16 -0.681324
7.17 -0.7422
7.18 -0.802323
7.19 -0.859594
7.2 -0.91273
7.21 -0.959286
7.22 -0.99888
7.23 -1.03009
7.24 -1.05252
7.25 -1.06667
7.26 -1.07201
7.27 -1.07056
7.28 -1.06275
7.29 -1.0506
7.3 -1.03564
7.31 -1.01957
7.32 -1.00395
7.33 -0.990369
7.34 -0.979572
7.35 -0.972329
7.36 -0.968678
7.37 -0.968002
7.38 -0.969543
7.39 -0.971575
7.4 -0.972155
7.41 -0.969031
7.42 -0.959867
7.43 -0.941505
7.44 -0.912732
7.45 -0.869368
7.46 -0.811558
7.47 -0.736911
7.48 -0.644906
7.49 -0.536559
7.5 -0.410667
7.51 -0.271051
7.52 -0.118248
7.53 0.043788
7.54 0.211978
7.55 0.382439
7.56 0.551272
7.57 0.713554
7.58 0.866088
7.59 1.00438
7.6 1.12481
7.61 1.22573
7.62 1.30192
7.63 1.35514
7.64 1.38146
7.65 1.38264
7.66 1.35896
7.67 1.31038
7.68 1.24123
7.69 1.15082
7.7 1.04478
7.71 0.924938
7.72 0.79508
7.73 0.658931
7.74 0.519662
7.75 0.380912
7.76 0.246056
7.77 0.117871
7.78 -0.00115261
7.79 -0.10799
7.8 -0.202297
7.81 -0.280441
7.82 -0.343599
7.83 -0.390103
7.84 -0.420047
7.85 -0.434716
7.86 -0.433019
7.87 -0.418283
7.88 -0.390399
7.89 -0.352224
7.9 -0.305622
7.91 -0.252673
7.92 -0.196272
7.93 -0.138689
7.94 -0.0826055
7.95 -0.0305194
7.96 0.0151087
7.97 0.0527766
7.98 0.0794244
7.99 0.0952206
8 0.0977703
8.01 0.0875066
8.02 0.0643221
8.03 0.0280023
8.04 -0.0191695
8.05 -0.0774196
8.06 -0.14354
8.07 -0.216167
8.08 -0.292829
8.09 -0.371206
8.1 -0.448926
8.11 -0.524062
8.12 -0.59436
8.13 -0.658585
8.14 -0.715676
8.15 -0.764514
8.16 -0.805861
8.17 -0.838858
8.18 -0.865358
8.19 -0.885936
8.2 -0.902118
8.21 -0.915511
8.22 -0.927451
8.23 -0.939407
8.24 -0.952463
8.25 -0.9672
8.26 -0.983734
8.27 -1.00163
8.28 -1.01972
8.29 -1.03606
8.3 -1.04849
8.31 -1.05391
8.32 -1.04879
8.33 -1.03057
8.34 -0.993418
8.35 -0.936644
8.36 -0.854552
8.37 -0.746323
8.38 -0.610158
8.39 -0.443486
8.4 -0.249839
8.41 -0.0263653
8.42 0.220471
8.43 0.488835
8.44 0.773336
8.45 1.06781
8.46 1.3661
8.47 1.66094
8.48 1.94427
8.49 2.20921
8.5 2.44902
8.51 2.65488
8.52 2.82527
8.53 2.94915
8.54 3.02908
8.55 3.05968
8.56 3.04061
8.57 2.97556
8.58 2.86101
8.59 2.7071
8.6 2.51372
8.61 2.28961
8.62 2.04059
8.63 1.77291
8.64 1.49508
8.65 1.2134
8.66 0.935142
8.67 0.666593
8.68 0.413634
8.69 0.179464
8.7 -0.0293551
8.71 -0.213949
8.72 -0.369849
8.73 -0.49878
8.74 -0.601279
8.75 -0.677549
8.76 -0.732593
8.77 -0.766244
8.78 -0.784609
8.79 -0.789967
8.8 -0.786302
8.81 -0.777286
8.82 -0.765855
8.83 -0.754993
8.84 -0.747138
8.85 -0.743907
8.86 -0.746416
8.87 -0.755695
8.88 -0.771071
8.89 -0.793083
8.9 -0.820068
8.91 -0.851322
8.92 -0.885394
8.93 -0.920836
8.94 -0.956211
8.95 -0.99027
8.96 -1.02166
8.97 -1.0496
8.98 -1.07346
8.99 -1.09261
9 -1.10748
9.01 -1.11761
9.02 -1.12404
9.03 -1.12709
9.04 -1.12758
9.05 -1.12636
9.06 -1.12407
9.07 -1.12147
9.08 -1.11906
9.09 -1.11713
9.1 -1.11574
9.11 -1.11469
9.12 -1.11354
9.13 -1.11149
9.14 -1.10773
9.15 -1.10112
9.16 -1.09043
9.17 -1.07485
9.18 -1.0525
9.19 -1.0234
9.2 -0.98597
9.21 -0.940341
9.22 -0.88642
9.23 -0.82405
9.24 -0.754816
9.25 -0.678859
9.26 -0.598544
9.27 -0.51531
9.28 -0.431425
9.29 -0.34895
9.3 -0.270713
9.31 -0.198294
9.32 -0.134605
9.33 -0.0809918
9.34 -0.0388945
9.35 -0.0102383
9.36 0.00591808
9.37 0.007479
9.38 -0.0032193
9.39 -0.0261219
9.4 -0.0595916
9.41 -0.101303
9.42 -0.149905
9.43 -0.202206
9.44 -0.256178
9.45 -0.309219
9.46 -0.359271
9.47 -0.403981
9.48 -0.442516
9.49 -0.472622
9.5 -0.494738
9.51 -0.508157
9.52 -0.51331
9.53 -0.511447
9.54 -0.502986
9.55 -0.49027
9.56 -0.47451
9.57 -0.45778
9.58 -0.441714
9.59 -0.428176
9.6 -0.418164
9.61 -0.413478
9.62 -0.414189
9.63 -0.421041
9.64 -0.433993
9.65 -0.452334
9.66 -0.476033
9.67 -0.503491
9.68 -0.534101
9.69 -0.566494
9.7 -0.599678
9.71 -0.632629
9.72 -0.664665
9.73 -0.695023
9.74 -0.723611
9.75 -0.750241
9.76 -0.775066
9.77 -0.798448
9.78 -0.820563
9.79 -0.841849
9.8 -0.862319
9.81 -0.881856
9.82 -0.899958
9.83 -0.915413
9.84 -0.927138
9.85 -0.932227
9.86 -0.928906
9.87 -0.9136
9.88 -0.882609
9.89 -0.833625
9.9 -0.759917
9.91 -0.661478
9.92 -0.531903
9.93 -0.370508
9.94 -0.17554
9.95 0.0561009
9.96 0.320068
9.97 0.619795
9.98 0.947838
9.99 1.30211
10 1.67652
10.01 2.06381
10.02 2.45703
10.03 2.84742
10.04 3.22566
10.05 3.58333
10.06 3.9124
10.07 4.20204
10.08 4.45011
10.09 4.64326
10.1 4.78378
10.11 4.86503
10.12 4.88572
10.13 4.85013
10.14 4.7529
10.15 4.60611
10.16 4.40885
10.17 4.17106
10.18 3.89943
10.19 3.60056
10.2 3.2849
10.21 2.95882
10.22 2.63149
10.23 2.30978
10.24 2.00063
10.25 1.70808
10.26 1.43927
10.27 1.19378
10.28 0.976332
10.29 0.785719
10.3 0.621491
10.31 0.483769
10.32 0.367587
10.33 0.273273
10.34 0.194882
10.35 0.13027
10.36 0.0757235
10.37 0.0276764
10.38 -0.0163257
10.39 -0.059246
10.4 -0.103027
10.41 -0.149197
10.42 -0.198671
10.43 -0.25222
10.44 -0.309429
10.45 -0.370509
10.46 -0.43433
10.47 -0.500252
10.48 -0.567189
10.49 -0.634126
10.5 -0.699864
10.51 -0.763629
10.52 -0.824267
10.53 -0.881178
10.54 -0.933773
10.55 -0.981192
10.56 -1.02365
10.57 -1.06002
10.58 -1.09083
10.59 -1.11552
10.6 -1.13396
10.61 -1.14645
10.62 -1.15209
10.63 -1.15178
10.64 -1.14477
10.65 -1.13153
10.66 -1.11219
10.67 -1.08661
10.68 -1.05578
10.69 -1.01943
10.7 -0.978887
10.71 -0.934618
10.72 -0.887652
10.73 -0.83913
10.74 -0.79018
10.75 -0.742053
10.76 -0.69615
10.77 -0.653642
10.78 -0.615625
10.79 -0.583598
10.8 -0.557722
10.81 -0.53977
10.82 -0.529254
10.83 -0.526917
10.84 -0.532748
10.85 -0.545973
10.86 -0.567066
10.87 -0.594259
10.88 -0.627406
10.89 -0.665061
10.9 -0.706187
10.91 -0.749717
10.92 -0.794317
10.93 -0.838903
10.94 -0.882411
10.95 -0.923854
10.96 -0.962338
10.97 -0.997456
10.98 -1.02815
10.99 -1.05472
11 -1.07649
11.01 -1.09374
11.02 -1.10664
11.03 -1.11523
11.04 -1.12036
11.05 -1.12209
11.06 -1.12147
11.07 -1.11898
11.08 -1.11541
11.09 -1.11151
11.1 -1.10801
11.11 -1.10548
11.12 -1.1046
11.13 -1.10567
11.14 -1.1089
11.15 -1.11445
11.16 -1.12181
11.17 -1.1307
11.18 -1.14007
11.19 -1.14886
11.2 -1.15547
11.21 -1.15848
11.22 -1.15511
11.23 -1.14416
11.24 -1.12231
11.25 -1.08781
11.26 -1.03857
11.27 -0.971237
11.28 -0.886217
11.29 -0.779171
11.3 -0.651938
11.31 -0.502943
11.32 -0.332669
11.33 -0.14365
11.34 0.0644963
11.35 0.286447
11.36 0.520339
11.37 0.761095
11.38 1.00438
11.39 1.2447
11.4 1.47759
11.41 1.69596
11.42 1.89637
11.43 2.07299
11.44 2.22107
11.45 2.33933
11.46 2.42034
11.47 2.46757
11.48 2.47606
11.49 2.44851
11.5 2.38623
11.51 2.28936
11.52 2.1647
11.53 2.01218
11.54 1.83975
11.55 1.65082
11.56 1.45095
11.57 1.24552
11.58 1.03939
11.59 0.837071
11.6 0.643139
11.61 0.460647
11.62 0.292012
11.63 0.14029
11.64 0.00453023
11.65 -0.112453
11.66 -0.21341
11.67 -0.298345
11.68 -0.368984
11.69 -0.428113
11.7 -0.476655
11.71 -0.518336
11.72 -0.55465
11.73 -0.588141
11.74 -0.620509
11.75 -0.653295
11.76 -0.687368
11.77 -0.72351
11.78 -0.7615
11.79 -0.80103
11.8 -0.841153
11.81 -0.880715
11.82 -0.917868
11.83 -0.951274
11.84 -0.978572
11.85 -0.998157
11.86 -1.00839
11.87 -1.00676
11.88 -0.993332
11.89 -0.965024
11.9 -0.922887
11.91 -0.86569
11.92 -0.793464
11.93 -0.707699
11.94 -0.607488
11.95 -0.496122
11.96 -0.373949
11.97 -0.243724
11.98 -0.107586
11.99 0.0321018
12 0.172537
12.01 0.310842
12.02 0.444533
12.03 0.570766
12.04 0.686775
12.05 0.791203
12.06 0.880046
12.07 0.95387
12.08 1.00952
12.09 1.04716
12.1 1.06649
12.11 1.06625
12.12 1.04915
12.13 1.01361
12.14 0.96327
12.15 0.898885
12.16 0.822697
12.17 0.737636
12.18 0.645272
12.19 0.549079
12.2 0.45114
12.21 0.354053
12.22 0.259798
12.23 0.170644
12.24 0.0873586
12.25 0.0120262
12.26 -0.0556929
12.27 -0.115162
12.28 -0.166641
12.29 -0.211282
12.3 -0.249221
12.31 -0.28259
12.32 -0.312251
12.33 -0.339949
12.34 -0.366995
12.35 -0.394756
12.36 -0.424088
12.37 -0.456022
12.38 -0.490587
12.39 -0.527881
12.4 -0.567383
12.41 -0.608135
