# xPDFsuite Configuration #
[PDF]
wavelength = 0.1432
dataformat = twotheta
inputfile = 1_1Pd_CeO2_cycle-00477.chi
backgroundfile = background-00000.chi
mode = xray
bgscale = 1.007
composition = CeO2
outputtype = gr
qmaxinst = 28.8974762299
qmin = 0.5
qmax = 27.9
rmax = 50.0
rmin = 0.0
rstep = 0.01
rpoly = 1.8657

[Misc]
inputdir = G:/SankarDec16/1Pd/Chi
savedir = D:/DATA/APS_CeO2/1Pd
backgroundfilefull = G:/SankarDec16/Background/background-00000.chi

#### start data
#S 1
#L r($\AA$)  G($\AA^{-2}$)
0 0
0.01 -0.0031753
0.02 -0.00610987
0.03 -0.00855595
0.04 -0.0103272
0.05 -0.0113202
0.06 -0.0113692
0.07 -0.010586
0.08 -0.00891893
0.09 -0.0065811
0.1 -0.00372081
0.11 -0.000564166
0.12 0.00264398
0.13 0.00562728
0.14 0.00819304
0.15 0.0101035
0.16 0.0112216
0.17 0.0114944
0.18 0.0108119
0.19 0.00934039
0.2 0.00709103
0.21 0.00431338
0.22 0.0011929
0.23 -0.00201605
0.24 -0.00508426
0.25 -0.00771409
0.26 -0.00977079
0.27 -0.0110391
0.28 -0.0114383
0.29 -0.0109688
0.3 -0.00958219
0.31 -0.00749089
0.32 -0.00476834
0.33 -0.00168782
0.34 0.00153766
0.35 0.00463845
0.36 0.00741301
0.37 0.00955782
0.38 0.0110032
0.39 0.0115676
0.4 0.0112312
0.41 0.0100476
0.42 0.00803323
0.43 0.00543546
0.44 0.00238653
0.45 -0.00083057
0.46 -0.00398639
0.47 -0.00680976
0.48 -0.00913753
0.49 -0.0106761
0.5 -0.0114248
0.51 -0.0112454
0.52 -0.0101804
0.53 -0.00833433
0.54 -0.00578754
0.55 -0.00281001
0.56 0.000413907
0.57 0.00360605
0.58 0.0065325
0.59 0.00893457
0.6 0.0106963
0.61 0.0115495
0.62 0.0115627
0.63 0.0106489
0.64 0.00891066
0.65 0.00649858
0.66 0.00355334
0.67 0.000353407
0.68 -0.00287398
0.69 -0.00586983
0.7 -0.00840801
0.71 -0.0102556
0.72 -0.0113501
0.73 -0.0114625
0.74 -0.0107273
0.75 -0.00911276
0.76 -0.00677633
0.77 -0.00390616
0.78 -0.000695306
0.79 0.0025842
0.8 0.00567564
0.81 0.00835317
0.82 0.0104115
0.83 0.0116569
0.84 0.0120838
0.85 0.0115159
0.86 0.0101452
0.87 0.00799707
0.88 0.00527343
0.89 0.00218747
0.9 -0.0010295
0.91 -0.00413095
0.92 -0.00685194
0.93 -0.00901838
0.94 -0.010466
0.95 -0.0110625
0.96 -0.0108649
0.97 -0.00978051
0.98 -0.00804927
0.99 -0.00576942
1 -0.00318412
1.01 -0.000522998
1.02 0.00194157
1.03 0.00401538
1.04 0.00542996
1.05 0.00609134
1.06 0.00589643
1.07 0.0048019
1.08 0.00295462
1.09 0.000384907
1.1 -0.00259348
1.11 -0.00576447
1.12 -0.00880464
1.13 -0.0114359
1.14 -0.013274
1.15 -0.0141693
1.16 -0.0137637
1.17 -0.0120321
1.18 -0.00888382
1.19 -0.00431133
1.2 0.00142539
1.21 0.00827114
1.22 0.0157587
1.23 0.0235897
1.24 0.0313121
1.25 0.0385361
1.26 0.0447254
1.27 0.049642
1.28 0.0527471
1.29 0.0539318
1.3 0.0529737
1.31 0.0497094
1.32 0.0443907
1.33 0.0368065
1.34 0.0275169
1.35 0.0166534
1.36 0.00466551
1.37 -0.00801648
1.38 -0.0209527
1.39 -0.0336801
1.4 -0.0456952
1.41 -0.0566338
1.42 -0.066116
1.43 -0.0737423
1.44 -0.079477
1.45 -0.0827869
1.46 -0.0839315
1.47 -0.0826625
1.48 -0.0790879
1.49 -0.0733862
1.5 -0.0655037
1.51 -0.0559105
1.52 -0.0446315
1.53 -0.032114
1.54 -0.0186221
1.55 -0.00450141
1.56 0.00985909
1.57 0.0240614
1.58 0.0377423
1.59 0.0504622
1.6 0.061832
1.61 0.0715655
1.62 0.079097
1.63 0.0844264
1.64 0.0869885
1.65 0.0868532
1.66 0.0838582
1.67 0.0778971
1.68 0.069355
1.69 0.0580165
1.7 0.0445992
1.71 0.0292906
1.72 0.0126628
1.73 -0.00473464
1.74 -0.0223198
1.75 -0.0395088
1.76 -0.0556335
1.77 -0.0702439
1.78 -0.0828735
1.79 -0.0930642
1.8 -0.100862
1.81 -0.105757
1.82 -0.108245
1.83 -0.108298
1.84 -0.106352
1.85 -0.1029
1.86 -0.0983895
1.87 -0.0935052
1.88 -0.0888255
1.89 -0.0849126
1.9 -0.0822506
1.91 -0.0813143
1.92 -0.0821554
1.93 -0.08519
1.94 -0.0900175
1.95 -0.0965723
1.96 -0.104375
1.97 -0.112885
1.98 -0.121451
1.99 -0.129401
2 -0.135876
2.01 -0.140275
2.02 -0.141935
2.03 -0.140153
2.04 -0.134909
2.05 -0.125316
2.06 -0.111936
2.07 -0.0944845
2.08 -0.0733316
2.09 -0.0489677
2.1 -0.021579
2.11 0.00794404
2.12 0.0393089
2.13 0.071801
2.14 0.105002
2.15 0.138509
2.16 0.172041
2.17 0.205416
2.18 0.238614
2.19 0.271671
2.2 0.304728
2.21 0.337935
2.22 0.371486
2.23 0.405437
2.24 0.43985
2.25 0.474551
2.26 0.50927
2.27 0.543473
2.28 0.576614
2.29 0.607538
2.3 0.635583
2.31 0.659386
2.32 0.677825
2.33 0.690092
2.34 0.694331
2.35 0.690761
2.36 0.677638
2.37 0.655461
2.38 0.624001
2.39 0.583299
2.4 0.534944
2.41 0.478863
2.42 0.417575
2.43 0.352201
2.44 0.284816
2.45 0.217245
2.46 0.151622
2.47 0.0893637
2.48 0.0325828
2.49 -0.017899
2.5 -0.0610777
2.51 -0.0961151
2.52 -0.123772
2.53 -0.143178
2.54 -0.156274
2.55 -0.163505
2.56 -0.166444
2.57 -0.166618
2.58 -0.165465
2.59 -0.164548
2.6 -0.165304
2.61 -0.168715
2.62 -0.175583
2.63 -0.186528
2.64 -0.201195
2.65 -0.21988
2.66 -0.241365
2.67 -0.26503
2.68 -0.289636
2.69 -0.314052
2.7 -0.336894
2.71 -0.357332
2.72 -0.37408
2.73 -0.3868
2.74 -0.395098
2.75 -0.398833
2.76 -0.398813
2.77 -0.395214
2.78 -0.389543
2.79 -0.382777
2.8 -0.376347
2.81 -0.371432
2.82 -0.369579
2.83 -0.371337
2.84 -0.377957
2.85 -0.389388
2.86 -0.405712
2.87 -0.426642
2.88 -0.450972
2.89 -0.477959
2.9 -0.505808
2.91 -0.533054
2.92 -0.557967
2.93 -0.579239
2.94 -0.59493
2.95 -0.604787
2.96 -0.607333
2.97 -0.603011
2.98 -0.591939
2.99 -0.574697
3 -0.552994
3.01 -0.527861
3.02 -0.501611
3.03 -0.476062
3.04 -0.453306
3.05 -0.434875
3.06 -0.423005
3.07 -0.417916
3.08 -0.421219
3.09 -0.432302
3.1 -0.450922
3.11 -0.476308
3.12 -0.506477
3.13 -0.540171
3.14 -0.57484
3.15 -0.608476
3.16 -0.63887
3.17 -0.66448
3.18 -0.683091
3.19 -0.694698
3.2 -0.697937
3.21 -0.693776
3.22 -0.682861
3.23 -0.666499
3.24 -0.64696
3.25 -0.626288
3.26 -0.607069
3.27 -0.591838
3.28 -0.582931
3.29 -0.581794
3.3 -0.590865
3.31 -0.609484
3.32 -0.638923
3.33 -0.677438
3.34 -0.723804
3.35 -0.775954
3.36 -0.830901
3.37 -0.885685
3.38 -0.937226
3.39 -0.98226
3.4 -1.01804
3.41 -1.04301
3.42 -1.05433
3.43 -1.05322
3.44 -1.0384
3.45 -1.01238
3.46 -0.976935
3.47 -0.934863
3.48 -0.889886
3.49 -0.845695
3.5 -0.805778
3.51 -0.773747
3.52 -0.752256
3.53 -0.742381
3.54 -0.746035
3.55 -0.760644
3.56 -0.785244
3.57 -0.815053
3.58 -0.845329
3.59 -0.869047
3.6 -0.880399
3.61 -0.868388
3.62 -0.828546
3.63 -0.750918
3.64 -0.629146
3.65 -0.460294
3.66 -0.234736
3.67 0.041668
3.68 0.375082
3.69 0.757415
3.7 1.18441
3.71 1.64911
3.72 2.13856
3.73 2.64334
3.74 3.14806
3.75 3.6389
3.76 4.10072
3.77 4.52217
3.78 4.88387
3.79 5.18291
3.8 5.40109
3.81 5.53819
3.82 5.58877
3.83 5.54782
3.84 5.42643
3.85 5.21626
3.86 4.93727
3.87 4.59254
3.88 4.19577
3.89 3.76087
3.9 3.29866
3.91 2.82539
3.92 2.35324
3.93 1.89458
3.94 1.45963
3.95 1.05926
3.96 0.696021
3.97 0.38153
3.98 0.111247
3.99 -0.110483
4 -0.286427
4.01 -0.421656
4.02 -0.516646
4.03 -0.581864
4.04 -0.619667
4.05 -0.638793
4.06 -0.644527
4.07 -0.642406
4.08 -0.637527
4.09 -0.633784
4.1 -0.633753
4.11 -0.639406
4.12 -0.651316
4.13 -0.668928
4.14 -0.691671
4.15 -0.717272
4.16 -0.743919
4.17 -0.769162
4.18 -0.790848
4.19 -0.806515
4.2 -0.815225
4.21 -0.814322
4.22 -0.804391
4.23 -0.78436
4.24 -0.754685
4.25 -0.716423
4.26 -0.669717
4.27 -0.616857
4.28 -0.55846
4.29 -0.496427
4.3 -0.431912
4.31 -0.366071
4.32 -0.299871
4.33 -0.234015
4.34 -0.168869
4.35 -0.104687
4.36 -0.0414752
4.37 0.0208908
4.38 0.0824449
4.39 0.143362
4.4 0.203508
4.41 0.262714
4.42 0.320545
4.43 0.37618
4.44 0.429026
4.45 0.477335
4.46 0.520479
4.47 0.556665
4.48 0.58457
4.49 0.603441
4.5 0.610984
4.51 0.607923
4.52 0.592339
4.53 0.565177
4.54 0.526533
4.55 0.476708
4.56 0.417889
4.57 0.350249
4.58 0.276787
4.59 0.198892
4.6 0.118863
4.61 0.0386521
4.62 -0.0395677
4.63 -0.114438
4.64 -0.184008
4.65 -0.24758
4.66 -0.304374
4.67 -0.353703
4.68 -0.396378
4.69 -0.431705
4.7 -0.461376
4.71 -0.485745
4.72 -0.506009
4.73 -0.523338
4.74 -0.538577
4.75 -0.552895
4.76 -0.567
4.77 -0.581526
4.78 -0.59683
4.79 -0.61311
4.8 -0.630206
4.81 -0.647964
4.82 -0.665894
4.83 -0.683527
4.84 -0.700291
4.85 -0.715759
4.86 -0.729257
4.87 -0.740721
4.88 -0.749661
4.89 -0.756231
4.9 -0.76049
4.91 -0.762613
4.92 -0.763167
4.93 -0.76243
4.94 -0.761116
4.95 -0.759711
4.96 -0.758787
4.97 -0.758744
4.98 -0.760116
4.99 -0.762964
5 -0.767632
5.01 -0.773987
5.02 -0.781965
5.03 -0.791421
5.04 -0.801954
5.05 -0.813373
5.06 -0.825202
5.07 -0.837124
5.08 -0.848757
5.09 -0.859812
5.1 -0.86986
5.11 -0.878743
5.12 -0.885978
5.13 -0.891339
5.14 -0.894421
5.15 -0.894582
5.16 -0.891608
5.17 -0.884181
5.18 -0.872111
5.19 -0.854089
5.2 -0.829135
5.21 -0.796642
5.22 -0.754517
5.23 -0.703123
5.24 -0.640379
5.25 -0.566591
5.26 -0.481326
5.27 -0.384146
5.28 -0.276796
5.29 -0.158744
5.3 -0.0330176
5.31 0.0990516
5.32 0.234637
5.33 0.370917
5.34 0.504292
5.35 0.631906
5.36 0.749339
5.37 0.853859
5.38 0.942275
5.39 1.01067
5.4 1.05906
5.41 1.08221
5.42 1.08264
5.43 1.05824
5.44 1.01008
5.45 0.940645
5.46 0.849765
5.47 0.7429
5.48 0.621351
5.49 0.49007
5.5 0.352515
5.51 0.212712
5.52 0.0742961
5.53 -0.0585324
5.54 -0.183482
5.55 -0.297386
5.56 -0.398318
5.57 -0.485743
5.58 -0.557266
5.59 -0.61497
5.6 -0.657585
5.61 -0.687354
5.62 -0.705374
5.63 -0.71287
5.64 -0.712525
5.65 -0.705012
5.66 -0.692948
5.67 -0.677338
5.68 -0.659496
5.69 -0.640309
5.7 -0.620199
5.71 -0.599469
5.72 -0.577937
5.73 -0.555333
5.74 -0.531204
5.75 -0.504877
5.76 -0.476126
5.77 -0.444087
5.78 -0.408994
5.79 -0.370606
5.8 -0.329291
5.81 -0.285726
5.82 -0.240619
5.83 -0.195226
5.84 -0.150871
5.85 -0.108957
5.86 -0.0708985
5.87 -0.0384826
5.88 -0.0122877
5.89 0.00540507
5.9 0.0149452
5.91 0.0151555
5.92 0.00602178
5.93 -0.0117821
5.94 -0.0386947
5.95 -0.0726923
5.96 -0.113557
5.97 -0.159418
5.98 -0.209051
5.99 -0.261085
6 -0.314049
6.01 -0.366722
6.02 -0.418119
6.03 -0.467356
6.04 -0.513872
6.05 -0.557543
6.06 -0.597957
6.07 -0.635696
6.08 -0.670738
6.09 -0.70373
6.1 -0.73508
6.11 -0.7652
6.12 -0.794564
6.13 -0.823338
6.14 -0.851716
6.15 -0.879615
6.16 -0.906821
6.17 -0.933058
6.18 -0.957696
6.19 -0.980467
6.2 -1.00059
6.21 -1.01779
6.22 -1.03169
6.23 -1.04187
6.24 -1.04868
6.25 -1.05173
6.26 -1.05184
6.27 -1.04921
6.28 -1.04447
6.29 -1.03827
6.3 -1.03098
6.31 -1.02311
6.32 -1.01465
6.33 -1.00542
6.34 -0.994762
6.35 -0.981347
6.36 -0.963991
6.37 -0.939625
6.38 -0.906607
6.39 -0.861317
6.4 -0.800425
6.41 -0.72173
6.42 -0.619251
6.43 -0.49329
6.44 -0.338072
6.45 -0.153829
6.46 0.0608279
6.47 0.307609
6.48 0.582173
6.49 0.886607
6.5 1.21337
6.51 1.55973
6.52 1.9191
6.53 2.2846
6.54 2.6483
6.55 3.00271
6.56 3.33785
6.57 3.64648
6.58 3.92078
6.59 4.15075
6.6 4.33534
6.61 4.46119
6.62 4.53255
6.63 4.54286
6.64 4.49249
6.65 4.38589
6.66 4.21938
6.67 4.00529
6.68 3.74355
6.69 3.4451
6.7 3.11689
6.71 2.76678
6.72 2.40495
6.73 2.03922
6.74 1.67836
6.75 1.33013
6.76 1.00162
6.77 0.696847
6.78 0.423824
6.79 0.181213
6.8 -0.025183
6.81 -0.197582
6.82 -0.33623
6.83 -0.441208
6.84 -0.518431
6.85 -0.566943
6.86 -0.594286
6.87 -0.602538
6.88 -0.596231
6.89 -0.579631
6.9 -0.555465
6.91 -0.527694
6.92 -0.498541
6.93 -0.470239
6.94 -0.444192
6.95 -0.421601
6.96 -0.402549
6.97 -0.387744
6.98 -0.376428
6.99 -0.368511
7 -0.363436
7.01 -0.360614
7.02 -0.359868
7.03 -0.360668
7.04 -0.363118
7.05 -0.367191
7.06 -0.373155
7.07 -0.381575
7.08 -0.392652
7.09 -0.407451
7.1 -0.426003
7.11 -0.449043
7.12 -0.476831
7.13 -0.509188
7.14 -0.54653
7.15 -0.587807
7.16 -0.632852
7.17 -0.680467
7.18 -0.729676
7.19 -0.779221
7.2 -0.827911
7.21 -0.87417
7.22 -0.917128
7.23 -0.955504
7.24 -0.988442
7.25 -1.01572
7.26 -1.03627
7.27 -1.05101
7.28 -1.05948
7.29 -1.06269
7.3 -1.0613
7.31 -1.05601
7.32 -1.04807
7.33 -1.03807
7.34 -1.02705
7.35 -1.01552
7.36 -1.00386
7.37 -0.992096
7.38 -0.979893
7.39 -0.966699
7.4 -0.951386
7.41 -0.932816
7.42 -0.909595
7.43 -0.879691
7.44 -0.842356
7.45 -0.794622
7.46 -0.736508
7.47 -0.666142
7.48 -0.58291
7.49 -0.487333
7.5 -0.378159
7.51 -0.258037
7.52 -0.127014
7.53 0.0120802
7.54 0.157054
7.55 0.30508
7.56 0.452995
7.57 0.597037
7.58 0.734331
7.59 0.861122
7.6 0.974143
7.61 1.07165
7.62 1.14896
7.63 1.20706
7.64 1.2422
7.65 1.25543
7.66 1.24662
7.67 1.21528
7.68 1.16501
7.69 1.09476
7.7 1.00946
7.71 0.910535
7.72 0.801291
7.73 0.685122
7.74 0.564727
7.75 0.443607
7.76 0.324702
7.77 0.210652
7.78 0.103716
7.79 0.00655043
7.8 -0.0804356
7.81 -0.154227
7.82 -0.215797
7.83 -0.26385
7.84 -0.298566
7.85 -0.321086
7.86 -0.330673
7.87 -0.330054
7.88 -0.319218
7.89 -0.300413
7.9 -0.275049
7.91 -0.244615
7.92 -0.211212
7.93 -0.176283
7.94 -0.141703
7.95 -0.109045
7.96 -0.0798993
7.97 -0.0552672
7.98 -0.0370593
7.99 -0.0253082
8 -0.0215935
8.01 -0.0258406
8.02 -0.0383261
8.03 -0.0595023
8.04 -0.0881803
8.05 -0.125013
8.06 -0.168197
8.07 -0.217334
8.08 -0.271206
8.09 -0.32847
8.1 -0.388149
8.11 -0.448728
8.12 -0.509079
8.13 -0.568061
8.14 -0.624757
8.15 -0.678141
8.16 -0.728022
8.17 -0.773383
8.18 -0.814622
8.19 -0.851416
8.2 -0.883959
8.21 -0.91273
8.22 -0.93758
8.23 -0.959315
8.24 -0.977746
8.25 -0.993163
8.26 -1.0054
8.27 -1.01379
8.28 -1.01811
8.29 -1.01653
8.3 -1.00848
8.31 -0.991862
8.32 -0.964749
8.33 -0.925944
8.34 -0.871552
8.35 -0.801782
8.36 -0.71278
8.37 -0.604327
8.38 -0.475288
8.39 -0.323859
8.4 -0.152592
8.41 0.040774
8.42 0.251688
8.43 0.479092
8.44 0.719311
8.45 0.967974
8.46 1.22089
8.47 1.47256
8.48 1.71716
8.49 1.94924
8.5 2.1635
8.51 2.35281
8.52 2.51541
8.53 2.64208
8.54 2.73397
8.55 2.78596
8.56 2.79671
8.57 2.76835
8.58 2.69661
8.59 2.58921
8.6 2.44469
8.61 2.26973
8.62 2.06853
8.63 1.84547
8.64 1.60811
8.65 1.36077
8.66 1.11065
8.67 0.863036
8.68 0.623614
8.69 0.396107
8.7 0.186588
8.71 -0.00446463
8.72 -0.172462
8.73 -0.317716
8.74 -0.439794
8.75 -0.537871
8.76 -0.61573
8.77 -0.672239
8.78 -0.712602
8.79 -0.738308
8.8 -0.752707
8.81 -0.75923
8.82 -0.760193
8.83 -0.758935
8.84 -0.757609
8.85 -0.758253
8.86 -0.762246
8.87 -0.770885
8.88 -0.784107
8.89 -0.802687
8.9 -0.825553
8.91 -0.852334
8.92 -0.881964
8.93 -0.913258
8.94 -0.945086
8.95 -0.976268
8.96 -1.00563
8.97 -1.03237
8.98 -1.05584
8.99 -1.07536
9 -1.09117
9.01 -1.10275
9.02 -1.1109
9.03 -1.11579
9.04 -1.11804
9.05 -1.11838
9.06 -1.11723
9.07 -1.11531
9.08 -1.11296
9.09 -1.11048
9.1 -1.10791
9.11 -1.10508
9.12 -1.10169
9.13 -1.09701
9.14 -1.09048
9.15 -1.08116
9.16 -1.06807
9.17 -1.05064
9.18 -1.02734
9.19 -0.998322
9.2 -0.962363
9.21 -0.91969
9.22 -0.870326
9.23 -0.81426
9.24 -0.752848
9.25 -0.686329
9.26 -0.616626
9.27 -0.544955
9.28 -0.473136
9.29 -0.402771
9.3 -0.336099
9.31 -0.274253
9.32 -0.219463
9.33 -0.172665
9.34 -0.134883
9.35 -0.107506
9.36 -0.0897245
9.37 -0.0830762
9.38 -0.0857414
9.39 -0.0976741
9.4 -0.11767
9.41 -0.144032
9.42 -0.175887
9.43 -0.21093
9.44 -0.247866
9.45 -0.284895
9.46 -0.320655
9.47 -0.353647
9.48 -0.383249
9.49 -0.408103
9.5 -0.428395
9.51 -0.443696
9.52 -0.454237
9.53 -0.460729
9.54 -0.463394
9.55 -0.463564
9.56 -0.461888
9.57 -0.45951
9.58 -0.457304
9.59 -0.45624
9.6 -0.456846
9.61 -0.46001
9.62 -0.465765
9.63 -0.474458
9.64 -0.486052
9.65 -0.500197
9.66 -0.516881
9.67 -0.53537
9.68 -0.555435
9.69 -0.576511
9.7 -0.598235
9.71 -0.620296
9.72 -0.642458
9.73 -0.664611
9.74 -0.686737
9.75 -0.708881
9.76 -0.731119
9.77 -0.753486
9.78 -0.775942
9.79 -0.79827
9.8 -0.820001
9.81 -0.840406
9.82 -0.858488
9.83 -0.872489
9.84 -0.881209
9.85 -0.881365
9.86 -0.871519
9.87 -0.848284
9.88 -0.808541
9.89 -0.75069
9.9 -0.668997
9.91 -0.564286
9.92 -0.431436
9.93 -0.270629
9.94 -0.080971
9.95 0.139502
9.96 0.386631
9.97 0.662704
9.98 0.961265
9.99 1.28028
10 1.6146
10.01 1.95832
10.02 2.30571
10.03 2.64997
10.04 2.98365
10.05 3.30023
10.06 3.59347
10.07 3.85481
10.08 4.08268
10.09 4.26635
10.1 4.40759
10.11 4.50083
10.12 4.54462
10.13 4.54199
10.14 4.48775
10.15 4.39118
10.16 4.25041
10.17 4.07281
10.18 3.863
10.19 3.62513
10.2 3.36775
10.21 3.09449
10.22 2.81344
10.23 2.52962
10.24 2.24889
10.25 1.97538
10.26 1.71483
10.27 1.46865
10.28 1.24125
10.29 1.03322
10.3 0.845435
10.31 0.679438
10.32 0.53237
10.33 0.406087
10.34 0.296452
10.35 0.202809
10.36 0.122806
10.37 0.0535101
10.38 -0.00623005
10.39 -0.0598734
10.4 -0.108798
10.41 -0.155281
10.42 -0.200826
10.43 -0.246867
10.44 -0.294284
10.45 -0.344092
10.46 -0.396402
10.47 -0.451499
10.48 -0.509216
10.49 -0.569038
10.5 -0.630581
10.51 -0.692877
10.52 -0.755106
10.53 -0.816236
10.54 -0.875299
10.55 -0.930967
10.56 -0.982665
10.57 -1.02865
10.58 -1.06873
10.59 -1.10172
10.6 -1.12694
10.61 -1.14447
10.62 -1.15292
10.63 -1.15348
10.64 -1.14534
10.65 -1.12944
10.66 -1.10632
10.67 -1.07636
10.68 -1.04121
10.69 -1.00125
10.7 -0.95831
10.71 -0.913408
10.72 -0.867975
10.73 -0.823206
10.74 -0.780593
10.75 -0.740902
10.76 -0.705482
10.77 -0.674887
10.78 -0.649662
10.79 -0.630595
10.8 -0.617156
10.81 -0.610208
10.82 -0.60873
10.83 -0.612736
10.84 -0.621679
10.85 -0.634695
10.86 -0.651616
10.87 -0.671265
10.88 -0.693322
10.89 -0.717006
10.9 -0.741826
10.91 -0.767357
10.92 -0.793195
10.93 -0.819089
10.94 -0.844838
10.95 -0.870311
10.96 -0.895416
10.97 -0.920127
10.98 -0.944328
10.99 -0.968026
11 -0.991069
11.01 -1.01337
11.02 -1.03478
11.03 -1.05502
11.04 -1.07404
11.05 -1.09141
11.06 -1.10713
11.07 -1.12091
11.08 -1.13262
11.09 -1.14235
11.1 -1.14981
11.11 -1.15539
11.12 -1.15898
11.13 -1.16086
11.14 -1.16119
11.15 -1.16001
11.16 -1.15755
11.17 -1.15352
11.18 -1.1479
11.19 -1.14017
11.2 -1.12963
11.21 -1.11567
11.22 -1.09651
11.23 -1.07157
11.24 -1.03855
11.25 -0.996186
11.26 -0.942881
11.27 -0.875961
11.28 -0.795513
11.29 -0.697896
11.3 -0.584209
11.31 -0.45285
11.32 -0.303794
11.33 -0.138786
11.34 0.0429854
11.35 0.237304
11.36 0.443033
11.37 0.656057
11.38 0.87285
11.39 1.08895
11.4 1.30032
11.41 1.50105
11.42 1.6878
11.43 1.85539
11.44 1.99939
11.45 2.11829
11.46 2.20529
11.47 2.26297
11.48 2.28661
11.49 2.27812
11.5 2.23834
11.51 2.16693
11.52 2.06973
11.53 1.94619
11.54 1.80331
11.55 1.64384
11.56 1.47256
11.57 1.29429
11.58 1.11303
11.59 0.933092
11.6 0.758316
11.61 0.591612
11.62 0.435205
11.63 0.291775
11.64 0.160814
11.65 0.0447002
11.66 -0.058631
11.67 -0.149114
11.68 -0.22807
11.69 -0.297694
11.7 -0.358649
11.71 -0.413878
11.72 -0.46445
11.73 -0.512281
11.74 -0.558572
11.75 -0.604274
11.76 -0.64996
11.77 -0.695787
11.78 -0.741475
11.79 -0.786397
11.8 -0.829506
11.81 -0.869831
11.82 -0.905364
11.83 -0.935334
11.84 -0.957517
11.85 -0.97087
11.86 -0.974228
11.87 -0.965667
11.88 -0.945789
11.89 -0.912238
11.9 -0.866477
11.91 -0.807859
11.92 -0.73687
11.93 -0.655085
11.94 -0.562191
11.95 -0.461031
11.96 -0.352171
11.97 -0.237878
11.98 -0.119876
11.99 -4.50759e-05
12 0.119628
12.01 0.236974
12.02 0.350357
12.03 0.457772
12.04 0.557336
12.05 0.648188
12.06 0.727463
12.07 0.795635
12.08 0.850352
12.09 0.891641
12.1 0.919124
12.11 0.931576
12.12 0.930773
12.13 0.915027
12.14 0.886784
12.15 0.846125
12.16 0.794276
12.17 0.733274
12.18 0.663593
12.19 0.58809
12.2 0.507868
12.21 0.425097
12.22 0.341412
12.23 0.25859
12.24 0.177886
12.25 0.101024
12.26 0.0285532
12.27 -0.0385634
12.28 -0.0998577
12.29 -0.155644
12.3 -0.205328
12.31 -0.250191
12.32 -0.290306
12.33 -0.32679
12.34 -0.360479
12.35 -0.392168
12.36 -0.422841
