# xPDFsuite Configuration #
[PDF]
wavelength = 0.1432
dataformat = twotheta
inputfile = 1_1Pd_CeO2_cycle-00473.chi
backgroundfile = background-00000.chi
mode = xray
bgscale = 1.007
composition = CeO2
outputtype = gr
qmaxinst = 28.8974762299
qmin = 0.5
qmax = 27.9
rmax = 50.0
rmin = 0.0
rstep = 0.01
rpoly = 1.8657

[Misc]
inputdir = G:/SankarDec16/1Pd/Chi
savedir = D:/DATA/APS_CeO2/1Pd
backgroundfilefull = G:/SankarDec16/Background/background-00000.chi

#### start data
#S 1
#L r($\AA$)  G($\AA^{-2}$)
0 0
0.01 -0.00363734
0.02 -0.00700108
0.03 -0.00980945
0.04 -0.0118502
0.05 -0.013005
0.06 -0.0130837
0.07 -0.0122126
0.08 -0.01033
0.09 -0.00767685
0.1 -0.00441971
0.11 -0.000813703
0.12 0.00286235
0.13 0.0062962
0.14 0.00926559
0.15 0.0114991
0.16 0.012837
0.17 0.0132149
0.18 0.0125024
0.19 0.0108844
0.2 0.00836675
0.21 0.0052301
0.22 0.00168145
0.23 -0.00199293
0.24 -0.00553021
0.25 -0.00859405
0.26 -0.0110238
0.27 -0.0125712
0.28 -0.0131364
0.29 -0.0127122
0.3 -0.0112339
0.31 -0.00893668
0.32 -0.00589366
0.33 -0.00241226
0.34 0.00126972
0.35 0.00484797
0.36 0.00808802
0.37 0.0106451
0.38 0.0124277
0.39 0.0132222
0.4 0.0129937
0.41 0.0117924
0.42 0.00962254
0.43 0.00675875
0.44 0.00333803
0.45 -0.000319492
0.46 -0.00395645
0.47 -0.00726447
0.48 -0.0100485
0.49 -0.0119716
0.5 -0.0130156
0.51 -0.0130119
0.52 -0.011992
0.53 -0.0100614
0.54 -0.00729355
0.55 -0.00398968
0.56 -0.000344423
0.57 0.0033242
0.58 0.00675134
0.59 0.00963878
0.6 0.0118403
0.61 0.0130424
0.62 0.0133014
0.63 0.0125016
0.64 0.0107398
0.65 0.00817217
0.66 0.00493779
0.67 0.00135075
0.68 -0.00234575
0.69 -0.00585042
0.7 -0.00890335
0.71 -0.0112302
0.72 -0.0127403
0.73 -0.0131581
0.74 -0.0126114
0.75 -0.0110425
0.76 -0.00860839
0.77 -0.00550778
0.78 -0.00193792
0.79 0.00178955
0.8 0.00539626
0.81 0.00861222
0.82 0.0111962
0.83 0.0129118
0.84 0.0137284
0.85 0.0134231
0.86 0.0121877
0.87 0.0100252
0.88 0.00714304
0.89 0.00377038
0.9 0.000149314
0.91 -0.00343099
0.92 -0.00667808
0.93 -0.00937342
0.94 -0.0113158
0.95 -0.0123311
0.96 -0.0124564
0.97 -0.0115558
0.98 -0.00987746
0.99 -0.0075047
1 -0.00469562
1.01 -0.00170351
1.02 0.00117641
1.03 0.0037041
1.04 0.0055717
1.05 0.00664047
1.06 0.00676672
1.07 0.00586381
1.08 0.0040662
1.09 0.00135914
1.1 -0.00192038
1.11 -0.00556449
1.12 -0.00922118
1.13 -0.0125759
1.14 -0.0152048
1.15 -0.0169006
1.16 -0.0172458
1.17 -0.0161594
1.18 -0.0134955
1.19 -0.00918634
1.2 -0.00347843
1.21 0.00364545
1.22 0.0116847
1.23 0.0203661
1.24 0.0292092
1.25 0.0377845
1.26 0.0455285
1.27 0.0521252
1.28 0.056986
1.29 0.0599259
1.3 0.0606589
1.31 0.0589479
1.32 0.055006
1.33 0.0485334
1.34 0.0400909
1.35 0.0297559
1.36 0.0179694
1.37 0.0051698
1.38 -0.00823134
1.39 -0.0217134
1.4 -0.0347911
1.41 -0.0470457
1.42 -0.0580775
1.43 -0.0674625
1.44 -0.0751172
1.45 -0.080503
1.46 -0.0838284
1.47 -0.0848284
1.48 -0.0835786
1.49 -0.0802285
1.5 -0.0746916
1.51 -0.067405
1.52 -0.0583451
1.53 -0.0479196
1.54 -0.0363401
1.55 -0.0238831
1.56 -0.010909
1.57 0.00230257
1.58 0.0153875
1.59 0.0279979
1.6 0.0397778
1.61 0.0504488
1.62 0.0595172
1.63 0.0669001
1.64 0.0720738
1.65 0.0750035
1.66 0.0754686
1.67 0.0732701
1.68 0.0686603
1.69 0.0613048
1.7 0.0517778
1.71 0.0401207
1.72 0.0267684
1.73 0.0121741
1.74 -0.00324865
1.75 -0.0189068
1.76 -0.0342705
1.77 -0.0488359
1.78 -0.0621379
1.79 -0.0736871
1.8 -0.0833865
1.81 -0.0906954
1.82 -0.0959068
1.83 -0.0988821
1.84 -0.0998961
1.85 -0.0993123
1.86 -0.0974225
1.87 -0.094843
1.88 -0.0920236
1.89 -0.0895165
1.9 -0.0877799
1.91 -0.0872914
1.92 -0.0881952
1.93 -0.0909293
1.94 -0.0952439
1.95 -0.101162
1.96 -0.10833
1.97 -0.116309
1.98 -0.124569
1.99 -0.132478
2 -0.139266
2.01 -0.144315
2.02 -0.146954
2.03 -0.146434
2.04 -0.142633
2.05 -0.134574
2.06 -0.122682
2.07 -0.106534
2.08 -0.0863655
2.09 -0.0625671
2.1 -0.0351635
2.11 -0.00505141
2.12 0.0275964
2.13 0.0620023
2.14 0.0977253
2.15 0.134296
2.16 0.171276
2.17 0.208381
2.18 0.245385
2.19 0.28216
2.2 0.318658
2.21 0.354889
2.22 0.390839
2.23 0.426535
2.24 0.461871
2.25 0.496711
2.26 0.530772
2.27 0.563548
2.28 0.594652
2.29 0.622963
2.3 0.648049
2.31 0.668671
2.32 0.683888
2.33 0.693039
2.34 0.694437
2.35 0.688373
2.36 0.673239
2.37 0.649538
2.38 0.617065
2.39 0.575854
2.4 0.527394
2.41 0.471592
2.42 0.410817
2.43 0.346113
2.44 0.279442
2.45 0.212548
2.46 0.147481
2.47 0.08563
2.48 0.0290678
2.49 -0.0213562
2.5 -0.0646066
2.51 -0.099785
2.52 -0.127578
2.53 -0.147018
2.54 -0.159982
2.55 -0.166829
2.56 -0.169081
2.57 -0.168255
2.58 -0.165761
2.59 -0.163242
2.6 -0.162177
2.61 -0.163671
2.62 -0.168643
2.63 -0.177868
2.64 -0.191103
2.65 -0.208847
2.66 -0.229925
2.67 -0.25385
2.68 -0.279412
2.69 -0.305448
2.7 -0.330583
2.71 -0.353803
2.72 -0.373725
2.73 -0.38978
2.74 -0.40137
2.75 -0.408095
2.76 -0.41059
2.77 -0.408707
2.78 -0.403897
2.79 -0.396936
2.8 -0.389215
2.81 -0.38197
2.82 -0.376725
2.83 -0.374313
2.84 -0.376113
2.85 -0.382417
2.86 -0.393593
2.87 -0.409721
2.88 -0.429859
2.89 -0.453715
2.9 -0.479597
2.91 -0.506337
2.92 -0.532291
2.93 -0.556104
2.94 -0.575917
2.95 -0.591109
2.96 -0.600099
2.97 -0.602885
2.98 -0.59924
2.99 -0.589291
3 -0.574382
3.01 -0.554997
3.02 -0.53325
3.03 -0.510568
3.04 -0.488876
3.05 -0.469706
3.06 -0.455124
3.07 -0.445735
3.08 -0.443196
3.09 -0.447376
3.1 -0.458392
3.11 -0.475948
3.12 -0.498504
3.13 -0.525361
3.14 -0.554268
3.15 -0.583651
3.16 -0.611535
3.17 -0.636433
3.18 -0.656358
3.19 -0.670949
3.2 -0.678848
3.21 -0.680556
3.22 -0.676375
3.23 -0.667158
3.24 -0.654711
3.25 -0.640541
3.26 -0.626903
3.27 -0.615896
3.28 -0.609601
3.29 -0.609393
3.3 -0.61747
3.31 -0.633499
3.32 -0.658736
3.33 -0.691882
3.34 -0.732036
3.35 -0.777565
3.36 -0.825926
3.37 -0.874665
3.38 -0.921022
3.39 -0.962135
3.4 -0.995488
3.41 -1.01959
3.42 -1.03178
3.43 -1.033
3.44 -1.02191
3.45 -1.0006
3.46 -0.970531
3.47 -0.93407
3.48 -0.894538
3.49 -0.855134
3.5 -0.819089
3.51 -0.789659
3.52 -0.769332
3.53 -0.759183
3.54 -0.761012
3.55 -0.772597
3.56 -0.793091
3.57 -0.818162
3.58 -0.843434
3.59 -0.862352
3.6 -0.869467
3.61 -0.854325
3.62 -0.812612
3.63 -0.73471
3.64 -0.614336
3.65 -0.448464
3.66 -0.22748
3.67 0.0432237
3.68 0.370056
3.69 0.745479
3.7 1.16571
3.71 1.62439
3.72 2.10895
3.73 2.61066
3.74 3.11422
3.75 3.60622
3.76 4.07156
3.77 4.49874
3.78 4.86834
3.79 5.17686
3.8 5.40575
3.81 5.5541
3.82 5.61583
3.83 5.58518
3.84 5.47273
3.85 5.26924
3.86 4.9945
3.87 4.65101
3.88 4.25236
3.89 3.81259
3.9 3.34237
3.91 2.8587
3.92 2.37399
3.93 1.90143
3.94 1.45194
3.95 1.03721
3.96 0.660483
3.97 0.334365
3.98 0.0546906
3.99 -0.173491
4 -0.352631
4.01 -0.487803
4.02 -0.579134
4.03 -0.637772
4.04 -0.666101
4.05 -0.673675
4.06 -0.666371
4.07 -0.65049
4.08 -0.631907
4.09 -0.615399
4.1 -0.604107
4.11 -0.600724
4.12 -0.606276
4.13 -0.620353
4.14 -0.64285
4.15 -0.671004
4.16 -0.703123
4.17 -0.736104
4.18 -0.767343
4.19 -0.793769
4.2 -0.813715
4.21 -0.823823
4.22 -0.824063
4.23 -0.812714
4.24 -0.789748
4.25 -0.755996
4.26 -0.711118
4.27 -0.657712
4.28 -0.596194
4.29 -0.528939
4.3 -0.45741
4.31 -0.383199
4.32 -0.307882
4.33 -0.232664
4.34 -0.158483
4.35 -0.0861025
4.36 -0.0159686
4.37 0.0518058
4.38 0.116833
4.39 0.179456
4.4 0.239334
4.41 0.296605
4.42 0.351027
4.43 0.402061
4.44 0.449564
4.45 0.492106
4.46 0.529501
4.47 0.560304
4.48 0.583513
4.49 0.598556
4.5 0.603415
4.51 0.598725
4.52 0.582687
4.53 0.556043
4.54 0.518749
4.55 0.4709
4.56 0.414395
4.57 0.349166
4.58 0.277947
4.59 0.201898
4.6 0.123129
4.61 0.0435111
4.62 -0.0349315
4.63 -0.110727
4.64 -0.181949
4.65 -0.247711
4.66 -0.307086
4.67 -0.359191
4.68 -0.404628
4.69 -0.442464
4.7 -0.474242
4.71 -0.500126
4.72 -0.521202
4.73 -0.538616
4.74 -0.553114
4.75 -0.566014
4.76 -0.578029
4.77 -0.589984
4.78 -0.602377
4.79 -0.615594
4.8 -0.629655
4.81 -0.644616
4.82 -0.660111
4.83 -0.67583
4.84 -0.691293
4.85 -0.706092
4.86 -0.719642
4.87 -0.731754
4.88 -0.741949
4.89 -0.750228
4.9 -0.756546
4.91 -0.760944
4.92 -0.763841
4.93 -0.765372
4.94 -0.766138
4.95 -0.766504
4.96 -0.766957
4.97 -0.767862
4.98 -0.769665
4.99 -0.772488
5 -0.776628
5.01 -0.782029
5.02 -0.788666
5.03 -0.796447
5.04 -0.805068
5.05 -0.814384
5.06 -0.824022
5.07 -0.833733
5.08 -0.843217
5.09 -0.852252
5.1 -0.860506
5.11 -0.867859
5.12 -0.873934
5.13 -0.878542
5.14 -0.88134
5.15 -0.881765
5.16 -0.879583
5.17 -0.873592
5.18 -0.863518
5.19 -0.848084
5.2 -0.826249
5.21 -0.797312
5.22 -0.75911
5.23 -0.711826
5.24 -0.653231
5.25 -0.583429
5.26 -0.501793
5.27 -0.407634
5.28 -0.302575
5.29 -0.185746
5.3 -0.0601687
5.31 0.0730286
5.32 0.211061
5.33 0.351037
5.34 0.489425
5.35 0.623059
5.36 0.747432
5.37 0.859456
5.38 0.95565
5.39 1.03171
5.4 1.08734
5.41 1.1168
5.42 1.12243
5.43 1.1017
5.44 1.05548
5.45 0.986206
5.46 0.893429
5.47 0.782927
5.48 0.655924
5.49 0.517766
5.5 0.372192
5.51 0.223603
5.52 0.0761042
5.53 -0.0656432
5.54 -0.198929
5.55 -0.32014
5.56 -0.426985
5.57 -0.518758
5.58 -0.592673
5.59 -0.651013
5.6 -0.692324
5.61 -0.719163
5.62 -0.732839
5.63 -0.734877
5.64 -0.728432
5.65 -0.714549
5.66 -0.696311
5.67 -0.675135
5.68 -0.65271
5.69 -0.630126
5.7 -0.608168
5.71 -0.58701
5.72 -0.56663
5.73 -0.546492
5.74 -0.525944
5.75 -0.504024
5.76 -0.480082
5.77 -0.452868
5.78 -0.42221
5.79 -0.387463
5.8 -0.348659
5.81 -0.306308
5.82 -0.260785
5.83 -0.213522
5.84 -0.165723
5.85 -0.1191
5.86 -0.075304
5.87 -0.0364635
5.88 -0.00359638
5.89 0.0205651
5.9 0.0359682
5.91 0.0409961
5.92 0.0352853
5.93 0.0193513
5.94 -0.00760741
5.95 -0.0433453
5.96 -0.087781
5.97 -0.138698
5.98 -0.194612
5.99 -0.253794
6 -0.314289
6.01 -0.374411
6.02 -0.432725
6.03 -0.487883
6.04 -0.538942
6.05 -0.585589
6.06 -0.627012
6.07 -0.663993
6.08 -0.696337
6.09 -0.725016
6.1 -0.75067
6.11 -0.774038
6.12 -0.796078
6.13 -0.817375
6.14 -0.838595
6.15 -0.8601
6.16 -0.882071
6.17 -0.904448
6.18 -0.927007
6.19 -0.949343
6.2 -0.970888
6.21 -0.991108
6.22 -1.00946
6.23 -1.02529
6.24 -1.03851
6.25 -1.04844
6.26 -1.05545
6.27 -1.05939
6.28 -1.06056
6.29 -1.05936
6.3 -1.05587
6.31 -1.05062
6.32 -1.04343
6.33 -1.03425
6.34 -1.02253
6.35 -1.00706
6.36 -0.986951
6.37 -0.95927
6.38 -0.922683
6.39 -0.873751
6.4 -0.809341
6.41 -0.72737
6.42 -0.621988
6.43 -0.493478
6.44 -0.336099
6.45 -0.149994
6.46 0.0663012
6.47 0.314602
6.48 0.590676
6.49 0.896712
6.5 1.22523
6.51 1.57353
6.52 1.93501
6.53 2.30274
6.54 2.66867
6.55 3.02519
6.56 3.36214
6.57 3.67209
6.58 3.94708
6.59 4.17689
6.6 4.36046
6.61 4.4842
6.62 4.55252
6.63 4.55882
6.64 4.50363
6.65 4.39163
6.66 4.21934
6.67 3.99941
6.68 3.73208
6.69 3.42859
6.7 3.09617
6.71 2.74299
6.72 2.37928
6.73 2.01318
6.74 1.65327
6.75 1.30734
6.76 0.98232
6.77 0.681933
6.78 0.413968
6.79 0.176672
6.8 -0.0244943
6.81 -0.192113
6.82 -0.326741
6.83 -0.428802
6.84 -0.504273
6.85 -0.552514
6.86 -0.580876
6.87 -0.591453
6.88 -0.588561
6.89 -0.576164
6.9 -0.556715
6.91 -0.533751
6.92 -0.509113
6.93 -0.484677
6.94 -0.461535
6.95 -0.440556
6.96 -0.42181
6.97 -0.405718
6.98 -0.391779
6.99 -0.379946
7 -0.369948
7.01 -0.361548
7.02 -0.354934
7.03 -0.350011
7.04 -0.347336
7.05 -0.34724
7.06 -0.350308
7.07 -0.357443
7.08 -0.368797
7.09 -0.385717
7.1 -0.407888
7.11 -0.435952
7.12 -0.46981
7.13 -0.508865
7.14 -0.553097
7.15 -0.600982
7.16 -0.65184
7.17 -0.7041
7.18 -0.756461
7.19 -0.807318
7.2 -0.855573
7.21 -0.899378
7.22 -0.93828
7.23 -0.971132
7.24 -0.9975
7.25 -1.01763
7.26 -1.03096
7.27 -1.0389
7.28 -1.04155
7.29 -1.04032
7.3 -1.03617
7.31 -1.03016
7.32 -1.02339
7.33 -1.01671
7.34 -1.01069
7.35 -1.00564
7.36 -1.00144
7.37 -0.99764
7.38 -0.993305
7.39 -0.987372
7.4 -0.978092
7.41 -0.963947
7.42 -0.943207
7.43 -0.91349
7.44 -0.874229
7.45 -0.822204
7.46 -0.757982
7.47 -0.679905
7.48 -0.587894
7.49 -0.483032
7.5 -0.364685
7.51 -0.23605
7.52 -0.0978324
7.53 0.0467428
7.54 0.195135
7.55 0.344156
7.56 0.490842
7.57 0.631169
7.58 0.762839
7.59 0.882316
7.6 0.986882
7.61 1.07537
7.62 1.1437
7.63 1.19343
7.64 1.22144
7.65 1.22917
7.66 1.21682
7.67 1.18423
7.68 1.13478
7.69 1.06765
7.7 0.987206
7.71 0.894602
7.72 0.792613
7.73 0.684073
7.74 0.571071
7.75 0.456612
7.76 0.343026
7.77 0.232641
7.78 0.12745
7.79 0.0298693
7.8 -0.0594255
7.81 -0.137509
7.82 -0.204753
7.83 -0.259521
7.84 -0.301392
7.85 -0.330944
7.86 -0.346741
7.87 -0.351092
7.88 -0.343338
7.89 -0.325495
7.9 -0.298768
7.91 -0.264469
7.92 -0.225094
7.93 -0.18208
7.94 -0.138039
7.95 -0.0950007
7.96 -0.0552847
7.97 -0.0205443
7.98 0.00644773
7.99 0.0252231
8 0.0334097
8.01 0.0308395
8.02 0.0169906
8.03 -0.00882496
8.04 -0.0449354
8.05 -0.0920796
8.06 -0.147572
8.07 -0.210544
8.08 -0.278955
8.09 -0.350698
8.1 -0.423865
8.11 -0.496353
8.12 -0.566146
8.13 -0.631727
8.14 -0.691827
8.15 -0.745044
8.16 -0.791607
8.17 -0.830243
8.18 -0.862216
8.19 -0.88756
8.2 -0.90724
8.21 -0.922506
8.22 -0.934028
8.23 -0.943314
8.24 -0.950997
8.25 -0.957844
8.26 -0.964092
8.27 -0.969514
8.28 -0.973605
8.29 -0.97485
8.3 -0.971969
8.31 -0.962625
8.32 -0.944242
8.33 -0.91496
8.34 -0.870213
8.35 -0.809564
8.36 -0.728463
8.37 -0.62625
8.38 -0.501427
8.39 -0.351815
8.4 -0.18017
8.41 0.0160136
8.42 0.23161
8.43 0.465326
8.44 0.712938
8.45 0.969507
8.46 1.23023
8.47 1.4891
8.48 1.73964
8.49 1.97609
8.5 2.19279
8.51 2.38236
8.52 2.54322
8.53 2.66599
8.54 2.75234
8.55 2.79742
8.56 2.8004
8.57 2.76394
8.58 2.68435
8.59 2.56984
8.6 2.41952
8.61 2.24039
8.62 2.03694
8.63 1.81381
8.64 1.57835
8.65 1.33506
8.66 1.0906
8.67 0.850036
8.68 0.61855
8.69 0.399355
8.7 0.197975
8.71 0.0144225
8.72 -0.147275
8.73 -0.287753
8.74 -0.406855
8.75 -0.504057
8.76 -0.582952
8.77 -0.642629
8.78 -0.68781
8.79 -0.71981
8.8 -0.741541
8.81 -0.755967
8.82 -0.764936
8.83 -0.771319
8.84 -0.776772
8.85 -0.782994
8.86 -0.791082
8.87 -0.80202
8.88 -0.815856
8.89 -0.833117
8.9 -0.853106
8.91 -0.875551
8.92 -0.899719
8.93 -0.924818
8.94 -0.950065
8.95 -0.974712
8.96 -0.997985
8.97 -1.0194
8.98 -1.03858
8.99 -1.05514
9 -1.06929
9.01 -1.08075
9.02 -1.09008
9.03 -1.09742
9.04 -1.10318
9.05 -1.10778
9.06 -1.11144
9.07 -1.11454
9.08 -1.11711
9.09 -1.1192
9.1 -1.12062
9.11 -1.12097
9.12 -1.1199
9.13 -1.1165
9.14 -1.11032
9.15 -1.10038
9.16 -1.08583
9.17 -1.06627
9.18 -1.04026
9.19 -1.0082
9.2 -0.968993
9.21 -0.923069
9.22 -0.870584
9.23 -0.811675
9.24 -0.747748
9.25 -0.679162
9.26 -0.607811
9.27 -0.534935
9.28 -0.462322
9.29 -0.391506
9.3 -0.324702
9.31 -0.262937
9.32 -0.208402
9.33 -0.161961
9.34 -0.124596
9.35 -0.0976608
9.36 -0.0803285
9.37 -0.0741309
9.38 -0.0772553
9.39 -0.0896719
9.4 -0.110197
9.41 -0.13715
9.42 -0.169684
9.43 -0.205491
9.44 -0.243283
9.45 -0.281243
9.46 -0.317986
9.47 -0.351977
9.48 -0.382557
9.49 -0.408311
9.5 -0.42939
9.51 -0.445319
9.52 -0.456294
9.53 -0.463021
9.54 -0.465697
9.55 -0.465696
9.56 -0.463684
9.57 -0.460868
9.58 -0.458183
9.59 -0.456681
9.6 -0.45696
9.61 -0.460012
9.62 -0.465917
9.63 -0.475092
9.64 -0.487541
9.65 -0.502903
9.66 -0.521198
9.67 -0.541593
9.68 -0.563824
9.69 -0.587205
9.7 -0.611262
9.71 -0.635533
9.72 -0.659666
9.73 -0.683355
9.74 -0.706504
9.75 -0.729009
9.76 -0.750856
9.77 -0.772077
9.78 -0.79251
9.79 -0.812086
9.8 -0.830312
9.81 -0.846624
9.82 -0.860158
9.83 -0.869321
9.84 -0.873123
9.85 -0.868498
9.86 -0.854201
9.87 -0.82706
9.88 -0.784147
9.89 -0.723948
9.9 -0.640968
9.91 -0.535942
9.92 -0.40389
9.93 -0.24488
9.94 -0.0579417
9.95 0.158972
9.96 0.401949
9.97 0.673399
9.98 0.967141
9.99 1.28134
10 1.6111
10.01 1.95067
10.02 2.2946
10.03 2.6361
10.04 2.96794
10.05 3.28359
10.06 3.57681
10.07 3.83905
10.08 4.06856
10.09 4.25458
10.1 4.39862
10.11 4.49497
10.12 4.54198
10.13 4.54249
10.14 4.49108
10.15 4.39695
10.16 4.25803
10.17 4.08164
10.18 3.87236
10.19 3.63431
10.2 3.37614
10.21 3.10152
10.22 2.8187
10.23 2.53282
10.24 2.24993
10.25 1.9743
10.26 1.71187
10.27 1.46415
10.28 1.23569
10.29 1.02712
10.3 0.839353
10.31 0.673949
10.32 0.52793
10.33 0.403114
10.34 0.295174
10.35 0.203317
10.36 0.125002
10.37 0.057142
10.38 -0.00163396
10.39 -0.0548528
10.4 -0.104065
10.41 -0.15156
10.42 -0.198849
10.43 -0.247356
10.44 -0.297785
10.45 -0.351065
10.46 -0.407048
10.47 -0.46581
10.48 -0.526911
10.49 -0.589627
10.5 -0.653231
10.51 -0.716674
10.52 -0.778853
10.53 -0.838708
10.54 -0.895238
10.55 -0.947077
10.56 -0.993899
10.57 -1.03401
10.58 -1.06758
10.59 -1.0937
10.6 -1.11204
10.61 -1.12301
10.62 -1.12568
10.63 -1.12144
10.64 -1.10988
10.65 -1.09209
10.66 -1.06873
10.67 -1.04035
10.68 -1.00836
10.69 -0.973232
10.7 -0.936349
10.71 -0.898532
10.72 -0.860807
10.73 -0.823965
10.74 -0.789047
10.75 -0.756455
10.76 -0.727078
10.77 -0.701199
10.78 -0.679135
10.79 -0.661397
10.8 -0.647607
10.81 -0.638419
10.82 -0.6332
10.83 -0.632098
10.84 -0.63492
10.85 -0.641215
10.86 -0.651211
10.87 -0.664168
10.88 -0.680214
10.89 -0.698912
10.9 -0.720049
10.91 -0.743534
10.92 -0.76889
10.93 -0.796133
10.94 -0.824748
10.95 -0.854523
10.96 -0.885068
10.97 -0.91597
10.98 -0.946771
10.99 -0.977025
11 -1.00615
11.01 -1.0337
11.02 -1.05922
11.03 -1.08208
11.04 -1.10224
11.05 -1.11895
11.06 -1.13248
11.07 -1.14256
11.08 -1.14931
11.09 -1.15316
11.1 -1.15409
11.11 -1.15294
11.12 -1.14996
11.13 -1.14582
11.14 -1.14097
11.15 -1.13581
11.16 -1.1306
11.17 -1.12538
11.18 -1.11995
11.19 -1.11383
11.2 -1.10616
11.21 -1.09606
11.22 -1.0816
11.23 -1.0618
11.24 -1.03412
11.25 -0.996996
11.26 -0.948583
11.27 -0.885948
11.28 -0.809102
11.29 -0.71419
11.3 -0.602388
11.31 -0.472064
11.32 -0.323275
11.33 -0.157924
11.34 0.0247261
11.35 0.220238
11.36 0.427365
11.37 0.641849
11.38 0.860074
11.39 1.07752
11.4 1.29014
11.41 1.49208
11.42 1.68004
11.43 1.84895
11.44 1.99452
11.45 2.11532
11.46 2.20473
11.47 2.26532
11.48 2.29245
11.49 2.28799
11.5 2.25268
11.51 2.18605
11.52 2.09372
11.53 1.97487
11.54 1.83622
11.55 1.68021
11.56 1.51126
11.57 1.33405
11.58 1.15213
11.59 0.969899
11.6 0.790949
11.61 0.61834
11.62 0.454437
11.63 0.302091
11.64 0.161268
11.65 0.0346715
11.66 -0.079196
11.67 -0.179772
11.68 -0.267805
11.69 -0.345116
11.7 -0.411672
11.71 -0.47038
11.72 -0.521814
11.73 -0.56795
11.74 -0.610038
11.75 -0.649059
11.76 -0.686159
11.77 -0.721681
11.78 -0.75609
11.79 -0.789272
11.8 -0.820862
11.81 -0.85043
11.82 -0.876735
11.83 -0.899261
11.84 -0.916388
11.85 -0.927181
11.86 -0.930553
11.87 -0.924688
11.88 -0.90969
11.89 -0.883154
11.9 -0.845811
11.91 -0.796569
11.92 -0.735256
11.93 -0.662871
11.94 -0.578382
11.95 -0.48427
11.96 -0.380505
11.97 -0.269156
11.98 -0.151814
11.99 -0.0301936
12 0.093307
12.01 0.216519
12.02 0.337151
12.03 0.452808
12.04 0.561001
12.05 0.660327
12.06 0.747262
12.07 0.821916
12.08 0.881378
12.09 0.925476
12.1 0.953697
12.11 0.964654
12.12 0.960497
12.13 0.939539
12.14 0.904831
12.15 0.856821
12.16 0.797298
12.17 0.7288
12.18 0.652416
12.19 0.571329
12.2 0.48715
12.21 0.402216
12.22 0.318265
12.23 0.23719
12.24 0.159875
12.25 0.0879905
12.26 0.0215052
12.27 -0.0390027
12.28 -0.0936178
12.29 -0.143126
12.3 -0.187551
12.31 -0.22844
12.32 -0.266356
12.33 -0.302533
12.34 -0.337867
12.35 -0.373222
12.36 -0.409169
12.37 -0.446209
