# xPDFsuite Configuration #
[PDF]
wavelength = 0.1432
dataformat = twotheta
inputfile = 1_1Pd_CeO2_cycle-00234.chi
backgroundfile = background-00000.chi
mode = xray
bgscale = 1.007
composition = CeO2
outputtype = gr
qmaxinst = 28.8974762299
qmin = 0.5
qmax = 27.9
rmax = 50.0
rmin = 0.0
rstep = 0.01
rpoly = 1.8657

[Misc]
inputdir = G:/SankarDec16/1Pd/Chi
savedir = D:/DATA/APS_CeO2/1Pd
backgroundfilefull = G:/SankarDec16/Background/background-00000.chi

#### start data
#S 1
#L r($\AA$)  G($\AA^{-2}$)
0 0
0.01 -0.00698091
0.02 -0.0134372
0.03 -0.0188284
0.04 -0.0227475
0.05 -0.0249675
0.06 -0.0251236
0.07 -0.0234573
0.08 -0.0198501
0.09 -0.0147639
0.1 -0.00851748
0.11 -0.0015999
0.12 0.00545407
0.13 0.0120459
0.14 0.0177488
0.15 0.0220418
0.16 0.0246179
0.17 0.025353
0.18 0.0239956
0.19 0.0208996
0.2 0.016075
0.21 0.0100595
0.22 0.00324946
0.23 -0.00380653
0.24 -0.0106038
0.25 -0.0164975
0.26 -0.021178
0.27 -0.0241679
0.28 -0.0252745
0.29 -0.0244823
0.3 -0.0216651
0.31 -0.017273
0.32 -0.0114443
0.33 -0.00476821
0.34 0.0022997
0.35 0.00917583
0.36 0.0154091
0.37 0.0203378
0.38 0.0237839
0.39 0.0253358
0.4 0.0249239
0.41 0.0226427
0.42 0.0184972
0.43 0.0130135
0.44 0.00645204
0.45 -0.000572853
0.46 -0.00756763
0.47 -0.0139401
0.48 -0.0193137
0.49 -0.0230406
0.5 -0.0250824
0.51 -0.025113
0.52 -0.0231896
0.53 -0.0195125
0.54 -0.0142187
0.55 -0.00788627
0.56 -0.000886168
0.57 0.0061701
0.58 0.0127737
0.59 0.0183507
0.6 0.0226172
0.61 0.0249688
0.62 0.0255096
0.63 0.024014
0.64 0.0206642
0.65 0.0157576
0.66 0.00955773
0.67 0.00266823
0.68 -0.00444594
0.69 -0.0112039
0.7 -0.0171052
0.71 -0.02162
0.72 -0.0245705
0.73 -0.0254237
0.74 -0.0244214
0.75 -0.0214489
0.76 -0.016805
0.77 -0.0108703
0.78 -0.00402208
0.79 0.00313855
0.8 0.0100756
0.81 0.0162659
0.82 0.0212415
0.83 0.0245426
0.84 0.0261055
0.85 0.0254944
0.86 0.0230762
0.87 0.0188519
0.88 0.0132204
0.89 0.00662434
0.9 -0.000467909
0.91 -0.00749104
0.92 -0.0138729
0.93 -0.0191796
0.94 -0.0230088
0.95 -0.0250057
0.96 -0.0252297
0.97 -0.0233873
0.98 -0.0199526
0.99 -0.0150612
1 -0.00920033
1.01 -0.00285556
1.02 0.00342085
1.03 0.00914347
1.04 0.0137237
1.05 0.0168612
1.06 0.0182547
1.07 0.0176979
1.08 0.015406
1.09 0.011287
1.1 0.00594239
1.11 -0.000303239
1.12 -0.00683783
1.13 -0.0131071
1.14 -0.0184021
1.15 -0.0223254
1.16 -0.0241866
1.17 -0.0238207
1.18 -0.0209848
1.19 -0.0155747
1.2 -0.00799268
1.21 0.00174832
1.22 0.0128332
1.23 0.0247828
1.24 0.0368095
1.25 0.0482247
1.26 0.0581207
1.27 0.0660512
1.28 0.0711267
1.29 0.0731587
1.3 0.0718088
1.31 0.0668695
1.32 0.0587998
1.33 0.047401
1.34 0.033635
1.35 0.0178617
1.36 0.00089876
1.37 -0.0165118
1.38 -0.0335397
1.39 -0.0495423
1.4 -0.063674
1.41 -0.0755368
1.42 -0.0846735
1.43 -0.0906907
1.44 -0.0938005
1.45 -0.0935433
1.46 -0.0905985
1.47 -0.0849869
1.48 -0.0771964
1.49 -0.0677122
1.5 -0.0568803
1.51 -0.0453049
1.52 -0.0333397
1.53 -0.0214135
1.54 -0.00982807
1.55 0.00112555
1.56 0.0113457
1.57 0.0205622
1.58 0.028851
1.59 0.0360804
1.6 0.0422579
1.61 0.0474093
1.62 0.0513956
1.63 0.0543274
1.64 0.0559945
1.65 0.0564316
1.66 0.0555228
1.67 0.0531246
1.68 0.0493255
1.69 0.0438411
1.7 0.0369353
1.71 0.0285402
1.72 0.0188537
1.73 0.00812465
1.74 -0.00343393
1.75 -0.0153915
1.76 -0.0273924
1.77 -0.0390132
1.78 -0.0498669
1.79 -0.0595226
1.8 -0.0678322
1.81 -0.0743202
1.82 -0.0791589
1.83 -0.0822085
1.84 -0.0836788
1.85 -0.0838765
1.86 -0.083085
1.87 -0.0818522
1.88 -0.0806395
1.89 -0.0799592
1.9 -0.0802612
1.91 -0.0820093
1.92 -0.0853017
1.93 -0.090552
1.94 -0.0974295
1.95 -0.10588
1.96 -0.115445
1.97 -0.125585
1.98 -0.135604
1.99 -0.144812
2 -0.152256
2.01 -0.157291
2.02 -0.159182
2.03 -0.157146
2.04 -0.15118
2.05 -0.14031
2.06 -0.12521
2.07 -0.105622
2.08 -0.0820454
2.09 -0.0551131
2.1 -0.0251871
2.11 0.00667617
2.12 0.0399681
2.13 0.073847
2.14 0.107765
2.15 0.141213
2.16 0.17398
2.17 0.205833
2.18 0.236998
2.19 0.267667
2.2 0.298273
2.21 0.32925
2.22 0.361194
2.23 0.394386
2.24 0.429321
2.25 0.465954
2.26 0.504197
2.27 0.543631
2.28 0.58348
2.29 0.622616
2.3 0.659836
2.31 0.693444
2.32 0.721734
2.33 0.743357
2.34 0.755698
2.35 0.758567
2.36 0.749409
2.37 0.728473
2.38 0.695156
2.39 0.649203
2.4 0.592565
2.41 0.524896
2.42 0.449609
2.43 0.368166
2.44 0.283485
2.45 0.198209
2.46 0.115451
2.47 0.0374047
2.48 -0.0327297
2.49 -0.0935726
2.5 -0.143488
2.51 -0.181054
2.52 -0.207305
2.53 -0.220772
2.54 -0.224375
2.55 -0.218748
2.56 -0.206348
2.57 -0.189619
2.58 -0.170951
2.59 -0.152951
2.6 -0.13817
2.61 -0.128387
2.62 -0.125175
2.63 -0.129894
2.64 -0.142091
2.65 -0.162787
2.66 -0.189922
2.67 -0.222792
2.68 -0.259369
2.69 -0.297655
2.7 -0.335411
2.71 -0.370744
2.72 -0.401336
2.73 -0.426021
2.74 -0.443648
2.75 -0.453344
2.76 -0.455952
2.77 -0.450964
2.78 -0.440625
2.79 -0.425981
2.8 -0.409179
2.81 -0.392188
2.82 -0.377333
2.83 -0.366125
2.84 -0.360741
2.85 -0.361857
2.86 -0.370205
2.87 -0.386108
2.88 -0.408288
2.89 -0.436522
2.9 -0.468321
2.91 -0.502072
2.92 -0.535359
2.93 -0.566152
2.94 -0.591758
2.95 -0.611137
2.96 -0.621989
2.97 -0.624217
2.98 -0.61746
2.99 -0.601892
3 -0.579425
3.01 -0.550829
3.02 -0.519144
3.03 -0.486501
3.04 -0.455715
3.05 -0.429007
3.06 -0.409413
3.07 -0.397725
3.08 -0.396328
3.09 -0.404899
3.1 -0.423486
3.11 -0.451476
3.12 -0.486474
3.13 -0.527188
3.14 -0.570221
3.15 -0.613032
3.16 -0.652589
3.17 -0.686653
3.18 -0.712107
3.19 -0.728573
3.2 -0.733935
3.21 -0.729128
3.22 -0.714702
3.23 -0.692061
3.24 -0.664133
3.25 -0.633301
3.26 -0.603166
3.27 -0.577031
3.28 -0.55818
3.29 -0.548781
3.3 -0.552282
3.31 -0.568185
3.32 -0.598479
3.33 -0.641171
3.34 -0.694897
3.35 -0.757184
3.36 -0.824108
3.37 -0.891977
3.38 -0.956517
3.39 -1.01339
3.4 -1.05875
3.41 -1.0903
3.42 -1.10404
3.43 -1.10134
3.44 -1.08022
3.45 -1.04385
3.46 -0.994482
3.47 -0.93578
3.48 -0.872821
3.49 -0.81067
3.5 -0.754316
3.51 -0.709009
3.52 -0.678855
3.53 -0.665817
3.54 -0.673442
3.55 -0.698674
3.56 -0.74146
3.57 -0.795873
3.58 -0.856384
3.59 -0.914613
3.6 -0.962671
3.61 -0.987502
3.62 -0.982328
3.63 -0.934694
3.64 -0.835933
3.65 -0.681612
3.66 -0.459304
3.67 -0.17531
3.68 0.178531
3.69 0.592884
3.7 1.06297
3.71 1.5807
3.72 2.13026
3.73 2.70055
3.74 3.27254
3.75 3.82955
3.76 4.35309
3.77 4.82928
3.78 5.23485
3.79 5.56622
3.8 5.80184
3.81 5.94176
3.82 5.97997
3.83 5.91131
3.84 5.74951
3.85 5.48619
3.86 5.14547
3.87 4.73236
3.88 4.264
3.89 3.75729
3.9 3.22649
3.91 2.69007
3.92 2.16349
3.93 1.66036
3.94 1.19235
3.95 0.771624
3.96 0.399474
3.97 0.0888351
3.98 -0.167752
3.99 -0.366578
4 -0.512669
4.01 -0.613357
4.02 -0.671087
4.03 -0.698715
4.04 -0.700629
4.05 -0.687183
4.06 -0.664984
4.07 -0.640809
4.08 -0.619594
4.09 -0.606284
4.1 -0.60217
4.11 -0.609072
4.12 -0.626459
4.13 -0.652584
4.14 -0.685897
4.15 -0.722762
4.16 -0.760339
4.17 -0.795274
4.18 -0.824741
4.19 -0.845695
4.2 -0.857278
4.21 -0.856474
4.22 -0.844514
4.23 -0.820543
4.24 -0.785624
4.25 -0.741397
4.26 -0.688562
4.27 -0.629893
4.28 -0.566449
4.29 -0.500305
4.3 -0.432701
4.31 -0.364737
4.32 -0.297066
4.33 -0.230102
4.34 -0.163735
4.35 -0.0977657
4.36 -0.0317552
4.37 0.0346897
4.38 0.102013
4.39 0.170235
4.4 0.239322
4.41 0.308676
4.42 0.377464
4.43 0.444248
4.44 0.507795
4.45 0.565436
4.46 0.616005
4.47 0.656885
4.48 0.686215
4.49 0.703052
4.5 0.704496
4.51 0.691862
4.52 0.663077
4.53 0.619922
4.54 0.563117
4.55 0.493832
4.56 0.415259
4.57 0.328664
4.58 0.237899
4.59 0.145353
4.6 0.0540382
4.61 -0.0337899
4.62 -0.115224
4.63 -0.189482
4.64 -0.254371
4.65 -0.310041
4.66 -0.35631
4.67 -0.393315
4.68 -0.422902
4.69 -0.445344
4.7 -0.463217
4.71 -0.477756
4.72 -0.490806
4.73 -0.5038
4.74 -0.518132
4.75 -0.534459
4.76 -0.553551
4.77 -0.575257
4.78 -0.59932
4.79 -0.625114
4.8 -0.651625
4.81 -0.677723
4.82 -0.702311
4.83 -0.724167
4.84 -0.742305
4.85 -0.756244
4.86 -0.765006
4.87 -0.769205
4.88 -0.768528
4.89 -0.764014
4.9 -0.756442
4.91 -0.746908
4.92 -0.736736
4.93 -0.727259
4.94 -0.71957
4.95 -0.714828
4.96 -0.713826
4.97 -0.716819
4.98 -0.724455
4.99 -0.735937
5 -0.751242
5.01 -0.769254
5.02 -0.789104
5.03 -0.809673
5.04 -0.82989
5.05 -0.848522
5.06 -0.864914
5.07 -0.878228
5.08 -0.888088
5.09 -0.89455
5.1 -0.897366
5.11 -0.897358
5.12 -0.894692
5.13 -0.890187
5.14 -0.884328
5.15 -0.877515
5.16 -0.870018
5.17 -0.861581
5.18 -0.851837
5.19 -0.839794
5.2 -0.824109
5.21 -0.803495
5.22 -0.775219
5.23 -0.73839
5.24 -0.68977
5.25 -0.628399
5.26 -0.552665
5.27 -0.460765
5.28 -0.35408
5.29 -0.230607
5.3 -0.0939572
5.31 0.0549053
5.32 0.21251
5.33 0.374984
5.34 0.537857
5.35 0.696447
5.36 0.844807
5.37 0.978413
5.38 1.09246
5.39 1.18112
5.4 1.24379
5.41 1.27309
5.42 1.27211
5.43 1.2379
5.44 1.17205
5.45 1.07809
5.46 0.956374
5.47 0.814595
5.48 0.655336
5.49 0.485721
5.5 0.310978
5.51 0.137202
5.52 -0.0308591
5.53 -0.186795
5.54 -0.328293
5.55 -0.451132
5.56 -0.553451
5.57 -0.635453
5.58 -0.69482
5.59 -0.735613
5.6 -0.757403
5.61 -0.764371
5.62 -0.759104
5.63 -0.744543
5.64 -0.724507
5.65 -0.701365
5.66 -0.677986
5.67 -0.656172
5.68 -0.637202
5.69 -0.621389
5.7 -0.608907
5.71 -0.598547
5.72 -0.589217
5.73 -0.579116
5.74 -0.566521
5.75 -0.549294
5.76 -0.526475
5.77 -0.495723
5.78 -0.457406
5.79 -0.410758
5.8 -0.356477
5.81 -0.296017
5.82 -0.230644
5.83 -0.16317
5.84 -0.0960837
5.85 -0.0323226
5.86 0.0253713
5.87 0.0736634
5.88 0.111397
5.89 0.134663
5.9 0.144179
5.91 0.138214
5.92 0.11717
5.93 0.0826075
5.94 0.0345919
5.95 -0.0231284
5.96 -0.0892491
5.97 -0.160284
5.98 -0.233686
5.99 -0.306579
6 -0.376825
6.01 -0.441695
6.02 -0.500428
6.03 -0.551611
6.04 -0.595008
6.05 -0.63126
6.06 -0.660369
6.07 -0.684421
6.08 -0.704302
6.09 -0.722031
6.1 -0.739102
6.11 -0.757122
6.12 -0.777073
6.13 -0.800203
6.14 -0.826442
6.15 -0.855945
6.16 -0.888057
6.17 -0.92177
6.18 -0.955826
6.19 -0.988788
6.2 -1.01892
6.21 -1.04493
6.22 -1.06564
6.23 -1.07976
6.24 -1.0876
6.25 -1.08811
6.26 -1.0828
6.27 -1.07214
6.28 -1.05762
6.29 -1.04088
6.3 -1.02349
6.31 -1.00701
6.32 -0.992837
6.33 -0.981569
6.34 -0.973334
6.35 -0.967521
6.36 -0.962473
6.37 -0.955538
6.38 -0.943644
6.39 -0.922383
6.4 -0.886815
6.41 -0.833122
6.42 -0.753159
6.43 -0.64576
6.44 -0.502747
6.45 -0.323171
6.46 -0.104359
6.47 0.156815
6.48 0.455236
6.49 0.794334
6.5 1.16433
6.51 1.56189
6.52 1.97835
6.53 2.40447
6.54 2.82986
6.55 3.24429
6.56 3.63471
6.57 3.99148
6.58 4.30449
6.59 4.56103
6.6 4.76002
6.61 4.88508
6.62 4.94227
6.63 4.92434
6.64 4.83299
6.65 4.67483
6.66 4.44728
6.67 4.16631
6.68 3.83391
6.69 3.46426
6.7 3.0669
6.71 2.65268
6.72 2.23329
6.73 1.81973
6.74 1.42076
6.75 1.04574
6.76 0.701833
6.77 0.392161
6.78 0.125121
6.79 -0.103261
6.8 -0.287735
6.81 -0.432953
6.82 -0.540857
6.83 -0.613412
6.84 -0.658284
6.85 -0.676247
6.86 -0.675823
6.87 -0.66018
6.88 -0.63437
6.89 -0.602565
6.9 -0.56784
6.91 -0.533086
6.92 -0.500276
6.93 -0.470521
6.94 -0.444401
6.95 -0.422203
6.96 -0.403234
6.97 -0.387426
6.98 -0.373723
6.99 -0.36172
7 -0.35091
7.01 -0.341023
7.02 -0.332231
7.03 -0.324712
7.04 -0.319263
7.05 -0.316586
7.06 -0.31761
7.07 -0.323663
7.08 -0.335066
7.09 -0.353604
7.1 -0.378864
7.11 -0.411604
7.12 -0.451564
7.13 -0.497846
7.14 -0.55017
7.15 -0.606483
7.16 -0.665647
7.17 -0.725578
7.18 -0.78452
7.19 -0.840331
7.2 -0.891782
7.21 -0.936475
7.22 -0.974172
7.23 -1.0036
7.24 -1.02456
7.25 -1.0377
7.26 -1.04275
7.27 -1.04179
7.28 -1.03545
7.29 -1.02576
7.3 -1.01424
7.31 -1.00259
7.32 -0.992142
7.33 -0.984396
7.34 -0.979759
7.35 -0.97876
7.36 -0.981114
7.37 -0.985946
7.38 -0.992116
7.39 -0.997785
7.4 -1.00069
7.41 -0.998556
7.42 -0.988996
7.43 -0.968825
7.44 -0.937095
7.45 -0.889664
7.46 -0.827088
7.47 -0.747227
7.48 -0.649928
7.49 -0.536529
7.5 -0.406232
7.51 -0.263045
7.52 -0.107855
7.53 0.0553077
7.54 0.223284
7.55 0.392139
7.56 0.558221
7.57 0.716637
7.58 0.864606
7.59 0.997892
7.6 1.11328
7.61 1.20945
7.62 1.28165
7.63 1.33183
7.64 1.35648
7.65 1.35744
7.66 1.33511
7.67 1.28953
7.68 1.22479
7.69 1.14019
7.7 1.04092
7.71 0.928528
7.72 0.806381
7.73 0.677809
7.74 0.545489
7.75 0.412776
7.76 0.282579
7.77 0.157497
7.78 0.0398425
7.79 -0.0675449
7.8 -0.164091
7.81 -0.246294
7.82 -0.314867
7.83 -0.367949
7.84 -0.405223
7.85 -0.427563
7.86 -0.433439
7.87 -0.425802
7.88 -0.404094
7.89 -0.370914
7.9 -0.327897
7.91 -0.276882
7.92 -0.220905
7.93 -0.162053
7.94 -0.103386
7.95 -0.0475327
7.96 0.00270099
7.97 0.0454435
7.98 0.0772631
7.99 0.0979582
8 0.104739
8.01 0.0977767
8.02 0.0767459
8.03 0.041208
8.04 -0.00644816
8.05 -0.0665992
8.06 -0.135706
8.07 -0.212266
8.08 -0.293478
8.09 -0.376676
8.1 -0.459101
8.11 -0.538495
8.12 -0.612194
8.13 -0.678726
8.14 -0.736822
8.15 -0.785142
8.16 -0.824587
8.17 -0.854153
8.18 -0.876063
8.19 -0.891055
8.2 -0.901023
8.21 -0.907958
8.22 -0.913631
8.23 -0.919872
8.24 -0.928229
8.25 -0.939547
8.26 -0.954179
8.27 -0.971948
8.28 -0.991536
8.29 -1.01118
8.3 -1.0283
8.31 -1.03963
8.32 -1.04124
8.33 -1.03012
8.34 -0.999986
8.35 -0.949699
8.36 -0.873051
8.37 -0.7689
8.38 -0.63516
8.39 -0.46895
8.4 -0.273948
8.41 -0.0470661
8.42 0.204781
8.43 0.479594
8.44 0.771536
8.45 1.07396
8.46 1.38017
8.47 1.68241
8.48 1.97202
8.49 2.24172
8.5 2.48443
8.51 2.69091
8.52 2.8598
8.53 2.97972
8.54 3.05372
8.55 3.07657
8.56 3.04839
8.57 2.97344
8.58 2.84874
8.59 2.68507
8.6 2.48298
8.61 2.25171
8.62 1.99754
8.63 1.72724
8.64 1.44923
8.65 1.17027
8.66 0.897166
8.67 0.63612
8.68 0.392559
8.69 0.169095
8.7 -0.0282428
8.71 -0.201319
8.72 -0.346357
8.73 -0.465709
8.74 -0.560448
8.75 -0.631405
8.76 -0.683609
8.77 -0.71748
8.78 -0.738723
8.79 -0.749646
8.8 -0.753852
8.81 -0.754449
8.82 -0.753938
8.83 -0.754504
8.84 -0.757945
8.85 -0.765187
8.86 -0.77677
8.87 -0.793058
8.88 -0.813245
8.89 -0.837239
8.9 -0.863663
8.91 -0.891711
8.92 -0.920219
8.93 -0.948237
8.94 -0.974662
8.95 -0.999015
8.96 -1.0205
8.97 -1.039
8.98 -1.05446
8.99 -1.06685
9 -1.07679
9.01 -1.08442
9.02 -1.09056
9.03 -1.09564
9.04 -1.10024
9.05 -1.10479
9.06 -1.10961
9.07 -1.11481
9.08 -1.12035
9.09 -1.12593
9.1 -1.13112
9.11 -1.13516
9.12 -1.13744
9.13 -1.13666
9.14 -1.13224
9.15 -1.12294
9.16 -1.10779
9.17 -1.0864
9.18 -1.0572
9.19 -1.02085
9.2 -0.976248
9.21 -0.924082
9.22 -0.864703
9.23 -0.798463
9.24 -0.727031
9.25 -0.650997
9.26 -0.572466
9.27 -0.492891
9.28 -0.414246
9.29 -0.338157
9.3 -0.267081
9.31 -0.201999
9.32 -0.1453
9.33 -0.0978229
9.34 -0.0605869
9.35 -0.0350384
9.36 -0.0202113
9.37 -0.0177979
9.38 -0.0257821
9.39 -0.0441502
9.4 -0.0716127
9.41 -0.106314
9.42 -0.147336
9.43 -0.192083
9.44 -0.239092
9.45 -0.286258
9.46 -0.331936
9.47 -0.374249
9.48 -0.41234
9.49 -0.444352
9.5 -0.470346
9.51 -0.489545
9.52 -0.501994
9.53 -0.508437
9.54 -0.508826
9.55 -0.504887
9.56 -0.497243
9.57 -0.487462
9.58 -0.476758
9.59 -0.46651
9.6 -0.457751
9.61 -0.45187
9.62 -0.449327
9.63 -0.450926
9.64 -0.457006
9.65 -0.467352
9.66 -0.482362
9.67 -0.501049
9.68 -0.523345
9.69 -0.548365
9.7 -0.575502
9.71 -0.604169
9.72 -0.633658
9.73 -0.663548
9.74 -0.693401
9.75 -0.722951
9.76 -0.752005
9.77 -0.780484
9.78 -0.80817
9.79 -0.834995
9.8 -0.860512
9.81 -0.884233
9.82 -0.905369
9.83 -0.922413
9.84 -0.934367
9.85 -0.938159
9.86 -0.932373
9.87 -0.913614
9.88 -0.878573
9.89 -0.825349
9.9 -0.747681
9.91 -0.645921
9.92 -0.514124
9.93 -0.351837
9.94 -0.157482
9.95 0.0718706
9.96 0.33212
9.97 0.626683
9.98 0.948611
9.99 1.29614
10 1.6637
10.01 2.04449
10.02 2.43218
10.03 2.81832
10.04 3.19414
10.05 3.55136
10.06 3.88211
10.07 4.17567
10.08 4.42951
10.09 4.63024
10.1 4.77948
10.11 4.87017
10.12 4.90038
10.13 4.87381
10.14 4.78436
10.15 4.64374
10.16 4.4504
10.17 4.21408
10.18 3.94134
10.19 3.6386
10.2 3.31677
10.21 2.98225
10.22 2.64494
10.23 2.31219
10.24 1.99164
10.25 1.68799
10.26 1.40918
10.27 1.15523
10.28 0.93157
10.29 0.737233
10.3 0.571973
10.31 0.436132
10.32 0.324298
10.33 0.236857
10.34 0.167095
10.35 0.112442
10.36 0.0684832
10.37 0.0309994
10.38 -0.00323322
10.39 -0.0376531
10.4 -0.0748897
10.41 -0.116747
10.42 -0.164358
10.43 -0.218727
10.44 -0.279043
10.45 -0.345585
10.46 -0.416517
10.47 -0.490809
10.48 -0.566722
10.49 -0.642634
10.5 -0.716631
10.51 -0.787491
10.52 -0.853426
10.53 -0.913575
10.54 -0.967148
10.55 -1.01307
10.56 -1.05192
10.57 -1.08251
10.58 -1.10602
10.59 -1.12224
10.6 -1.13165
10.61 -1.13511
10.62 -1.13235
10.63 -1.12469
10.64 -1.11196
10.65 -1.09488
10.66 -1.07376
10.67 -1.04866
10.68 -1.02027
10.69 -0.98838
10.7 -0.953754
10.71 -0.916582
10.72 -0.877389
10.73 -0.836842
10.74 -0.79556
10.75 -0.754428
10.76 -0.714406
10.77 -0.676459
10.78 -0.641537
10.79 -0.61099
10.8 -0.58521
10.81 -0.565928
10.82 -0.553066
10.83 -0.54758
10.84 -0.549806
10.85 -0.559292
10.86 -0.576834
10.87 -0.600877
10.88 -0.631511
10.89 -0.667361
10.9 -0.707407
10.91 -0.750566
10.92 -0.795306
10.93 -0.840416
10.94 -0.884563
10.95 -0.926539
10.96 -0.965206
10.97 -1.00001
10.98 -1.02967
10.99 -1.05453
11 -1.07383
11.01 -1.08803
11.02 -1.09745
11.03 -1.10235
11.04 -1.1039
11.05 -1.10249
11.06 -1.09943
11.07 -1.09553
11.08 -1.09183
11.09 -1.0891
11.1 -1.08835
11.11 -1.08986
11.12 -1.09432
11.13 -1.10168
11.14 -1.11182
11.15 -1.12447
11.16 -1.13871
11.17 -1.15368
11.18 -1.168
11.19 -1.18015
11.2 -1.18822
11.21 -1.19074
11.22 -1.18458
11.23 -1.16892
11.24 -1.14044
11.25 -1.09786
11.26 -1.0395
11.27 -0.962543
11.28 -0.867959
11.29 -0.752077
11.3 -0.617212
11.31 -0.462345
11.32 -0.288398
11.33 -0.0980009
11.34 0.108752
11.35 0.326954
11.36 0.554642
11.37 0.787236
11.38 1.02083
11.39 1.25044
11.4 1.47228
11.41 1.67991
11.42 1.87049
11.43 2.03877
11.44 2.18055
11.45 2.29469
11.46 2.37432
11.47 2.42257
11.48 2.43469
11.49 2.4129
11.5 2.35817
11.51 2.27019
11.52 2.15511
11.53 2.01229
11.54 1.84908
11.55 1.66832
11.56 1.47506
11.57 1.27446
11.58 1.07089
11.59 0.86905
11.6 0.673359
11.61 0.487204
11.62 0.313302
11.63 0.155055
11.64 0.0120884
11.65 -0.11233
11.66 -0.220413
11.67 -0.311703
11.68 -0.387493
11.69 -0.45038
11.7 -0.500873
11.71 -0.54289
11.72 -0.57779
11.73 -0.608406
11.74 -0.636697
11.75 -0.664511
11.76 -0.693182
11.77 -0.723883
11.78 -0.756803
11.79 -0.792004
11.8 -0.828861
11.81 -0.866326
11.82 -0.90284
11.83 -0.936852
11.84 -0.966042
11.85 -0.988511
11.86 -1.00236
11.87 -1.00475
11.88 -0.995372
11.89 -0.970757
11.9 -0.931664
11.91 -0.876555
11.92 -0.805242
11.93 -0.719199
11.94 -0.617335
11.95 -0.503223
11.96 -0.377268
11.97 -0.242567
11.98 -0.101566
11.99 0.0429926
12 0.187963
12.01 0.330021
12.02 0.466462
12.03 0.594139
12.04 0.710106
12.05 0.813051
12.06 0.898806
12.07 0.968297
12.08 1.01845
12.09 1.04983
12.1 1.06248
12.11 1.05555
12.12 1.03212
12.13 0.991082
12.14 0.936312
12.15 0.868897
12.16 0.791274
12.17 0.706337
12.18 0.615865
12.19 0.522969
12.2 0.429695
12.21 0.338263
12.22 0.250336
12.23 0.167822
12.24 0.0911061
12.25 0.0218654
12.26 -0.0405065
12.27 -0.0956729
12.28 -0.144104
12.29 -0.186961
12.3 -0.224587
12.31 -0.258845
12.32 -0.290599
12.33 -0.321307
12.34 -0.352044
12.35 -0.383912
12.36 -0.417457
12.37 -0.453428
12.38 -0.49163
12.39 -0.531946
12.4 -0.573701
