# xPDFsuite Configuration #
[PDF]
wavelength = 0.1432
dataformat = twotheta
inputfile = 1_1Pd_CeO2_cycle-00095.chi
backgroundfile = background-00000.chi
mode = xray
bgscale = 1.007
composition = CeO2
outputtype = gr
qmaxinst = 28.8974762299
qmin = 0.5
qmax = 27.9
rmax = 50.0
rmin = 0.0
rstep = 0.01
rpoly = 1.8657

[Misc]
inputdir = G:/SankarDec16/1Pd/Chi
savedir = D:/DATA/APS_CeO2/1Pd
backgroundfilefull = G:/SankarDec16/Background/background-00000.chi

#### start data
#S 1
#L r($\AA$)  G($\AA^{-2}$)
0 0
0.01 -0.00687454
0.02 -0.0132312
0.03 -0.0185367
0.04 -0.0223895
0.05 -0.024566
0.06 -0.024707
0.07 -0.0230515
0.08 -0.0194842
0.09 -0.0144616
0.1 -0.00829968
0.11 -0.00148212
0.12 0.0054635
0.13 0.0119454
0.14 0.017544
0.15 0.021746
0.16 0.0242506
0.17 0.0249375
0.18 0.0235617
0.19 0.0204749
0.2 0.0156908
0.21 0.00974176
0.22 0.00302123
0.23 -0.00392772
0.24 -0.0106083
0.25 -0.016383
0.26 -0.0209504
0.27 -0.0238416
0.28 -0.0248708
0.29 -0.0240271
0.3 -0.0211914
0.31 -0.0168117
0.32 -0.0110302
0.33 -0.00443035
0.34 0.00253594
0.35 0.00929144
0.36 0.0153941
0.37 0.0201907
0.38 0.0235125
0.39 0.0249576
0.4 0.0244644
0.41 0.022132
0.42 0.0179737
0.43 0.0125123
0.44 0.00601223
0.45 -0.00091935
0.46 -0.00779353
0.47 -0.014026
0.48 -0.0192509
0.49 -0.0228306
0.5 -0.0247371
0.51 -0.0246553
0.52 -0.0226509
0.53 -0.0189291
0.54 -0.0136353
0.55 -0.00734283
0.56 -0.000426089
0.57 0.00651272
0.58 0.0129711
0.59 0.0183851
0.6 0.0224828
0.61 0.0246731
0.62 0.0250705
0.63 0.0234621
0.64 0.0200386
0.65 0.0151019
0.66 0.00892355
0.67 0.00210015
0.68 -0.00490125
0.69 -0.0115117
0.7 -0.0172391
0.71 -0.0215666
0.72 -0.0243298
0.73 -0.0250115
0.74 -0.0238642
0.75 -0.020787
0.76 -0.0160867
0.77 -0.010147
0.78 -0.00335221
0.79 0.00370647
0.8 0.0104933
0.81 0.0165
0.82 0.0212699
0.83 0.0243588
0.84 0.025718
0.85 0.0249307
0.86 0.0223734
0.87 0.018062
0.88 0.0124023
0.89 0.00583803
0.9 -0.00115698
0.91 -0.00803076
0.92 -0.0142141
0.93 -0.0192912
0.94 -0.0228739
0.95 -0.0246257
0.96 -0.0246217
0.97 -0.0225904
0.98 -0.019014
0.99 -0.0140433
1 -0.00817074
1.01 -0.00188076
1.02 0.00427104
1.03 0.00981567
1.04 0.0141701
1.05 0.0170546
1.06 0.0181837
1.07 0.0173715
1.08 0.0148481
1.09 0.0105442
1.1 0.00506713
1.11 -0.00124503
1.12 -0.00777823
1.13 -0.0139821
1.14 -0.0191483
1.15 -0.0228982
1.16 -0.024551
1.17 -0.0239631
1.18 -0.020909
1.19 -0.0153056
1.2 -0.00756764
1.21 0.00226895
1.22 0.0133884
1.23 0.0253004
1.24 0.0372196
1.25 0.0484652
1.26 0.0581342
1.27 0.065801
1.28 0.0705893
1.29 0.0723316
1.3 0.0707069
1.31 0.0655271
1.32 0.0572607
1.33 0.0457284
1.34 0.0318884
1.35 0.0161073
1.36 -0.000803334
1.37 -0.0181115
1.38 -0.0349943
1.39 -0.0508274
1.4 -0.0647766
1.41 -0.0764583
1.42 -0.0854253
1.43 -0.0912918
1.44 -0.0942696
1.45 -0.0938982
1.46 -0.0908455
1.47 -0.0851197
1.48 -0.0771898
1.49 -0.0675242
1.5 -0.0564421
1.51 -0.0445394
1.52 -0.0321447
1.53 -0.0196882
1.54 -0.00746894
1.55 0.00421539
1.56 0.0152366
1.57 0.0253034
1.58 0.0344474
1.59 0.0424934
1.6 0.0493969
1.61 0.0551404
1.62 0.0595142
1.63 0.0626135
1.64 0.0641595
1.65 0.0641884
1.66 0.0625675
1.67 0.0591496
1.68 0.054075
1.69 0.0470616
1.7 0.0384665
1.71 0.0282743
1.72 0.0167708
1.73 0.00428262
1.74 -0.0088741
1.75 -0.0222139
1.76 -0.0352759
1.77 -0.0476069
1.78 -0.0587736
1.79 -0.0683103
1.8 -0.0761158
1.81 -0.0816793
1.82 -0.085284
1.83 -0.0868275
1.84 -0.0866176
1.85 -0.0850549
1.86 -0.082528
1.87 -0.0796751
1.88 -0.0770718
1.89 -0.0752925
1.9 -0.0748537
1.91 -0.0762787
1.92 -0.0796395
1.93 -0.085409
1.94 -0.0931577
1.95 -0.102813
1.96 -0.113826
1.97 -0.12557
1.98 -0.137257
1.99 -0.148096
2 -0.15703
2.01 -0.163343
2.02 -0.16623
2.03 -0.164845
2.04 -0.159201
2.05 -0.148267
2.06 -0.132801
2.07 -0.112562
2.08 -0.0881318
2.09 -0.0602258
2.1 -0.0292959
2.11 0.00351066
2.12 0.0375842
2.13 0.0720187
2.14 0.106204
2.15 0.13958
2.16 0.171958
2.17 0.203066
2.18 0.233223
2.19 0.26266
2.2 0.291912
2.21 0.321509
2.22 0.352174
2.23 0.384284
2.24 0.418474
2.25 0.454774
2.26 0.493177
2.27 0.533346
2.28 0.574464
2.29 0.615489
2.3 0.655085
2.31 0.69153
2.32 0.722995
2.33 0.748
2.34 0.763786
2.35 0.770009
2.36 0.763936
2.37 0.745679
2.38 0.714499
2.39 0.669991
2.4 0.614102
2.41 0.546307
2.42 0.470134
2.43 0.387004
2.44 0.299924
2.45 0.211662
2.46 0.12542
2.47 0.0436056
2.48 -0.030433
2.49 -0.0951129
2.5 -0.148624
2.51 -0.189343
2.52 -0.218211
2.53 -0.233524
2.54 -0.238226
2.55 -0.23283
2.56 -0.219807
2.57 -0.20167
2.58 -0.180812
2.59 -0.160051
2.6 -0.14202
2.61 -0.128723
2.62 -0.121906
2.63 -0.123148
2.64 -0.132158
2.65 -0.150213
2.66 -0.175326
2.67 -0.206975
2.68 -0.243197
2.69 -0.281992
2.7 -0.321203
2.71 -0.358757
2.72 -0.392328
2.73 -0.420528
2.74 -0.442049
2.75 -0.455805
2.76 -0.462423
2.77 -0.461135
2.78 -0.454023
2.79 -0.441908
2.8 -0.426793
2.81 -0.410585
2.82 -0.395449
2.83 -0.383037
2.84 -0.375463
2.85 -0.373613
2.86 -0.378355
2.87 -0.390221
2.88 -0.408189
2.89 -0.432303
2.9 -0.460315
2.91 -0.490884
2.92 -0.521809
2.93 -0.551181
2.94 -0.576544
2.95 -0.596752
2.96 -0.609626
2.97 -0.61487
2.98 -0.611991
2.99 -0.600949
3 -0.583343
3.01 -0.559646
3.02 -0.532565
3.03 -0.503886
3.04 -0.476112
3.05 -0.451268
3.06 -0.432033
3.07 -0.419279
3.08 -0.415155
3.09 -0.41954
3.1 -0.432591
3.11 -0.453901
3.12 -0.481474
3.13 -0.514321
3.14 -0.549525
3.15 -0.584977
3.16 -0.618097
3.17 -0.646971
3.18 -0.66901
3.19 -0.683852
3.2 -0.689801
3.21 -0.687659
3.22 -0.677966
3.23 -0.662022
3.24 -0.642301
3.25 -0.621018
3.26 -0.601135
3.27 -0.585531
3.28 -0.576925
3.29 -0.577028
3.3 -0.588663
3.31 -0.611122
3.32 -0.645842
3.33 -0.690787
3.34 -0.744456
3.35 -0.804308
3.36 -0.866797
3.37 -0.928185
3.38 -0.98485
3.39 -1.03275
3.4 -1.06857
3.41 -1.09051
3.42 -1.09509
3.43 -1.08406
3.44 -1.05596
3.45 -1.01413
3.46 -0.961054
3.47 -0.900554
3.48 -0.83749
3.49 -0.777072
3.5 -0.723806
3.51 -0.682779
3.52 -0.657704
3.53 -0.650176
3.54 -0.66338
3.55 -0.693939
3.56 -0.741469
3.57 -0.799873
3.58 -0.863482
3.59 -0.923825
3.6 -0.973145
3.61 -0.998371
3.62 -0.99302
3.63 -0.944798
3.64 -0.845301
3.65 -0.690316
3.66 -0.467658
3.67 -0.183737
3.68 0.169451
3.69 0.582601
3.7 1.05098
3.71 1.56663
3.72 2.11397
3.73 2.68215
3.74 3.25243
3.75 3.80844
3.76 4.33198
3.77 4.80932
3.78 5.21751
3.79 5.55282
3.8 5.79385
3.81 5.94035
3.82 5.98609
3.83 5.92556
3.84 5.77202
3.85 5.51653
3.86 5.18279
3.87 4.77523
3.88 4.31053
3.89 3.80534
3.9 3.2734
3.91 2.73343
3.92 2.20062
3.93 1.689
3.94 1.21057
3.95 0.777945
3.96 0.393134
3.97 0.0697329
3.98 -0.198976
3.99 -0.408521
4 -0.56324
4.01 -0.67005
4.02 -0.730623
4.03 -0.758009
4.04 -0.756122
4.05 -0.735766
4.06 -0.70381
4.07 -0.667486
4.08 -0.632583
4.09 -0.604681
4.1 -0.586043
4.11 -0.579336
4.12 -0.584891
4.13 -0.601532
4.14 -0.628637
4.15 -0.66251
4.16 -0.700934
4.17 -0.740191
4.18 -0.777275
4.19 -0.808769
4.2 -0.832933
4.21 -0.846204
4.22 -0.848742
4.23 -0.838849
4.24 -0.816664
4.25 -0.783175
4.26 -0.738113
4.27 -0.684204
4.28 -0.621834
4.29 -0.553359
4.3 -0.480139
4.31 -0.403586
4.32 -0.325198
4.33 -0.245875
4.34 -0.16657
4.35 -0.087887
4.36 -0.0102981
4.37 0.065942
4.38 0.140342
4.39 0.212845
4.4 0.282779
4.41 0.349801
4.42 0.413206
4.43 0.471864
4.44 0.525357
4.45 0.571517
4.46 0.610195
4.47 0.639564
4.48 0.658643
4.49 0.6671
4.5 0.662939
4.51 0.647509
4.52 0.619334
4.53 0.579906
4.54 0.529785
4.55 0.469792
4.56 0.4023
4.57 0.328037
4.58 0.249858
4.59 0.169351
4.6 0.088672
4.61 0.00949185
4.62 -0.0661676
4.63 -0.137512
4.64 -0.202916
4.65 -0.262205
4.66 -0.315006
4.67 -0.361084
4.68 -0.40146
4.69 -0.435854
4.7 -0.465871
4.71 -0.491962
4.72 -0.515152
4.73 -0.536331
4.74 -0.556069
4.75 -0.575075
4.76 -0.593626
4.77 -0.611932
4.78 -0.629969
4.79 -0.647531
4.8 -0.664406
4.81 -0.680071
4.82 -0.694328
4.83 -0.706727
4.84 -0.71704
4.85 -0.725255
4.86 -0.731143
4.87 -0.735175
4.88 -0.737434
4.89 -0.738517
4.9 -0.738891
4.91 -0.739146
4.92 -0.739791
4.93 -0.741452
4.94 -0.744376
4.95 -0.748918
4.96 -0.75515
4.97 -0.762922
4.98 -0.772153
4.99 -0.782301
5 -0.792998
5.01 -0.803662
5.02 -0.813807
5.03 -0.822896
5.04 -0.830716
5.05 -0.836809
5.06 -0.841372
5.07 -0.844396
5.08 -0.846223
5.09 -0.847289
5.1 -0.848067
5.11 -0.849071
5.12 -0.850786
5.13 -0.853451
5.14 -0.857137
5.15 -0.861631
5.16 -0.866329
5.17 -0.87018
5.18 -0.871976
5.19 -0.869899
5.2 -0.861908
5.21 -0.846358
5.22 -0.819825
5.23 -0.781749
5.24 -0.728604
5.25 -0.660017
5.26 -0.574804
5.27 -0.471773
5.28 -0.353162
5.29 -0.217748
5.3 -0.0699432
5.31 0.0884977
5.32 0.253452
5.33 0.420724
5.34 0.585207
5.35 0.742557
5.36 0.88658
5.37 1.01333
5.38 1.11842
5.39 1.19662
5.4 1.24812
5.41 1.26628
5.42 1.25491
5.43 1.2118
5.44 1.13908
5.45 1.04059
5.46 0.917192
5.47 0.776259
5.48 0.620552
5.49 0.456644
5.5 0.289359
5.51 0.124237
5.52 -0.0346818
5.53 -0.181656
5.54 -0.314977
5.55 -0.431033
5.56 -0.528417
5.57 -0.607508
5.58 -0.666385
5.59 -0.708752
5.6 -0.734239
5.61 -0.7465
5.62 -0.74771
5.63 -0.740265
5.64 -0.727397
5.65 -0.710836
5.66 -0.693022
5.67 -0.675253
5.68 -0.658509
5.69 -0.643055
5.7 -0.628834
5.71 -0.615062
5.72 -0.600738
5.73 -0.584612
5.74 -0.565411
5.75 -0.541573
5.76 -0.512628
5.77 -0.476889
5.78 -0.43499
5.79 -0.386589
5.8 -0.332547
5.81 -0.27424
5.82 -0.213025
5.83 -0.151191
5.84 -0.0910115
5.85 -0.0348161
5.86 0.0151543
5.87 0.056183
5.88 0.0875489
5.89 0.106026
5.9 0.112482
5.91 0.105565
5.92 0.0857443
5.93 0.0544122
5.94 0.01164
5.95 -0.0394192
5.96 -0.0977478
5.97 -0.160497
5.98 -0.225638
5.99 -0.290916
6 -0.354582
6.01 -0.414557
6.02 -0.47015
6.03 -0.520257
6.04 -0.564628
6.05 -0.60367
6.06 -0.637298
6.07 -0.666994
6.08 -0.693291
6.09 -0.717599
6.1 -0.74091
6.11 -0.764256
6.12 -0.788327
6.13 -0.813804
6.14 -0.840673
6.15 -0.868907
6.16 -0.898
6.17 -0.927269
6.18 -0.955718
6.19 -0.982522
6.2 -1.00644
6.21 -1.02677
6.22 -1.04284
6.23 -1.05395
6.24 -1.06056
6.25 -1.06218
6.26 -1.0601
6.27 -1.05484
6.28 -1.04761
6.29 -1.03957
6.3 -1.03191
6.31 -1.02543
6.32 -1.02092
6.33 -1.01832
6.34 -1.01719
6.35 -1.01627
6.36 -1.0138
6.37 -1.0065
6.38 -0.991667
6.39 -0.964829
6.4 -0.921434
6.41 -0.858219
6.42 -0.767519
6.43 -0.64898
6.44 -0.495125
6.45 -0.305715
6.46 -0.0786913
6.47 0.188395
6.48 0.490327
6.49 0.829901
6.5 1.19774
6.51 1.59047
6.52 1.99985
6.53 2.41726
6.54 2.83282
6.55 3.23715
6.56 3.61795
6.57 3.9663
6.58 4.27273
6.59 4.5252
6.6 4.72272
6.61 4.84953
6.62 4.91124
6.63 4.9006
6.64 4.81883
6.65 4.67187
6.66 4.45655
6.67 4.18795
6.68 3.86722
6.69 3.50778
6.7 3.11849
6.71 2.70942
6.72 2.29222
6.73 1.87713
6.74 1.47344
6.75 1.09042
6.76 0.735739
6.77 0.413201
6.78 0.131768
6.79 -0.111551
6.8 -0.310681
6.81 -0.469415
6.82 -0.588956
6.83 -0.670425
6.84 -0.72132
6.85 -0.74157
6.86 -0.740084
6.87 -0.719844
6.88 -0.68626
6.89 -0.644104
6.9 -0.596824
6.91 -0.548294
6.92 -0.501136
6.93 -0.457325
6.94 -0.418145
6.95 -0.38468
6.96 -0.356539
6.97 -0.334443
6.98 -0.317172
6.99 -0.304586
7 -0.296007
7.01 -0.290754
7.02 -0.288835
7.03 -0.289637
7.04 -0.293551
7.05 -0.300582
7.06 -0.311124
7.07 -0.325911
7.08 -0.344957
7.09 -0.369493
7.1 -0.399127
7.11 -0.434416
7.12 -0.475183
7.13 -0.520774
7.14 -0.571023
7.15 -0.624379
7.16 -0.679976
7.17 -0.736174
7.18 -0.791554
7.19 -0.84434
7.2 -0.89347
7.21 -0.936854
7.22 -0.974193
7.23 -1.00428
7.24 -1.02678
7.25 -1.04214
7.26 -1.04992
7.27 -1.05187
7.28 -1.04835
7.29 -1.04113
7.3 -1.03149
7.31 -1.0209
7.32 -1.01067
7.33 -1.00211
7.34 -0.995771
7.35 -0.992216
7.36 -0.991331
7.37 -0.992459
7.38 -0.99466
7.39 -0.996361
7.4 -0.995535
7.41 -0.990104
7.42 -0.977838
7.43 -0.955708
7.44 -0.922735
7.45 -0.874883
7.46 -0.812534
7.47 -0.733486
7.48 -0.637413
7.49 -0.525471
7.5 -0.39668
7.51 -0.254879
7.52 -0.100786
7.53 0.0616624
7.54 0.229368
7.55 0.39843
7.56 0.565104
7.57 0.724455
7.58 0.873521
7.59 1.00791
7.6 1.12423
7.61 1.22099
7.62 1.2932
7.63 1.3428
7.64 1.36609
7.65 1.36495
7.66 1.3398
7.67 1.29075
7.68 1.2221
7.69 1.1333
7.7 1.02981
7.71 0.91342
7.72 0.787774
7.73 0.656386
7.74 0.522248
7.75 0.388719
7.76 0.258923
7.77 0.135381
7.78 0.0203573
7.79 -0.0834003
7.8 -0.175607
7.81 -0.25293
7.82 -0.316443
7.83 -0.364572
7.84 -0.397329
7.85 -0.415816
7.86 -0.418861
7.87 -0.409444
7.88 -0.387249
7.89 -0.354803
7.9 -0.313695
7.91 -0.26567
7.92 -0.213454
7.93 -0.158954
7.94 -0.104842
7.95 -0.0534372
7.96 -0.00719148
7.97 0.0322718
7.98 0.0619069
7.99 0.0815452
8 0.0886576
8.01 0.0833402
8.02 0.065214
8.03 0.0337397
8.04 -0.00903245
8.05 -0.0636834
8.06 -0.127104
8.07 -0.198141
8.08 -0.274398
8.09 -0.353495
8.1 -0.433134
8.11 -0.511105
8.12 -0.585078
8.13 -0.65352
8.14 -0.715132
8.15 -0.768508
8.16 -0.814165
8.17 -0.850929
8.18 -0.880509
8.19 -0.903265
8.2 -0.920611
8.21 -0.934167
8.22 -0.94515
8.23 -0.955248
8.24 -0.965557
8.25 -0.976893
8.26 -0.989552
8.27 -1.00331
8.28 -1.01722
8.29 -1.02958
8.3 -1.03837
8.31 -1.04068
8.32 -1.03309
8.33 -1.01308
8.34 -0.974933
8.35 -0.917836
8.36 -0.836127
8.37 -0.728853
8.38 -0.594123
8.39 -0.42927
8.4 -0.237678
8.41 -0.0164108
8.42 0.228183
8.43 0.494341
8.44 0.776731
8.45 1.06922
8.46 1.36567
8.47 1.6588
8.48 1.94056
8.49 2.20402
8.5 2.44244
8.51 2.64699
8.52 2.81615
8.53 2.93889
8.54 3.0178
8.55 3.04758
8.56 3.02792
8.57 2.96259
8.58 2.84817
8.59 2.69482
8.6 2.50252
8.61 2.27999
8.62 2.03308
8.63 1.768
8.64 1.49316
8.65 1.21478
8.66 0.939962
8.67 0.674833
8.68 0.425078
8.69 0.193742
8.7 -0.0128694
8.71 -0.195945
8.72 -0.351229
8.73 -0.480466
8.74 -0.584219
8.75 -0.66271
8.76 -0.720751
8.77 -0.75813
8.78 -0.780655
8.79 -0.790405
8.8 -0.791068
8.81 -0.786072
8.82 -0.778004
8.83 -0.769709
8.84 -0.763322
8.85 -0.760396
8.86 -0.761979
8.87 -0.769042
8.88 -0.781136
8.89 -0.798817
8.9 -0.820796
8.91 -0.846604
8.92 -0.875152
8.93 -0.90531
8.94 -0.936068
8.95 -0.966384
8.96 -0.995291
8.97 -1.02213
8.98 -1.04639
8.99 -1.06755
9 -1.0858
9.01 -1.10073
9.02 -1.11295
9.03 -1.12253
9.04 -1.12989
9.05 -1.13549
9.06 -1.13951
9.07 -1.14243
9.08 -1.14427
9.09 -1.14515
9.1 -1.14493
9.11 -1.14324
9.12 -1.13983
9.13 -1.13378
9.14 -1.12473
9.15 -1.11173
9.16 -1.09394
9.17 -1.07098
9.18 -1.04139
9.19 -1.00559
9.2 -0.962437
9.21 -0.91234
9.22 -0.855436
9.23 -0.791832
9.24 -0.722967
9.25 -0.64919
9.26 -0.572487
9.27 -0.49418
9.28 -0.416203
9.29 -0.340239
9.3 -0.268768
9.31 -0.202975
9.32 -0.145385
9.33 -0.0970563
9.34 -0.0591921
9.35 -0.0334575
9.36 -0.0189734
9.37 -0.0176291
9.38 -0.0273546
9.39 -0.0481573
9.4 -0.0786379
9.41 -0.116758
9.42 -0.161405
9.43 -0.209707
9.44 -0.259902
9.45 -0.309612
9.46 -0.356945
9.47 -0.399718
9.48 -0.437057
9.49 -0.466811
9.5 -0.489232
9.51 -0.503534
9.52 -0.509964
9.53 -0.50957
9.54 -0.502571
9.55 -0.491133
9.56 -0.476281
9.57 -0.45999
9.58 -0.443832
9.59 -0.429628
9.6 -0.41848
9.61 -0.412227
9.62 -0.411141
9.63 -0.416117
9.64 -0.427328
9.65 -0.444227
9.66 -0.467023
9.67 -0.494176
9.68 -0.525251
9.69 -0.558862
9.7 -0.593991
9.71 -0.629556
9.72 -0.664661
9.73 -0.698389
9.74 -0.73037
9.75 -0.760165
9.76 -0.787647
9.77 -0.812994
9.78 -0.836063
9.79 -0.857298
9.8 -0.876513
9.81 -0.893686
9.82 -0.9084
9.83 -0.919575
9.84 -0.926449
9.85 -0.926368
9.86 -0.917939
9.87 -0.897941
9.88 -0.86305
9.89 -0.811192
9.9 -0.73607
9.91 -0.637644
9.92 -0.509771
9.93 -0.35163
9.94 -0.161349
9.95 0.0643438
9.96 0.321538
9.97 0.613981
9.98 0.934748
9.99 1.28221
10 1.65078
10.01 2.03352
10.02 2.42407
10.03 2.81365
10.04 3.19333
10.05 3.55455
10.06 3.88917
10.07 4.1862
10.08 4.44296
10.09 4.64577
10.1 4.79626
10.11 4.88722
10.12 4.91673
10.13 4.8886
10.14 4.79672
10.15 4.65308
10.16 4.45623
10.17 4.21615
10.18 3.93958
10.19 3.63317
10.2 3.30799
10.21 2.97064
10.22 2.63111
10.23 2.29685
10.24 1.97557
10.25 1.67194
10.26 1.39397
10.27 1.14152
10.28 0.92003
10.29 0.72839
10.3 0.56625
10.31 0.433851
10.32 0.325631
10.33 0.241863
10.34 0.175705
10.35 0.124463
10.36 0.0835973
10.37 0.0488092
10.38 0.0167013
10.39 -0.0161764
10.4 -0.052612
10.41 -0.0944344
10.42 -0.142825
10.43 -0.198874
10.44 -0.261674
10.45 -0.3316
10.46 -0.406639
10.47 -0.485711
10.48 -0.566926
10.49 -0.648464
10.5 -0.728215
10.51 -0.804711
10.52 -0.875887
10.53 -0.940634
10.54 -0.99793
10.55 -1.04638
10.56 -1.08654
10.57 -1.11685
10.58 -1.13862
10.59 -1.15156
10.6 -1.15623
10.61 -1.15375
10.62 -1.14395
10.63 -1.12861
10.64 -1.10785
10.65 -1.08283
10.66 -1.05426
10.67 -1.02265
10.68 -0.988948
10.69 -0.953461
10.7 -0.916962
10.71 -0.879878
10.72 -0.842751
10.73 -0.806026
10.74 -0.770325
10.75 -0.735989
10.76 -0.703718
10.77 -0.673935
10.78 -0.647131
10.79 -0.624095
10.8 -0.604865
10.81 -0.590563
10.82 -0.580986
10.83 -0.576774
10.84 -0.578173
10.85 -0.584916
10.86 -0.597739
10.87 -0.615652
10.88 -0.638991
10.89 -0.666959
10.9 -0.69903
10.91 -0.734716
10.92 -0.772895
10.93 -0.812998
10.94 -0.853854
10.95 -0.894596
10.96 -0.934193
10.97 -0.971903
10.98 -1.0065
10.99 -1.03774
11 -1.06458
11.01 -1.08688
11.02 -1.10442
11.03 -1.11685
11.04 -1.12489
11.05 -1.12828
11.06 -1.12816
11.07 -1.12502
11.08 -1.1198
11.09 -1.11352
11.1 -1.10717
11.11 -1.10168
11.12 -1.09807
11.13 -1.09696
11.14 -1.09881
11.15 -1.10404
11.16 -1.11216
11.17 -1.12304
11.18 -1.13543
11.19 -1.14814
11.2 -1.15931
11.21 -1.16718
11.22 -1.16859
11.23 -1.16198
11.24 -1.14366
11.25 -1.11156
11.26 -1.06339
11.27 -0.995525
11.28 -0.90851
11.29 -0.797844
11.3 -0.665739
11.31 -0.510801
11.32 -0.333904
11.33 -0.138003
11.34 0.0767989
11.35 0.304778
11.36 0.543564
11.37 0.787771
11.38 1.03281
11.39 1.2729
11.4 1.50374
11.41 1.71807
11.42 1.91292
11.43 2.08264
11.44 2.22297
11.45 2.33312
11.46 2.40619
11.47 2.44615
11.48 2.44863
11.49 2.41666
11.5 2.35186
11.51 2.25472
11.52 2.13185
11.53 1.98343
11.54 1.81689
11.55 1.63543
11.56 1.44413
11.57 1.24781
11.58 1.05079
11.59 0.857014
11.6 0.670452
11.61 0.493743
11.62 0.328973
11.63 0.178798
11.64 0.0424405
11.65 -0.0775659
11.66 -0.183476
11.67 -0.275104
11.68 -0.353702
11.69 -0.421503
11.7 -0.478888
11.71 -0.529013
11.72 -0.572775
11.73 -0.61229
11.74 -0.648922
11.75 -0.683815
11.76 -0.717988
11.77 -0.751952
11.78 -0.785951
11.79 -0.81986
11.8 -0.853187
11.81 -0.885301
11.82 -0.914876
11.83 -0.941103
11.84 -0.962181
11.85 -0.976896
11.86 -0.983903
11.87 -0.981038
11.88 -0.968196
11.89 -0.9425
11.9 -0.90454
11.91 -0.852867
11.92 -0.787053
11.93 -0.708087
11.94 -0.61453
11.95 -0.509211
11.96 -0.391943
11.97 -0.265165
11.98 -0.130785
11.99 0.00909802
12 0.151447
12.01 0.293485
12.02 0.432222
12.03 0.564518
12.04 0.687092
12.05 0.798087
12.06 0.892892
12.07 0.971686
12.08 1.03076
12.09 1.07004
12.1 1.08906
12.11 1.08638
12.12 1.06504
12.13 1.02348
12.14 0.965935
12.15 0.893585
12.16 0.809285
12.17 0.716519
12.18 0.617601
12.19 0.516359
12.2 0.415512
12.21 0.317859
12.22 0.225514
12.23 0.14091
12.24 0.0643421
12.25 -0.00215767
12.26 -0.0596916
12.27 -0.108134
12.28 -0.1485
12.29 -0.182604
12.3 -0.211477
12.31 -0.237661
12.32 -0.262784
12.33 -0.288831
12.34 -0.31728
12.35 -0.349723
12.36 -0.386459
12.37 -0.428518
12.38 -0.475034
12.39 -0.525547
12.4 -0.578679
12.41 -0.632692
12.42 -0.685317
