# xPDFsuite Configuration #
[PDF]
wavelength = 0.1432
dataformat = twotheta
inputfile = 1_1Pd_CeO2_cycle-00231.chi
backgroundfile = background-00000.chi
mode = xray
bgscale = 1.007
composition = CeO2
outputtype = gr
qmaxinst = 28.8974762299
qmin = 0.5
qmax = 27.9
rmax = 50.0
rmin = 0.0
rstep = 0.01
rpoly = 1.8657

[Misc]
inputdir = G:/SankarDec16/1Pd/Chi
savedir = D:/DATA/APS_CeO2/1Pd
backgroundfilefull = G:/SankarDec16/Background/background-00000.chi

#### start data
#S 1
#L r($\AA$)  G($\AA^{-2}$)
0 0
0.01 -0.00622961
0.02 -0.0119877
0.03 -0.016789
0.04 -0.0202683
0.05 -0.0222229
0.06 -0.0223274
0.07 -0.0208008
0.08 -0.0175406
0.09 -0.0129641
0.1 -0.00736086
0.11 -0.00117327
0.12 0.00511894
0.13 0.0109751
0.14 0.0160168
0.15 0.0197778
0.16 0.0219886
0.17 0.0225439
0.18 0.0212265
0.19 0.018361
0.2 0.0139668
0.21 0.00853171
0.22 0.00241782
0.23 -0.00387764
0.24 -0.009905
0.25 -0.0150819
0.26 -0.0191421
0.27 -0.0216626
0.28 -0.022483
0.29 -0.0216012
0.3 -0.0189195
0.31 -0.0148518
0.32 -0.00953849
0.33 -0.00351387
0.34 0.00280635
0.35 0.00889476
0.36 0.0143549
0.37 0.0185924
0.38 0.0214668
0.39 0.0226203
0.4 0.0220099
0.41 0.0197374
0.42 0.0158299
0.43 0.0107701
0.44 0.00481253
0.45 -0.00148903
0.46 -0.00768634
0.47 -0.0132483
0.48 -0.0178523
0.49 -0.0209223
0.5 -0.0224513
0.51 -0.0221653
0.52 -0.0201417
0.53 -0.0165812
0.54 -0.0116354
0.55 -0.00583127
0.56 0.000474945
0.57 0.00673789
0.58 0.0124998
0.59 0.0172527
0.6 0.0207649
0.61 0.0225084
0.62 0.0226106
0.63 0.0208958
0.64 0.0175586
0.65 0.012889
0.66 0.00715603
0.67 0.000904132
0.68 -0.00542655
0.69 -0.0113267
0.7 -0.0163529
0.71 -0.020046
0.72 -0.022278
0.73 -0.0225958
0.74 -0.0212552
0.75 -0.0181879
0.76 -0.0136958
0.77 -0.00814288
0.78 -0.00190091
0.79 0.00449687
0.8 0.0105514
0.81 0.015817
0.82 0.0198896
0.83 0.022386
0.84 0.0232892
0.85 0.02225
0.86 0.0196382
0.87 0.0154998
0.88 0.010228
0.89 0.00424003
0.9 -0.00200935
0.91 -0.00803243
0.92 -0.0133028
0.93 -0.0174707
0.94 -0.0202041
0.95 -0.0212302
0.96 -0.0206554
0.97 -0.0182794
0.98 -0.0145756
0.99 -0.00972816
1 -0.00421879
1.01 0.00149187
1.02 0.00685749
1.03 0.0114706
1.04 0.0147746
1.05 0.0165487
1.06 0.0165488
1.07 0.0146347
1.08 0.0110655
1.09 0.00581241
1.1 -0.000515092
1.11 -0.00756159
1.12 -0.0147177
1.13 -0.0214443
1.14 -0.0270357
1.15 -0.0311375
1.16 -0.0330693
1.17 -0.032699
1.18 -0.0297959
1.19 -0.0242592
1.2 -0.0164906
1.21 -0.00646901
1.22 0.0050097
1.23 0.0175216
1.24 0.0303286
1.25 0.0427829
1.26 0.0540604
1.27 0.0637083
1.28 0.0709091
1.29 0.0754382
1.3 0.0769447
1.31 0.0751742
1.32 0.0704803
1.33 0.0625708
1.34 0.0522546
1.35 0.039734
1.36 0.0256529
1.37 0.010614
1.38 -0.00478726
1.39 -0.0199424
1.4 -0.0342276
1.41 -0.0472214
1.42 -0.0585117
1.43 -0.0677039
1.44 -0.0748296
1.45 -0.0794132
1.46 -0.0818244
1.47 -0.0819112
1.48 -0.0798773
1.49 -0.07596
1.5 -0.0701816
1.51 -0.0629778
1.52 -0.0543787
1.53 -0.0447306
1.54 -0.0342015
1.55 -0.0229902
1.56 -0.0113543
1.57 0.000523074
1.58 0.0123678
1.59 0.0239164
1.6 0.0348652
1.61 0.0449503
1.62 0.0536992
1.63 0.0609633
1.64 0.0661841
1.65 0.0692337
1.66 0.0698139
1.67 0.0676356
1.68 0.0628994
1.69 0.0551941
1.7 0.0451147
1.71 0.0327062
1.72 0.0184754
1.73 0.0029689
1.74 -0.0132598
1.75 -0.0294954
1.76 -0.0450165
1.77 -0.0592114
1.78 -0.0714913
1.79 -0.081258
1.8 -0.088469
1.81 -0.0925049
1.82 -0.0938793
1.83 -0.0925668
1.84 -0.089102
1.85 -0.0841086
1.86 -0.0782344
1.87 -0.0723363
1.88 -0.0672731
1.89 -0.0637669
1.9 -0.062493
1.91 -0.064107
1.92 -0.0686006
1.93 -0.0765602
1.94 -0.0872908
1.95 -0.10063
1.96 -0.115774
1.97 -0.131847
1.98 -0.14777
1.99 -0.162507
2 -0.174687
2.01 -0.183422
2.02 -0.187725
2.03 -0.186592
2.04 -0.180117
2.05 -0.16712
2.06 -0.148645
2.07 -0.124527
2.08 -0.0956125
2.09 -0.0628833
2.1 -0.0270807
2.11 0.0103685
2.12 0.0485303
2.13 0.0862975
2.14 0.122858
2.15 0.157466
2.16 0.189991
2.17 0.219985
2.18 0.248036
2.19 0.274422
2.2 0.299924
2.21 0.325328
2.22 0.351613
2.23 0.379441
2.24 0.409742
2.25 0.442751
2.26 0.478655
2.27 0.517292
2.28 0.55781
2.29 0.599319
2.3 0.640257
2.31 0.67885
2.32 0.713051
2.33 0.741155
2.34 0.760168
2.35 0.769501
2.36 0.76616
2.37 0.75009
2.38 0.720396
2.39 0.67654
2.4 0.620522
2.41 0.551723
2.42 0.473892
2.43 0.388532
2.44 0.298874
2.45 0.207897
2.46 0.119051
2.47 0.0349387
2.48 -0.0408386
2.49 -0.106582
2.5 -0.160363
2.51 -0.200473
2.52 -0.227956
2.53 -0.241065
2.54 -0.242999
2.55 -0.234402
2.56 -0.217992
2.57 -0.196508
2.58 -0.172615
2.59 -0.1493
2.6 -0.129451
2.61 -0.115146
2.62 -0.108216
2.63 -0.110279
2.64 -0.120886
2.65 -0.141298
2.66 -0.169225
2.67 -0.203955
2.68 -0.243237
2.69 -0.284822
2.7 -0.326229
2.71 -0.365248
2.72 -0.399271
2.73 -0.426885
2.74 -0.44673
2.75 -0.457729
2.76 -0.460739
2.77 -0.455083
2.78 -0.443222
2.79 -0.426251
2.8 -0.406544
2.81 -0.386311
2.82 -0.368144
2.83 -0.353824
2.84 -0.345837
2.85 -0.345064
2.86 -0.352435
2.87 -0.36846
2.88 -0.391809
2.89 -0.42243
2.9 -0.457571
2.91 -0.49556
2.92 -0.533725
2.93 -0.569768
2.94 -0.600704
2.95 -0.625191
2.96 -0.640582
2.97 -0.646544
2.98 -0.642475
2.99 -0.628313
3 -0.606
3.01 -0.576053
3.02 -0.541772
3.03 -0.505286
3.04 -0.469638
3.05 -0.437312
3.06 -0.411578
3.07 -0.393585
3.08 -0.386024
3.09 -0.388872
3.1 -0.402444
3.11 -0.426411
3.12 -0.458432
3.13 -0.49752
3.14 -0.540119
3.15 -0.58377
3.16 -0.625305
3.17 -0.662292
3.18 -0.691487
3.19 -0.712182
3.2 -0.722053
3.21 -0.721742
3.22 -0.711562
3.23 -0.692663
3.24 -0.66786
3.25 -0.639278
3.26 -0.610572
3.27 -0.58495
3.28 -0.565766
3.29 -0.555311
3.3 -0.557114
3.31 -0.570928
3.32 -0.5989
3.33 -0.639273
3.34 -0.690876
3.35 -0.751445
3.36 -0.817153
3.37 -0.884515
3.38 -0.94921
3.39 -1.00696
3.4 -1.05385
3.41 -1.08746
3.42 -1.10365
3.43 -1.10358
3.44 -1.08505
3.45 -1.05102
3.46 -1.00351
3.47 -0.94595
3.48 -0.883342
3.49 -0.820488
3.5 -0.762478
3.51 -0.714483
3.52 -0.680726
3.53 -0.66335
3.54 -0.666063
3.55 -0.686137
3.56 -0.723812
3.57 -0.773498
3.58 -0.829989
3.59 -0.885287
3.6 -0.93164
3.61 -0.956453
3.62 -0.95285
3.63 -0.908579
3.64 -0.814886
3.65 -0.667135
3.66 -0.4528
3.67 -0.177685
3.68 0.166671
3.69 0.571463
3.7 1.03237
3.71 1.5419
3.72 2.08454
3.73 2.64993
3.74 3.21908
3.75 3.77576
3.76 4.30156
3.77 4.78249
3.78 5.1954
3.79 5.53612
3.8 5.78296
3.81 5.93529
3.82 5.98656
3.83 5.93095
3.84 5.78161
3.85 5.52931
3.86 5.19781
3.87 4.79148
3.88 4.32711
3.89 3.82151
3.9 3.28851
3.91 2.74713
3.92 2.21271
3.93 1.69952
3.94 1.21969
3.95 0.786014
3.96 0.400528
3.97 0.0769293
3.98 -0.191595
3.99 -0.40061
4 -0.554586
4.01 -0.66058
4.02 -0.720439
4.03 -0.747347
4.04 -0.745405
4.05 -0.725499
4.06 -0.694578
4.07 -0.659929
4.08 -0.627251
4.09 -0.602127
4.1 -0.586612
4.11 -0.58324
4.12 -0.592124
4.13 -0.611895
4.14 -0.641668
4.15 -0.677626
4.16 -0.717308
4.17 -0.756944
4.18 -0.793459
4.19 -0.823395
4.2 -0.845175
4.21 -0.855241
4.22 -0.854048
4.23 -0.840069
4.24 -0.813719
4.25 -0.776226
4.26 -0.727628
4.27 -0.670803
4.28 -0.606413
4.29 -0.536874
4.3 -0.463627
4.31 -0.388125
4.32 -0.311687
4.33 -0.235204
4.34 -0.159306
4.35 -0.0844104
4.36 -0.0106901
4.37 0.0618575
4.38 0.133066
4.39 0.203039
4.4 0.27139
4.41 0.337833
4.42 0.401735
4.43 0.461998
4.44 0.518003
4.45 0.567551
4.46 0.610144
4.47 0.643739
4.48 0.667028
4.49 0.679403
4.5 0.678502
4.51 0.665517
4.52 0.638654
4.53 0.599355
4.54 0.548106
4.55 0.485697
4.56 0.414734
4.57 0.335975
4.58 0.25267
4.59 0.166647
4.6 0.0804245
4.61 -0.00401509
4.62 -0.0842454
4.63 -0.15929
4.64 -0.227163
4.65 -0.287622
4.66 -0.340201
4.67 -0.384611
4.68 -0.422115
4.69 -0.452437
4.7 -0.477605
4.71 -0.498307
4.72 -0.515951
4.73 -0.531757
4.74 -0.546711
4.75 -0.561734
4.76 -0.577474
4.77 -0.594229
4.78 -0.61208
4.79 -0.630884
4.8 -0.650194
4.81 -0.669478
4.82 -0.688111
4.83 -0.705401
4.84 -0.720724
4.85 -0.733724
4.86 -0.743742
4.87 -0.751029
4.88 -0.755282
4.89 -0.75701
4.9 -0.756573
4.91 -0.754502
4.92 -0.75156
4.93 -0.748395
4.94 -0.745709
4.95 -0.744135
4.96 -0.744175
4.97 -0.746054
4.98 -0.750181
4.99 -0.756249
5 -0.764335
5.01 -0.773959
5.02 -0.784769
5.03 -0.796314
5.04 -0.808102
5.05 -0.81969
5.06 -0.830759
5.07 -0.841019
5.08 -0.850333
5.09 -0.858713
5.1 -0.866097
5.11 -0.872699
5.12 -0.8785
5.13 -0.883582
5.14 -0.887832
5.15 -0.890893
5.16 -0.89243
5.17 -0.891312
5.18 -0.886874
5.19 -0.877557
5.2 -0.861822
5.21 -0.838486
5.22 -0.804678
5.23 -0.76021
5.24 -0.702099
5.25 -0.6302
5.26 -0.543566
5.27 -0.441218
5.28 -0.325158
5.29 -0.194317
5.3 -0.0525652
5.31 0.0985648
5.32 0.255448
5.33 0.414373
5.34 0.570783
5.35 0.720772
5.36 0.858714
5.37 0.98096
5.38 1.08341
5.39 1.16112
5.4 1.21411
5.41 1.23594
5.42 1.22992
5.43 1.19366
5.44 1.12884
5.45 1.03878
5.46 0.923827
5.47 0.790865
5.48 0.642074
5.49 0.483667
5.5 0.320124
5.51 0.15664
5.52 -0.00262074
5.53 -0.152225
5.54 -0.289993
5.55 -0.412202
5.56 -0.517008
5.57 -0.604309
5.58 -0.6717
5.59 -0.722343
5.6 -0.755299
5.61 -0.773794
5.62 -0.779616
5.63 -0.774747
5.64 -0.762469
5.65 -0.744121
5.66 -0.722549
5.67 -0.699086
5.68 -0.675087
5.69 -0.651273
5.7 -0.628004
5.71 -0.605083
5.72 -0.582048
5.73 -0.558142
5.74 -0.53253
5.75 -0.504133
5.76 -0.47253
5.77 -0.436529
5.78 -0.396459
5.79 -0.35206
5.8 -0.303925
5.81 -0.253038
5.82 -0.200478
5.83 -0.147927
5.84 -0.0972202
5.85 -0.0501502
5.86 -0.00850756
5.87 0.0255033
5.88 0.0513367
5.89 0.0663026
5.9 0.0711362
5.91 0.0646798
5.92 0.0472852
5.93 0.0200799
5.94 -0.0169659
5.95 -0.061239
5.96 -0.111995
5.97 -0.166885
5.98 -0.224274
5.99 -0.28236
6 -0.339659
6.01 -0.394564
6.02 -0.446427
6.03 -0.494382
6.04 -0.538202
6.05 -0.578172
6.06 -0.61424
6.07 -0.647499
6.08 -0.678361
6.09 -0.707852
6.1 -0.736676
6.11 -0.765525
6.12 -0.794817
6.13 -0.824878
6.14 -0.855557
6.15 -0.886596
6.16 -0.917388
6.17 -0.947269
6.18 -0.97513
6.19 -1.00038
6.2 -1.02179
6.21 -1.03891
6.22 -1.05125
6.23 -1.05831
6.24 -1.06079
6.25 -1.05844
6.26 -1.0527
6.27 -1.04429
6.28 -1.03455
6.29 -1.02469
6.3 -1.01602
6.31 -1.00927
6.32 -1.00526
6.33 -1.00381
6.34 -1.00438
6.35 -1.00562
6.36 -1.00559
6.37 -1.00089
6.38 -0.988644
6.39 -0.964242
6.4 -0.922992
6.41 -0.861546
6.42 -0.772089
6.43 -0.654278
6.44 -0.500531
6.45 -0.310652
6.46 -0.0825958
6.47 0.186057
6.48 0.489962
6.49 0.831867
6.5 1.20222
6.51 1.59754
6.52 2.00943
6.53 2.42911
6.54 2.84653
6.55 3.25223
6.56 3.63371
6.57 3.98202
6.58 4.2876
6.59 4.53835
6.6 4.73334
6.61 4.85676
6.62 4.91441
6.63 4.89912
6.64 4.81227
6.65 4.66002
6.66 4.4394
6.67 4.16571
6.68 3.84038
6.69 3.47702
6.7 3.0847
6.71 2.67373
6.72 2.25577
6.73 1.84134
6.74 1.43955
6.75 1.05976
6.76 0.709521
6.77 0.392423
6.78 0.11732
6.79 -0.119137
6.8 -0.311102
6.81 -0.462709
6.82 -0.575449
6.83 -0.650795
6.84 -0.696414
6.85 -0.712637
6.86 -0.708378
6.87 -0.686826
6.88 -0.653419
6.89 -0.612815
6.9 -0.568523
6.91 -0.524063
6.92 -0.481968
6.93 -0.443864
6.94 -0.410769
6.95 -0.383452
6.96 -0.36125
6.97 -0.344542
6.98 -0.331952
6.99 -0.323105
7 -0.317202
7.01 -0.313569
7.02 -0.312087
7.03 -0.312372
7.04 -0.314821
7.05 -0.319688
7.06 -0.327551
7.07 -0.339358
7.08 -0.355353
7.09 -0.376989
7.1 -0.404029
7.11 -0.437186
7.12 -0.476374
7.13 -0.520941
7.14 -0.570769
7.15 -0.624161
7.16 -0.680195
7.17 -0.737052
7.18 -0.793161
7.19 -0.846562
7.2 -0.896061
7.21 -0.939374
7.22 -0.976162
7.23 -1.00512
7.24 -1.02593
7.25 -1.03911
7.26 -1.04426
7.27 -1.04333
7.28 -1.03685
7.29 -1.0268
7.3 -1.01466
7.31 -1.00216
7.32 -0.990682
7.33 -0.981823
7.34 -0.97611
7.35 -0.974196
7.36 -0.975926
7.37 -0.980502
7.38 -0.986913
7.39 -0.993285
7.4 -0.997397
7.41 -0.996866
7.42 -0.989204
7.43 -0.971072
7.44 -0.94134
7.45 -0.895635
7.46 -0.834353
7.47 -0.755146
7.48 -0.657715
7.49 -0.543358
7.5 -0.411138
7.51 -0.265232
7.52 -0.106541
7.53 0.0606612
7.54 0.232999
7.55 0.406242
7.56 0.576458
7.57 0.738366
7.58 0.888977
7.59 1.02375
7.6 1.13927
7.61 1.23419
7.62 1.30356
7.63 1.34962
7.64 1.36884
7.65 1.36346
7.66 1.33416
7.67 1.28136
7.68 1.20955
7.69 1.11852
7.7 1.01377
7.71 0.897235
7.72 0.772561
7.73 0.643139
7.74 0.511935
7.75 0.381988
7.76 0.256254
7.77 0.136936
7.78 0.0260301
7.79 -0.0740271
7.8 -0.163132
7.81 -0.238278
7.82 -0.300565
7.83 -0.348569
7.84 -0.382296
7.85 -0.402727
7.86 -0.408664
7.87 -0.402774
7.88 -0.384582
7.89 -0.356305
7.9 -0.319279
7.91 -0.274951
7.92 -0.225878
7.93 -0.173659
7.94 -0.120942
7.95 -0.0699122
7.96 -0.0230263
7.97 0.0179743
7.98 0.0500151
7.99 0.0726383
8 0.0831619
8.01 0.0813989
8.02 0.0667402
8.03 0.0383783
8.04 -0.00178631
8.05 -0.054602
8.06 -0.116969
8.07 -0.187842
8.08 -0.264802
8.09 -0.345349
8.1 -0.427136
8.11 -0.507689
8.12 -0.584518
8.13 -0.655838
8.14 -0.720141
8.15 -0.775781
8.16 -0.823164
8.17 -0.86088
8.18 -0.890665
8.19 -0.912808
8.2 -0.928777
8.21 -0.940328
8.22 -0.948768
8.23 -0.95604
8.24 -0.963425
8.25 -0.971979
8.26 -0.982198
8.27 -0.994092
8.28 -1.0068
8.29 -1.01883
8.3 -1.02811
8.31 -1.03176
8.32 -1.02631
8.33 -1.00903
8.34 -0.974121
8.35 -0.920479
8.36 -0.842236
8.37 -0.738188
8.38 -0.606233
8.39 -0.443455
8.4 -0.253173
8.41 -0.0322104
8.42 0.212994
8.43 0.480727
8.44 0.765553
8.45 1.06115
8.46 1.36127
8.47 1.65831
8.48 1.94399
8.49 2.21112
8.5 2.45271
8.51 2.65967
8.52 2.83038
8.53 2.95355
8.54 3.03187
8.55 3.05992
8.56 3.03754
8.57 2.96865
8.58 2.84996
8.59 2.69196
8.6 2.49487
8.61 2.26772
8.62 2.01661
8.63 1.74811
8.64 1.47073
8.65 1.19104
8.66 0.916105
8.67 0.652183
8.68 0.404927
8.69 0.177217
8.7 -0.0246745
8.71 -0.202297
8.72 -0.351578
8.73 -0.474612
8.74 -0.572253
8.75 -0.645082
8.76 -0.698127
8.77 -0.731578
8.78 -0.751319
8.79 -0.759664
8.8 -0.760385
8.81 -0.756834
8.82 -0.751719
8.83 -0.747556
8.84 -0.746431
8.85 -0.749561
8.86 -0.757734
8.87 -0.771601
8.88 -0.790395
8.89 -0.814299
8.9 -0.841785
8.91 -0.872075
8.92 -0.903853
8.93 -0.935924
8.94 -0.966997
8.95 -0.996232
8.96 -1.02254
8.97 -1.0455
8.98 -1.06476
8.99 -1.08001
9 -1.09181
9.01 -1.09999
9.02 -1.10555
9.03 -1.10888
9.04 -1.11074
9.05 -1.11181
9.06 -1.11265
9.07 -1.11373
9.08 -1.11536
9.09 -1.11757
9.1 -1.1202
9.11 -1.12284
9.12 -1.12491
9.13 -1.12538
9.14 -1.12347
9.15 -1.11794
9.16 -1.10756
9.17 -1.09164
9.18 -1.06825
9.19 -1.03764
9.2 -0.998264
9.21 -0.950422
9.22 -0.894129
9.23 -0.829338
9.24 -0.757724
9.25 -0.679518
9.26 -0.597122
9.27 -0.512023
9.28 -0.426506
9.29 -0.342623
9.3 -0.263231
9.31 -0.189868
9.32 -0.125464
9.33 -0.0713492
9.34 -0.0289647
9.35 -0.000259674
9.36 0.0157202
9.37 0.0168231
9.38 0.00540305
9.39 -0.018518
9.4 -0.0533082
9.41 -0.0966177
9.42 -0.147107
9.43 -0.201509
9.44 -0.25776
9.45 -0.313169
9.46 -0.365594
9.47 -0.41257
9.48 -0.453178
9.49 -0.48502
9.5 -0.508482
9.51 -0.522754
9.52 -0.528209
9.53 -0.526104
9.54 -0.516786
9.55 -0.502714
9.56 -0.485102
9.57 -0.466152
9.58 -0.447603
9.59 -0.431442
9.6 -0.418803
9.61 -0.411629
9.62 -0.410091
9.63 -0.415041
9.64 -0.426513
9.65 -0.4438
9.66 -0.466932
9.67 -0.494212
9.68 -0.525016
9.69 -0.557854
9.7 -0.591633
9.71 -0.625207
9.72 -0.657784
9.73 -0.688468
9.74 -0.717108
9.75 -0.743441
9.76 -0.767594
9.77 -0.789968
9.78 -0.810752
9.79 -0.830515
9.8 -0.849367
9.81 -0.867347
9.82 -0.884097
9.83 -0.898593
9.84 -0.909838
9.85 -0.91514
9.86 -0.912726
9.87 -0.899116
9.88 -0.870607
9.89 -0.824797
9.9 -0.754935
9.91 -0.660785
9.92 -0.535809
9.93 -0.379084
9.94 -0.188649
9.95 0.0388568
9.96 0.299239
9.97 0.596229
9.98 0.922427
9.99 1.27591
10 1.65064
10.01 2.03928
10.02 2.43495
10.03 2.82862
10.04 3.21092
10.05 3.57315
10.06 3.90707
10.07 4.20159
10.08 4.45437
10.09 4.65175
10.1 4.79589
10.11 4.87996
10.12 4.90254
10.13 4.8679
10.14 4.77054
10.15 4.62274
10.16 4.42353
10.17 4.18307
10.18 3.90818
10.19 3.60565
10.2 3.28613
10.21 2.9562
10.22 2.62521
10.23 2.30021
10.24 1.98831
10.25 1.69362
10.26 1.42346
10.27 1.17736
10.28 0.960133
10.29 0.770494
10.3 0.607943
10.31 0.472553
10.32 0.359183
10.33 0.268096
10.34 0.193151
10.35 0.132071
10.36 0.0809717
10.37 0.0361547
10.38 -0.00503417
10.39 -0.0456303
10.4 -0.0877594
10.41 -0.133007
10.42 -0.182359
10.43 -0.236685
10.44 -0.295482
10.45 -0.359058
10.46 -0.426109
10.47 -0.495945
10.48 -0.56733
10.49 -0.639057
10.5 -0.70974
10.51 -0.778364
10.52 -0.843517
10.53 -0.904363
10.54 -0.96009
10.55 -1.00954
10.56 -1.05289
10.57 -1.08867
10.58 -1.11752
10.59 -1.13877
10.6 -1.15237
10.61 -1.15885
10.62 -1.15737
10.63 -1.14926
10.64 -1.13406
10.65 -1.11268
10.66 -1.08561
10.67 -1.05322
10.68 -1.01676
10.69 -0.976532
10.7 -0.933931
10.71 -0.889747
10.72 -0.845107
10.73 -0.800988
10.74 -0.758649
10.75 -0.718789
10.76 -0.682644
10.77 -0.650812
10.78 -0.623904
10.79 -0.602819
10.8 -0.587212
10.81 -0.57814
10.82 -0.574787
10.83 -0.577384
10.84 -0.585595
10.85 -0.598663
10.86 -0.616679
10.87 -0.638401
10.88 -0.663663
10.89 -0.691589
10.9 -0.721615
10.91 -0.753238
10.92 -0.78579
10.93 -0.818875
10.94 -0.851978
10.95 -0.88471
10.96 -0.916666
10.97 -0.947584
10.98 -0.976942
10.99 -1.00466
11 -1.03023
11.01 -1.05349
11.02 -1.07422
11.03 -1.09202
11.04 -1.10709
11.05 -1.11892
11.06 -1.12793
11.07 -1.13408
11.08 -1.13764
11.09 -1.13911
11.1 -1.13876
11.11 -1.13735
11.12 -1.13538
11.13 -1.13349
11.14 -1.13218
11.15 -1.13194
11.16 -1.13286
11.17 -1.13507
11.18 -1.13807
11.19 -1.14124
11.2 -1.14338
11.21 -1.14328
11.22 -1.1385
11.23 -1.12764
11.24 -1.10751
11.25 -1.07601
11.26 -1.03078
11.27 -0.968123
11.28 -0.887973
11.29 -0.785554
11.3 -0.662323
11.31 -0.516327
11.32 -0.347754
11.33 -0.159074
11.34 0.0503418
11.35 0.27488
11.36 0.512647
11.37 0.758182
11.38 1.0068
11.39 1.2526
11.4 1.49067
11.41 1.71342
11.42 1.91714
11.43 2.09561
11.44 2.2439
11.45 2.36073
11.46 2.43851
11.47 2.48113
11.48 2.48376
11.49 2.44955
11.5 2.38024
11.51 2.27649
11.52 2.14551
11.53 1.98783
11.54 1.81164
11.55 1.6207
11.56 1.42077
11.57 1.21709
11.58 1.01471
11.59 0.817597
11.6 0.630168
11.61 0.454932
11.62 0.29384
11.63 0.149384
11.64 0.0201819
11.65 -0.0915674
11.66 -0.188824
11.67 -0.271941
11.68 -0.342784
11.69 -0.403983
11.7 -0.456548
11.71 -0.503649
11.72 -0.54654
11.73 -0.587182
11.74 -0.626777
11.75 -0.666264
11.76 -0.706101
11.77 -0.746429
11.78 -0.786872
11.79 -0.826801
11.8 -0.865185
11.81 -0.901084
11.82 -0.932634
11.83 -0.95911
11.84 -0.978468
11.85 -0.989733
11.86 -0.991803
11.87 -0.982829
11.88 -0.963265
11.89 -0.930724
11.9 -0.886362
11.91 -0.829268
11.92 -0.759528
11.93 -0.678363
11.94 -0.584869
11.95 -0.481655
11.96 -0.368727
11.97 -0.248171
11.98 -0.12156
11.99 0.00942397
12 0.142382
12.01 0.275137
12.02 0.405312
12.03 0.530376
12.04 0.647616
12.05 0.7554
12.06 0.849729
12.07 0.930491
12.08 0.994201
12.09 1.04038
12.1 1.06818
12.11 1.07572
12.12 1.06532
12.13 1.03477
12.14 0.987616
12.15 0.924366
12.16 0.84724
12.17 0.759442
12.18 0.662596
12.19 0.560792
12.2 0.456459
12.21 0.352781
12.22 0.252227
12.23 0.15764
12.24 0.0700792
12.25 -0.00782652
12.26 -0.0764137
12.27 -0.134872
12.28 -0.183529
12.29 -0.223851
12.3 -0.256125
12.31 -0.283076
12.32 -0.305963
12.33 -0.327084
12.34 -0.348208
12.35 -0.371248
12.36 -0.397258
12.37 -0.42777
12.38 -0.462716
12.39 -0.502295
12.4 -0.545836
