# xPDFsuite Configuration #
[PDF]
wavelength = 0.1432
dataformat = twotheta
inputfile = 1_1Pd_CeO2_cycle-00429.chi
backgroundfile = background-00000.chi
mode = xray
bgscale = 1.007
composition = CeO2
outputtype = gr
qmaxinst = 28.8974762299
qmin = 0.5
qmax = 27.9
rmax = 50.0
rmin = 0.0
rstep = 0.01
rpoly = 1.8657

[Misc]
inputdir = G:/SankarDec16/1Pd/Chi
savedir = D:/DATA/APS_CeO2/1Pd
backgroundfilefull = G:/SankarDec16/Background/background-00000.chi

#### start data
#S 1
#L r($\AA$)  G($\AA^{-2}$)
0 0
0.01 -0.00492349
0.02 -0.00947676
0.03 -0.0132785
0.04 -0.0160415
0.05 -0.0176056
0.06 -0.0177136
0.07 -0.0165359
0.08 -0.0139892
0.09 -0.0103995
0.1 -0.005992
0.11 -0.00111181
0.12 0.00386372
0.13 0.00851212
0.14 0.0125325
0.15 0.0155574
0.16 0.0173705
0.17 0.0178847
0.18 0.0169228
0.19 0.014735
0.2 0.0113287
0.21 0.00708374
0.22 0.00227985
0.23 -0.00269567
0.24 -0.00748702
0.25 -0.0116391
0.26 -0.0149342
0.27 -0.0170359
0.28 -0.0178087
0.29 -0.0172425
0.3 -0.0152489
0.31 -0.0121457
0.32 -0.00803137
0.33 -0.00332163
0.34 0.00166205
0.35 0.006508
0.36 0.0108986
0.37 0.0143673
0.38 0.0167895
0.39 0.0178756
0.4 0.0175774
0.41 0.0159623
0.42 0.0130348
0.43 0.00916612
0.44 0.00454067
0.45 -0.000408572
0.46 -0.00533367
0.47 -0.00981745
0.48 -0.0135954
0.49 -0.0162113
0.5 -0.0176395
0.51 -0.0176509
0.52 -0.016287
0.53 -0.0136897
0.54 -0.00995671
0.55 -0.0054952
0.56 -0.000567247
0.57 0.0043969
0.58 0.00903913
0.59 0.0129559
0.6 0.0159484
0.61 0.0175921
0.62 0.0179616
0.63 0.0168991
0.64 0.0145342
0.65 0.0110768
0.66 0.00671353
0.67 0.00186877
0.68 -0.0031298
0.69 -0.00787435
0.7 -0.0120133
0.71 -0.0151752
0.72 -0.017236
0.73 -0.0178221
0.74 -0.0171047
0.75 -0.0150041
0.76 -0.0117311
0.77 -0.00755345
0.78 -0.0027363
0.79 0.00229872
0.8 0.00717579
0.81 0.0115287
0.82 0.0150304
0.83 0.0173594
0.84 0.0184721
0.85 0.0180647
0.86 0.0163942
0.87 0.0134619
0.88 0.00954667
0.89 0.00495717
0.9 1.89468e-05
0.91 -0.00487503
0.92 -0.00932925
0.93 -0.0130444
0.94 -0.0157447
0.95 -0.0171893
0.96 -0.0174228
0.97 -0.0162517
0.98 -0.0140065
0.99 -0.0107897
1 -0.00694278
1.01 -0.00280313
1.02 0.00124177
1.03 0.00486426
1.04 0.00765801
1.05 0.00942921
1.06 0.00998211
1.07 0.00919422
1.08 0.00723333
1.09 0.00407012
1.1 0.000139193
1.11 -0.00429792
1.12 -0.00878984
1.13 -0.0129331
1.14 -0.0161916
1.15 -0.0182985
1.16 -0.018733
1.17 -0.0173978
1.18 -0.014121
1.19 -0.00883716
1.2 -0.00186872
1.21 0.00676603
1.22 0.016431
1.23 0.0267481
1.24 0.0370987
1.25 0.0469388
1.26 0.0555396
1.27 0.0625377
1.28 0.0671953
1.29 0.0693325
1.3 0.0686343
1.31 0.0648702
1.32 0.058373
1.33 0.0488714
1.34 0.0371267
1.35 0.0233417
1.36 0.00814373
1.37 -0.00787151
1.38 -0.0240803
1.39 -0.0398715
1.4 -0.0545552
1.41 -0.0676794
1.42 -0.0787702
1.43 -0.0873567
1.44 -0.0934644
1.45 -0.0965006
1.46 -0.0968955
1.47 -0.0944567
1.48 -0.0894419
1.49 -0.0821676
1.5 -0.0727278
1.51 -0.0617153
1.52 -0.0492967
1.53 -0.0359854
1.54 -0.0221092
1.55 -0.00805294
1.56 0.00585138
1.57 0.0191927
1.58 0.0317451
1.59 0.0431416
1.6 0.0531235
1.61 0.061519
1.62 0.0679036
1.63 0.0723544
1.64 0.074438
1.65 0.0742543
1.66 0.0716866
1.67 0.0666527
1.68 0.0594668
1.69 0.0499307
1.7 0.0386246
1.71 0.0256807
1.72 0.0115605
1.73 -0.00328122
1.74 -0.0183621
1.75 -0.0331674
1.76 -0.0471138
1.77 -0.0597792
1.78 -0.0707272
1.79 -0.0795157
1.8 -0.0861528
1.81 -0.0901437
1.82 -0.091916
1.83 -0.0914254
1.84 -0.0890718
1.85 -0.0853239
1.86 -0.0806309
1.87 -0.0756693
1.88 -0.0710557
1.89 -0.0673777
1.9 -0.0651705
1.91 -0.0649794
1.92 -0.0668785
1.93 -0.0713987
1.94 -0.0781162
1.95 -0.0870271
1.96 -0.0976367
1.97 -0.109361
1.98 -0.121524
1.99 -0.133321
2 -0.143805
2.01 -0.152218
2.02 -0.157751
2.03 -0.159514
2.04 -0.157379
2.05 -0.150211
2.06 -0.138547
2.07 -0.121935
2.08 -0.100705
2.09 -0.0753621
2.1 -0.0460206
2.11 -0.0137565
2.12 0.0211356
2.13 0.0577282
2.14 0.0954628
2.15 0.133752
2.16 0.172122
2.17 0.210188
2.18 0.247785
2.19 0.284777
2.2 0.321192
2.21 0.357129
2.22 0.392664
2.23 0.427943
2.24 0.46297
2.25 0.497694
2.26 0.531908
2.27 0.565165
2.28 0.597058
2.29 0.626499
2.3 0.652953
2.31 0.675124
2.32 0.691958
2.33 0.702681
2.34 0.705463
2.35 0.70051
2.36 0.686071
2.37 0.662608
2.38 0.629865
2.39 0.58785
2.4 0.538137
2.41 0.480636
2.42 0.417887
2.43 0.351037
2.44 0.28221
2.45 0.21329
2.46 0.146505
2.47 0.083322
2.48 0.0259651
2.49 -0.0247082
2.5 -0.067642
2.51 -0.10196
2.52 -0.128482
2.53 -0.146318
2.54 -0.157556
2.55 -0.162723
2.56 -0.163548
2.57 -0.161705
2.58 -0.158832
2.59 -0.156608
2.6 -0.156681
2.61 -0.160098
2.62 -0.167756
2.63 -0.180336
2.64 -0.19738
2.65 -0.219216
2.66 -0.244383
2.67 -0.272125
2.68 -0.300954
2.69 -0.329503
2.7 -0.356075
2.71 -0.379651
2.72 -0.398616
2.73 -0.412511
2.74 -0.420786
2.75 -0.423169
2.76 -0.420607
2.77 -0.413163
2.78 -0.40269
2.79 -0.3903
2.8 -0.377751
2.81 -0.366546
2.82 -0.358611
2.83 -0.354802
2.84 -0.356792
2.85 -0.364749
2.86 -0.378999
2.87 -0.39948
2.88 -0.424881
2.89 -0.454686
2.9 -0.486723
2.91 -0.519447
2.92 -0.550784
2.93 -0.579067
2.94 -0.601978
2.95 -0.618852
2.96 -0.627768
2.97 -0.628843
2.98 -0.621881
2.99 -0.607141
3 -0.58636
3.01 -0.560235
3.02 -0.531397
3.03 -0.501654
3.04 -0.47338
3.05 -0.448439
3.06 -0.429357
3.07 -0.416807
3.08 -0.412784
3.09 -0.417057
3.1 -0.429719
3.11 -0.450352
3.12 -0.477045
3.13 -0.508915
3.14 -0.543221
3.15 -0.578052
3.16 -0.611037
3.17 -0.640401
3.18 -0.663785
3.19 -0.680787
3.2 -0.689815
3.21 -0.691494
3.22 -0.686209
3.23 -0.674986
3.24 -0.659967
3.25 -0.642925
3.26 -0.626494
3.27 -0.613103
3.28 -0.605145
3.29 -0.604173
3.3 -0.612663
3.31 -0.630178
3.32 -0.658071
3.33 -0.694783
3.34 -0.739204
3.35 -0.789374
3.36 -0.842379
3.37 -0.895317
3.38 -0.945109
3.39 -0.988484
3.4 -1.02266
3.41 -1.04605
3.42 -1.05576
3.43 -1.05299
3.44 -1.03644
3.45 -1.00864
3.46 -0.971406
3.47 -0.927629
3.48 -0.881119
3.49 -0.835752
3.5 -0.795111
3.51 -0.763002
3.52 -0.74222
3.53 -0.733913
3.54 -0.740185
3.55 -0.758351
3.56 -0.78754
3.57 -0.822778
3.58 -0.859178
3.59 -0.88948
3.6 -0.90756
3.61 -0.902049
3.62 -0.868135
3.63 -0.795429
3.64 -0.677186
3.65 -0.510219
3.66 -0.284384
3.67 -0.00562273
3.68 0.332634
3.69 0.722095
3.7 1.15845
3.71 1.63462
3.72 2.13712
3.73 2.65632
3.74 3.17613
3.75 3.68225
3.76 4.15889
3.77 4.59417
3.78 4.96792
3.79 5.27701
3.8 5.50245
3.81 5.64392
3.82 5.69569
3.83 5.65249
3.84 5.52579
3.85 5.30693
3.86 5.01663
3.87 4.6581
3.88 4.24563
3.89 3.79372
3.9 3.31372
3.91 2.82257
3.92 2.33307
3.93 1.85814
3.94 1.4085
3.95 0.995582
3.96 0.622031
3.97 0.300122
3.98 0.0250389
3.99 -0.198605
4 -0.373719
4.01 -0.505657
4.02 -0.594901
4.03 -0.652546
4.04 -0.681101
4.05 -0.689878
4.06 -0.684547
4.07 -0.671101
4.08 -0.655044
4.09 -0.640747
4.1 -0.631048
4.11 -0.628294
4.12 -0.633292
4.13 -0.645576
4.14 -0.664882
4.15 -0.688722
4.16 -0.715471
4.17 -0.742421
4.18 -0.767297
4.19 -0.787465
4.2 -0.801616
4.21 -0.80692
4.22 -0.803536
4.23 -0.790101
4.24 -0.766718
4.25 -0.734175
4.26 -0.692226
4.27 -0.643058
4.28 -0.586947
4.29 -0.525774
4.3 -0.460609
4.31 -0.392546
4.32 -0.322785
4.33 -0.251971
4.34 -0.180877
4.35 -0.109923
4.36 -0.0394597
4.37 0.0303132
4.38 0.0990625
4.39 0.166679
4.4 0.232643
4.41 0.296586
4.42 0.357861
4.43 0.415434
4.44 0.468812
4.45 0.516029
4.46 0.556781
4.47 0.589325
4.48 0.612611
4.49 0.626187
4.5 0.628031
4.51 0.619226
4.52 0.598176
4.53 0.566096
4.54 0.52332
4.55 0.470384
4.56 0.409465
4.57 0.340945
4.58 0.267601
4.59 0.190793
4.6 0.112597
4.61 0.0347173
4.62 -0.0409216
4.63 -0.113259
4.64 -0.180634
4.65 -0.24257
4.66 -0.298478
4.67 -0.347847
4.68 -0.391442
4.69 -0.428687
4.7 -0.461027
4.71 -0.488709
4.72 -0.512658
4.73 -0.533773
4.74 -0.552561
4.75 -0.569941
4.76 -0.586264
4.77 -0.601996
4.78 -0.617325
4.79 -0.632309
4.8 -0.646937
4.81 -0.660985
4.82 -0.674337
4.83 -0.686728
4.84 -0.697973
4.85 -0.708011
4.86 -0.71664
4.87 -0.724085
4.88 -0.730333
4.89 -0.735712
4.9 -0.740474
4.91 -0.744951
4.92 -0.749473
4.93 -0.754389
4.94 -0.759889
4.95 -0.766178
4.96 -0.773304
4.97 -0.78118
4.98 -0.789714
4.99 -0.798585
5 -0.807506
5.01 -0.816108
5.02 -0.824063
5.03 -0.830996
5.04 -0.836807
5.05 -0.841159
5.06 -0.844248
5.07 -0.846078
5.08 -0.846916
5.09 -0.847096
5.1 -0.84695
5.11 -0.846854
5.12 -0.847114
5.13 -0.847864
5.14 -0.84908
5.15 -0.85048
5.16 -0.851547
5.17 -0.851252
5.18 -0.848628
5.19 -0.842071
5.2 -0.829866
5.21 -0.810666
5.22 -0.781531
5.23 -0.742103
5.24 -0.689367
5.25 -0.623092
5.26 -0.542305
5.27 -0.446014
5.28 -0.336185
5.29 -0.211761
5.3 -0.0765567
5.31 0.0679335
5.32 0.218171
5.33 0.370545
5.34 0.520674
5.35 0.664783
5.36 0.797512
5.37 0.915389
5.38 1.01454
5.39 1.09032
5.4 1.14278
5.41 1.1659
5.42 1.16287
5.43 1.13148
5.44 1.07336
5.45 0.991648
5.46 0.886716
5.47 0.764982
5.48 0.628467
5.49 0.482923
5.5 0.332462
5.51 0.181815
5.52 0.034788
5.53 -0.103752
5.54 -0.231835
5.55 -0.346165
5.56 -0.445137
5.57 -0.528697
5.58 -0.594784
5.59 -0.646222
5.6 -0.682242
5.61 -0.705698
5.62 -0.718162
5.63 -0.721349
5.64 -0.718069
5.65 -0.709383
5.66 -0.697661
5.67 -0.683888
5.68 -0.669052
5.69 -0.653628
5.7 -0.637609
5.71 -0.620782
5.72 -0.602424
5.73 -0.581852
5.74 -0.558242
5.75 -0.530548
5.76 -0.498616
5.77 -0.461283
5.78 -0.419225
5.79 -0.372341
5.8 -0.321471
5.81 -0.267804
5.82 -0.212626
5.83 -0.157749
5.84 -0.105171
5.85 -0.0567359
5.86 -0.0142797
5.87 0.0199607
5.88 0.0455293
5.89 0.0597222
5.9 0.0634285
5.91 0.0555584
5.92 0.0365873
5.93 0.00775381
5.94 -0.0308533
5.95 -0.0765338
5.96 -0.12843
5.97 -0.184136
5.98 -0.241959
5.99 -0.300029
6 -0.356887
6.01 -0.410845
6.02 -0.461326
6.03 -0.507445
6.04 -0.549015
6.05 -0.586376
6.06 -0.619492
6.07 -0.64956
6.08 -0.677036
6.09 -0.703048
6.1 -0.728386
6.11 -0.753857
6.12 -0.77997
6.13 -0.807215
6.14 -0.835509
6.15 -0.864745
6.16 -0.89442
6.17 -0.923915
6.18 -0.952287
6.19 -0.978854
6.2 -1.00248
6.21 -1.0226
6.22 -1.03861
6.23 -1.04992
6.24 -1.05693
6.25 -1.05918
6.26 -1.05781
6.27 -1.0532
6.28 -1.04635
6.29 -1.03822
6.3 -1.02965
6.31 -1.02134
6.32 -1.01373
6.33 -1.00671
6.34 -0.999742
6.35 -0.991531
6.36 -0.980589
6.37 -0.963727
6.38 -0.93876
6.39 -0.901636
6.4 -0.848429
6.41 -0.776437
6.42 -0.678906
6.43 -0.555874
6.44 -0.400843
6.45 -0.213916
6.46 0.00650298
6.47 0.262316
6.48 0.548706
6.49 0.867874
6.5 1.21142
6.51 1.57621
6.52 1.95486
6.53 2.33976
6.54 2.72207
6.55 3.09368
6.56 3.44368
6.57 3.76433
6.58 4.04734
6.59 4.28212
6.6 4.4679
6.61 4.59069
6.62 4.65549
6.63 4.65578
6.64 4.59244
6.65 4.47062
6.66 4.28708
6.67 4.05503
6.68 3.77497
6.69 3.45852
6.7 3.11318
6.71 2.74736
6.72 2.37144
6.73 1.99377
6.74 1.62295
6.75 1.26692
6.76 0.932655
6.77 0.623912
6.78 0.348676
6.79 0.105141
6.8 -0.100984
6.81 -0.272245
6.82 -0.409059
6.83 -0.511625
6.84 -0.585991
6.85 -0.631153
6.86 -0.654681
6.87 -0.658536
6.88 -0.647148
6.89 -0.624714
6.9 -0.593761
6.91 -0.558317
6.92 -0.520487
6.93 -0.482647
6.94 -0.446326
6.95 -0.412938
6.96 -0.382896
6.97 -0.357296
6.98 -0.335774
6.99 -0.318722
7 -0.306051
7.01 -0.297459
7.02 -0.293407
7.03 -0.29328
7.04 -0.297649
7.05 -0.306296
7.06 -0.319407
7.07 -0.337402
7.08 -0.359871
7.09 -0.387611
7.1 -0.41985
7.11 -0.456746
7.12 -0.497823
7.13 -0.542331
7.14 -0.589848
7.15 -0.639098
7.16 -0.689225
7.17 -0.738991
7.18 -0.787319
7.19 -0.832887
7.2 -0.875074
7.21 -0.912352
7.22 -0.94473
7.23 -0.971425
7.24 -0.992357
7.25 -1.00797
7.26 -1.01805
7.27 -1.02394
7.28 -1.02592
7.29 -1.02524
7.3 -1.02276
7.31 -1.01941
7.32 -1.01598
7.33 -1.01315
7.34 -1.01116
7.35 -1.01011
7.36 -1.00962
7.37 -1.00908
7.38 -1.00734
7.39 -1.00333
7.4 -0.995151
7.41 -0.981349
7.42 -0.960217
7.43 -0.929408
7.44 -0.888517
7.45 -0.834353
7.46 -0.767659
7.47 -0.686854
7.48 -0.591962
7.49 -0.484146
7.5 -0.362828
7.51 -0.231247
7.52 -0.0901332
7.53 0.0572794
7.54 0.208445
7.55 0.360167
7.56 0.50948
7.57 0.652324
7.58 0.786379
7.59 0.908047
7.6 1.01454
7.61 1.10462
7.62 1.17407
7.63 1.22442
7.64 1.25238
7.65 1.25937
7.66 1.24551
7.67 1.21059
7.68 1.15807
7.69 1.08706
7.7 1.00211
7.71 0.904468
7.72 0.797073
7.73 0.682956
7.74 0.564416
7.75 0.444657
7.76 0.32626
7.77 0.211716
7.78 0.10318
7.79 0.00325202
7.8 -0.0874263
7.81 -0.165742
7.82 -0.232247
7.83 -0.285307
7.84 -0.32465
7.85 -0.351055
7.86 -0.363234
7.87 -0.363768
7.88 -0.3522
7.89 -0.330768
7.9 -0.300853
7.91 -0.263963
7.92 -0.22263
7.93 -0.178465
7.94 -0.133982
7.95 -0.0912219
7.96 -0.0523978
7.97 -0.0190079
7.98 0.00630305
7.99 0.0232855
8 0.0297486
8.01 0.0257085
8.02 0.0107957
8.03 -0.0155095
8.04 -0.0515169
8.05 -0.0978212
8.06 -0.151843
8.07 -0.212722
8.08 -0.27854
8.09 -0.347349
8.1 -0.417402
8.11 -0.486811
8.12 -0.553774
8.13 -0.616968
8.14 -0.675298
8.15 -0.727569
8.16 -0.774027
8.17 -0.813613
8.18 -0.847472
8.19 -0.875676
8.2 -0.899088
8.21 -0.91879
8.22 -0.935346
8.23 -0.949988
8.24 -0.96316
8.25 -0.975374
8.26 -0.986651
8.27 -0.996498
8.28 -1.0043
8.29 -1.00824
8.3 -1.00704
8.31 -0.99821
8.32 -0.979139
8.33 -0.948045
8.34 -0.900268
8.35 -0.835621
8.36 -0.749555
8.37 -0.641634
8.38 -0.51051
8.39 -0.354169
8.4 -0.175582
8.41 0.02759
8.42 0.250041
8.43 0.490311
8.44 0.744025
8.45 1.00616
8.46 1.27173
8.47 1.53473
8.48 1.78856
8.49 2.02745
8.5 2.24576
8.51 2.43601
8.52 2.59676
8.53 2.7185
8.54 2.80307
8.55 2.84559
8.56 2.84528
8.57 2.80491
8.58 2.72076
8.59 2.60118
8.6 2.44529
8.61 2.26021
8.62 2.0505
8.63 1.82086
8.64 1.57876
8.65 1.32879
8.66 1.07772
8.67 0.83073
8.68 0.59312
8.69 0.368194
8.7 0.161666
8.71 -0.0264224
8.72 -0.19185
8.73 -0.335201
8.74 -0.456235
8.75 -0.554291
8.76 -0.633038
8.77 -0.691374
8.78 -0.734186
8.79 -0.762746
8.8 -0.780054
8.81 -0.78923
8.82 -0.792168
8.83 -0.79201
8.84 -0.790549
8.85 -0.789735
8.86 -0.790879
8.87 -0.795234
8.88 -0.80302
8.89 -0.815094
8.9 -0.830844
8.91 -0.850227
8.92 -0.872636
8.93 -0.89727
8.94 -0.923542
8.95 -0.950471
8.96 -0.977346
8.97 -1.00345
8.98 -1.02821
8.99 -1.05105
9 -1.07186
9.01 -1.09009
9.02 -1.106
9.03 -1.11943
9.04 -1.13049
9.05 -1.13945
9.06 -1.14617
9.07 -1.15107
9.08 -1.15396
9.09 -1.15494
9.1 -1.15391
9.11 -1.15046
9.12 -1.14458
9.13 -1.13539
9.14 -1.12285
9.15 -1.10618
9.16 -1.08485
9.17 -1.0587
9.18 -1.02662
9.19 -0.98914
9.2 -0.945452
9.21 -0.896049
9.22 -0.84117
9.23 -0.781051
9.24 -0.716945
9.25 -0.649295
9.26 -0.579738
9.27 -0.509439
9.28 -0.44
9.29 -0.372759
9.3 -0.309786
9.31 -0.251915
9.32 -0.201196
9.33 -0.158369
9.34 -0.12433
9.35 -0.100343
9.36 -0.0855898
9.37 -0.0815302
9.38 -0.0864181
9.39 -0.100219
9.4 -0.121786
9.41 -0.149488
9.42 -0.182474
9.43 -0.218496
9.44 -0.256246
9.45 -0.293921
9.46 -0.330124
9.47 -0.363282
9.48 -0.392748
9.49 -0.417039
9.5 -0.436342
9.51 -0.45016
9.52 -0.45872
9.53 -0.462791
9.54 -0.462618
9.55 -0.459697
9.56 -0.454806
9.57 -0.449291
9.58 -0.44422
9.59 -0.44082
9.6 -0.439754
9.61 -0.44222
9.62 -0.448275
9.63 -0.458424
9.64 -0.472652
9.65 -0.490493
9.66 -0.511935
9.67 -0.535909
9.68 -0.562011
9.69 -0.589312
9.7 -0.617131
9.71 -0.644757
9.72 -0.671704
9.73 -0.697405
9.74 -0.721758
9.75 -0.744561
9.76 -0.765828
9.77 -0.785733
9.78 -0.804198
9.79 -0.821452
9.8 -0.837229
9.81 -0.851274
9.82 -0.862997
9.83 -0.871139
9.84 -0.874833
9.85 -0.871345
9.86 -0.859355
9.87 -0.835759
9.88 -0.797495
9.89 -0.742774
9.9 -0.66584
9.91 -0.566958
9.92 -0.440668
9.93 -0.286529
9.94 -0.103088
9.95 0.112334
9.96 0.355986
9.97 0.630985
9.98 0.930985
9.99 1.25439
10 1.59615
10.01 1.95008
10.02 2.31055
10.03 2.66989
10.04 3.02029
10.05 3.35432
10.06 3.66494
10.07 3.94261
10.08 4.18505
10.09 4.38033
10.1 4.52986
10.11 4.62727
10.12 4.67075
10.13 4.66345
10.14 4.59968
10.15 4.48971
10.16 4.33175
10.17 4.13417
10.18 3.90245
10.19 3.64174
10.2 3.36164
10.21 3.067
10.22 2.7667
10.23 2.46675
10.24 2.17374
10.25 1.89199
10.26 1.62804
10.27 1.38261
10.28 1.16034
10.29 0.960987
10.3 0.784771
10.31 0.632458
10.32 0.500075
10.33 0.388517
10.34 0.292652
10.35 0.210889
10.36 0.14005
10.37 0.0768561
10.38 0.0193248
10.39 -0.0355704
10.4 -0.0894983
10.41 -0.144098
10.42 -0.200332
10.43 -0.258951
10.44 -0.31982
10.45 -0.383038
10.46 -0.447757
10.47 -0.513327
10.48 -0.578732
10.49 -0.643081
10.5 -0.705079
10.51 -0.764159
10.52 -0.819118
10.53 -0.869522
10.54 -0.914904
10.55 -0.95456
10.56 -0.988976
10.57 -1.01729
10.58 -1.04035
10.59 -1.05797
10.6 -1.07041
10.61 -1.07825
10.62 -1.08115
10.63 -1.08002
10.64 -1.07458
10.65 -1.06531
10.66 -1.05234
10.67 -1.03561
10.68 -1.01566
10.69 -0.992179
10.7 -0.965829
10.71 -0.936691
10.72 -0.905176
10.73 -0.871861
10.74 -0.837148
10.75 -0.801868
10.76 -0.766717
10.77 -0.732545
10.78 -0.700146
10.79 -0.670612
10.8 -0.644392
10.81 -0.622892
10.82 -0.606227
10.83 -0.59528
10.84 -0.590508
10.85 -0.591726
10.86 -0.599846
10.87 -0.613784
10.88 -0.633933
10.89 -0.659376
10.9 -0.689497
10.91 -0.723724
10.92 -0.760782
10.93 -0.800044
10.94 -0.84023
10.95 -0.880438
10.96 -0.919622
10.97 -0.95705
10.98 -0.991576
10.99 -1.02298
11 -1.05038
11.01 -1.07366
11.02 -1.09271
11.03 -1.10725
11.04 -1.11796
11.05 -1.12464
11.06 -1.12826
11.07 -1.1292
11.08 -1.1282
11.09 -1.12604
11.1 -1.12337
11.11 -1.12091
11.12 -1.11928
11.13 -1.11888
11.14 -1.11996
11.15 -1.12267
11.16 -1.12662
11.17 -1.13147
11.18 -1.13633
11.19 -1.14016
11.2 -1.1415
11.21 -1.13908
11.22 -1.13029
11.23 -1.11416
11.24 -1.08769
11.25 -1.0494
11.26 -0.997512
11.27 -0.92913
11.28 -0.844769
11.29 -0.740686
11.3 -0.618671
11.31 -0.477446
11.32 -0.317557
11.33 -0.141303
11.34 0.0515755
11.35 0.256418
11.36 0.471598
11.37 0.692738
11.38 0.916124
11.39 1.13709
11.4 1.3518
11.41 1.55426
11.42 1.74151
11.43 1.90854
11.44 2.05124
11.45 2.16842
11.46 2.25355
11.47 2.30941
11.48 2.33147
11.49 2.32172
11.5 2.28097
11.51 2.20882
11.52 2.11093
11.53 1.98652
11.54 1.84234
11.55 1.68085
11.56 1.50655
11.57 1.32413
11.58 1.13727
11.59 0.950415
11.6 0.767284
11.61 0.591023
11.62 0.424095
11.63 0.269502
11.64 0.127199
11.65 7.12452e-05
11.66 -0.113466
11.67 -0.212803
11.68 -0.29874
11.69 -0.373237
11.7 -0.436302
11.71 -0.491093
11.72 -0.53832
11.73 -0.58019
11.74 -0.618148
11.75 -0.653411
11.76 -0.687255
11.77 -0.720277
11.78 -0.752972
11.79 -0.785354
11.8 -0.817089
11.81 -0.847661
11.82 -0.87587
11.83 -0.900959
11.84 -0.921226
11.85 -0.935504
11.86 -0.94251
11.87 -0.940198
11.88 -0.928482
11.89 -0.904699
11.9 -0.869467
11.91 -0.821518
11.92 -0.760569
11.93 -0.687632
11.94 -0.601534
11.95 -0.504937
11.96 -0.397782
11.97 -0.282316
11.98 -0.160263
11.99 -0.033483
12 0.095412
12.01 0.224086
12.02 0.350057
12.03 0.470755
12.04 0.583523
12.05 0.68687
12.06 0.777064
12.07 0.854244
12.08 0.915355
12.09 0.960246
12.1 0.988408
12.11 0.998416
12.12 0.992561
12.13 0.969106
12.14 0.931279
12.15 0.879576
12.16 0.815898
12.17 0.742917
12.18 0.661813
12.19 0.575923
12.2 0.486977
12.21 0.397447
12.22 0.309181
12.23 0.224229
12.24 0.143523
12.25 0.0689149
12.26 0.000370782
12.27 -0.0614352
12.28 -0.116552
12.29 -0.165818
12.3 -0.209183
12.31 -0.248363
12.32 -0.283935
12.33 -0.317294
12.34 -0.349467
12.35 -0.381473
12.36 -0.414062
12.37 -0.447927
12.38 -0.483156
