# xPDFsuite Configuration #
[PDF]
wavelength = 0.1432
dataformat = twotheta
inputfile = 1_1Pd_CeO2_cycle-00437.chi
backgroundfile = background-00000.chi
mode = xray
bgscale = 1.007
composition = CeO2
outputtype = gr
qmaxinst = 28.8974762299
qmin = 0.5
qmax = 27.9
rmax = 50.0
rmin = 0.0
rstep = 0.01
rpoly = 1.8657

[Misc]
inputdir = G:/SankarDec16/1Pd/Chi
savedir = D:/DATA/APS_CeO2/1Pd
backgroundfilefull = G:/SankarDec16/Background/background-00000.chi

#### start data
#S 1
#L r($\AA$)  G($\AA^{-2}$)
0 0
0.01 -0.00508095
0.02 -0.00977786
0.03 -0.0136954
0.04 -0.016536
0.05 -0.0181344
0.06 -0.0182251
0.07 -0.0169861
0.08 -0.0143335
0.09 -0.0106066
0.1 -0.006041
0.11 -0.000996359
0.12 0.00413639
0.13 0.00891733
0.14 0.0130374
0.15 0.0161166
0.16 0.0179343
0.17 0.0184039
0.18 0.017347
0.19 0.0150268
0.2 0.0114576
0.21 0.00703597
0.22 0.00205573
0.23 -0.00307878
0.24 -0.00800072
0.25 -0.0122363
0.26 -0.0155667
0.27 -0.0176465
0.28 -0.0183429
0.29 -0.0176525
0.3 -0.0154929
0.31 -0.0121999
0.32 -0.00788512
0.33 -0.00298285
0.34 0.00216943
0.35 0.00714272
0.36 0.0116127
0.37 0.0150955
0.38 0.0174734
0.39 0.0184531
0.4 0.0179965
0.41 0.0161837
0.42 0.013033
0.43 0.0089358
0.44 0.004096
0.45 -0.0010359
0.46 -0.00609574
0.47 -0.010651
0.48 -0.0144365
0.49 -0.0169824
0.5 -0.0182783
0.51 -0.0180981
0.52 -0.0165006
0.53 -0.0136457
0.54 -0.0096521
0.55 -0.00494736
0.56 0.000182313
0.57 0.00529243
0.58 0.0100106
0.59 0.0139221
0.6 0.0168346
0.61 0.0183159
0.62 0.0184641
0.63 0.0171318
0.64 0.0144722
0.65 0.0107175
0.66 0.00608118
0.67 0.0010059
0.68 -0.00415395
0.69 -0.00898191
0.7 -0.013116
0.71 -0.01618
0.72 -0.0180642
0.73 -0.0183957
0.74 -0.0173758
0.75 -0.0149431
0.76 -0.0113372
0.77 -0.00685037
0.78 -0.00177924
0.79 0.00344122
0.8 0.00840824
0.81 0.0127548
0.82 0.0161493
0.83 0.0182742
0.84 0.0191081
0.85 0.0183581
0.86 0.0163171
0.87 0.0130125
0.88 0.00875569
0.89 0.00388084
0.9 -0.00125218
0.91 -0.00624407
0.92 -0.0106737
0.93 -0.0142503
0.94 -0.0167011
0.95 -0.0177981
0.96 -0.0176164
0.97 -0.0159845
0.98 -0.0132726
0.99 -0.00961725
1 -0.00539529
1.01 -0.000969334
1.02 0.0032364
1.03 0.00689516
1.04 0.00957611
1.05 0.0111025
1.06 0.0112869
1.07 0.0100265
1.08 0.00752511
1.09 0.00378081
1.1 -0.000729858
1.11 -0.00570967
1.12 -0.0106729
1.13 -0.0151935
1.14 -0.0187026
1.15 -0.0209393
1.16 -0.0213648
1.17 -0.019903
1.18 -0.016395
1.19 -0.0107989
1.2 -0.0034712
1.21 0.00554099
1.22 0.0155676
1.23 0.0262011
1.24 0.0367992
1.25 0.0468065
1.26 0.0554779
1.27 0.0624654
1.28 0.0670327
1.29 0.0690287
1.3 0.0681627
1.31 0.0642381
1.32 0.0576161
1.33 0.0480681
1.34 0.0363702
1.35 0.0227537
1.36 0.00785419
1.37 -0.00773747
1.38 -0.0233963
1.39 -0.0385471
1.4 -0.0525203
1.41 -0.0649094
1.42 -0.0752798
1.43 -0.08321
1.44 -0.0887567
1.45 -0.0913863
1.46 -0.0915342
1.47 -0.0890419
1.48 -0.0841678
1.49 -0.077215
1.5 -0.0682752
1.51 -0.0578901
1.52 -0.0462021
1.53 -0.0336684
1.54 -0.0205726
1.55 -0.00724687
1.56 0.00601058
1.57 0.0188448
1.58 0.0310344
1.59 0.042241
1.6 0.0522025
1.61 0.0607307
1.62 0.0673928
1.63 0.0722178
1.64 0.0747455
1.65 0.0750268
1.66 0.0729066
1.67 0.0682592
1.68 0.0613758
1.69 0.0520151
1.7 0.0407611
1.71 0.0277283
1.72 0.013386
1.73 -0.00179556
1.74 -0.0173282
1.75 -0.0326648
1.76 -0.0472129
1.77 -0.0605278
1.78 -0.0721644
1.79 -0.0816783
1.8 -0.0890775
1.81 -0.0938868
1.82 -0.096542
1.83 -0.0970251
1.84 -0.0957534
1.85 -0.0932041
1.86 -0.0898437
1.87 -0.086322
1.88 -0.0832409
1.89 -0.0811302
1.9 -0.0804604
1.91 -0.0816765
1.92 -0.0847701
1.93 -0.0900978
1.94 -0.0971694
1.95 -0.105816
1.96 -0.115443
1.97 -0.125416
1.98 -0.134913
1.99 -0.143235
2 -0.149361
2.01 -0.152704
2.02 -0.152572
2.03 -0.148269
2.04 -0.139921
2.05 -0.126691
2.06 -0.10939
2.07 -0.0879162
2.08 -0.0628986
2.09 -0.0350504
2.1 -0.00488097
2.11 0.0265974
2.12 0.0587805
2.13 0.0909199
2.14 0.122509
2.15 0.153115
2.16 0.182677
2.17 0.211043
2.18 0.238608
2.19 0.265676
2.2 0.292805
2.21 0.320514
2.22 0.349512
2.23 0.380092
2.24 0.412829
2.25 0.447659
2.26 0.484501
2.27 0.522939
2.28 0.56214
2.29 0.601015
2.3 0.638295
2.31 0.672306
2.32 0.701341
2.33 0.724051
2.34 0.73788
2.35 0.742613
2.36 0.735769
2.37 0.717569
2.38 0.687422
2.39 0.645058
2.4 0.592342
2.41 0.528888
2.42 0.45795
2.43 0.380861
2.44 0.300352
2.45 0.218904
2.46 0.139366
2.47 0.0638325
2.48 -0.00477673
2.49 -0.06514
2.5 -0.115738
2.51 -0.15524
2.52 -0.184534
2.53 -0.202243
2.54 -0.210955
2.55 -0.211175
2.56 -0.205051
2.57 -0.194728
2.58 -0.182235
2.59 -0.169895
2.6 -0.159859
2.61 -0.153701
2.62 -0.152759
2.63 -0.158179
2.64 -0.169609
2.65 -0.18785
2.66 -0.211206
2.67 -0.239047
2.68 -0.269678
2.69 -0.301447
2.7 -0.332475
2.71 -0.361264
2.72 -0.385918
2.73 -0.405572
2.74 -0.419368
2.75 -0.426715
2.76 -0.428415
2.77 -0.424239
2.78 -0.416109
2.79 -0.405043
2.8 -0.392889
2.81 -0.38129
2.82 -0.372256
2.83 -0.366896
2.84 -0.367008
2.85 -0.37296
2.86 -0.385209
2.87 -0.40381
2.88 -0.4275
2.89 -0.455813
2.9 -0.486525
2.91 -0.51805
2.92 -0.548223
2.93 -0.57529
2.94 -0.596818
2.95 -0.612092
2.96 -0.619105
2.97 -0.617989
2.98 -0.608571
2.99 -0.591191
3 -0.567717
3.01 -0.539028
3.02 -0.507937
3.03 -0.476491
3.04 -0.447281
3.05 -0.422319
3.06 -0.404417
3.07 -0.394197
3.08 -0.393854
3.09 -0.403008
3.1 -0.421674
3.11 -0.44927
3.12 -0.483549
3.13 -0.523361
3.14 -0.565548
3.15 -0.607804
3.16 -0.647342
3.17 -0.682086
3.18 -0.70917
3.19 -0.728168
3.2 -0.737076
3.21 -0.73663
3.22 -0.727202
3.23 -0.709895
3.24 -0.687272
3.25 -0.66123
3.26 -0.635012
3.27 -0.611427
3.28 -0.593398
3.29 -0.582912
3.3 -0.583022
3.31 -0.593515
3.32 -0.616258
3.33 -0.649756
3.34 -0.693043
3.35 -0.744244
3.36 -0.80012
3.37 -0.857832
3.38 -0.913723
3.39 -0.964277
3.4 -1.00623
3.41 -1.03758
3.42 -1.05494
3.43 -1.0592
3.44 -1.04858
3.45 -1.02545
3.46 -0.991441
3.47 -0.94927
3.48 -0.902934
3.49 -0.856185
3.5 -0.81302
3.51 -0.777392
3.52 -0.752444
3.53 -0.739655
3.54 -0.741472
3.55 -0.7555
3.56 -0.781201
3.57 -0.813773
3.58 -0.848485
3.59 -0.878206
3.6 -0.896696
3.61 -0.892673
3.62 -0.861029
3.63 -0.791259
3.64 -0.676353
3.65 -0.512879
3.66 -0.290421
3.67 -0.0147155
3.68 0.321065
3.69 0.708743
3.7 1.14412
3.71 1.6202
3.72 2.12339
3.73 2.6441
3.74 3.16601
3.75 3.6747
3.76 4.15416
3.77 4.59232
3.78 4.9688
3.79 5.28028
3.8 5.50761
3.81 5.65038
3.82 5.7028
3.83 5.65955
3.84 5.53222
3.85 5.31213
3.86 5.02023
3.87 4.65984
3.88 4.24545
3.89 3.79172
3.9 3.31019
3.91 2.81792
3.92 2.32788
3.93 1.853
3.94 1.40406
3.95 0.992492
3.96 0.620808
3.97 0.301251
3.98 0.0287944
3.99 -0.19209
4 -0.364512
4.01 -0.493988
4.02 -0.581225
4.03 -0.637398
4.04 -0.665214
4.05 -0.674
4.06 -0.669475
4.07 -0.657646
4.08 -0.643879
4.09 -0.632537
4.1 -0.626222
4.11 -0.627152
4.12 -0.635928
4.13 -0.651901
4.14 -0.674581
4.15 -0.701362
4.16 -0.73041
4.17 -0.758955
4.18 -0.784649
4.19 -0.804794
4.2 -0.818192
4.21 -0.821962
4.22 -0.816481
4.23 -0.800468
4.24 -0.77421
4.25 -0.738666
4.26 -0.693778
4.27 -0.641882
4.28 -0.583438
4.29 -0.52042
4.3 -0.453987
4.31 -0.385311
4.32 -0.315528
4.33 -0.245338
4.34 -0.175345
4.35 -0.105903
4.36 -0.0372032
4.37 0.0307097
4.38 0.0976782
4.39 0.163734
4.4 0.228541
4.41 0.291822
4.42 0.353021
4.43 0.411183
4.44 0.465749
4.45 0.514803
4.46 0.557859
4.47 0.593087
4.48 0.619251
4.49 0.635714
4.5 0.640224
4.51 0.633697
4.52 0.614284
4.53 0.583082
4.54 0.540289
4.55 0.486311
4.56 0.423415
4.57 0.351864
4.58 0.274688
4.59 0.193335
4.6 0.110128
4.61 0.0270316
4.62 -0.0537246
4.63 -0.130805
4.64 -0.202187
4.65 -0.267165
4.66 -0.324912
4.67 -0.374663
4.68 -0.417239
4.69 -0.451796
4.7 -0.480079
4.71 -0.502363
4.72 -0.519853
4.73 -0.533782
4.74 -0.544994
4.75 -0.554844
4.76 -0.564138
4.77 -0.573736
4.78 -0.584205
4.79 -0.596026
4.8 -0.609235
4.81 -0.624075
4.82 -0.640158
4.83 -0.657312
4.84 -0.675102
4.85 -0.693099
4.86 -0.710812
4.87 -0.727865
4.88 -0.743761
4.89 -0.758258
4.9 -0.771101
4.91 -0.782032
4.92 -0.791179
4.93 -0.798236
4.94 -0.803561
4.95 -0.807117
4.96 -0.809113
4.97 -0.809804
4.98 -0.809287
4.99 -0.807951
5 -0.805957
5.01 -0.803646
5.02 -0.801285
5.03 -0.799215
5.04 -0.797691
5.05 -0.797171
5.06 -0.797827
5.07 -0.800039
5.08 -0.80403
5.09 -0.809853
5.1 -0.81777
5.11 -0.827398
5.12 -0.838658
5.13 -0.850894
5.14 -0.863434
5.15 -0.875207
5.16 -0.88521
5.17 -0.89153
5.18 -0.893088
5.19 -0.887791
5.2 -0.873857
5.21 -0.850154
5.22 -0.813697
5.23 -0.7649
5.24 -0.701067
5.25 -0.622803
5.26 -0.529812
5.27 -0.421937
5.28 -0.301741
5.29 -0.169119
5.3 -0.0281257
5.31 0.119154
5.32 0.268999
5.33 0.417936
5.34 0.561408
5.35 0.696403
5.36 0.817779
5.37 0.922917
5.38 1.00862
5.39 1.07109
5.4 1.11105
5.41 1.12349
5.42 1.11194
5.43 1.0749
5.44 1.01428
5.45 0.933213
5.46 0.832378
5.47 0.717505
5.48 0.590541
5.49 0.456433
5.5 0.318687
5.51 0.181264
5.52 0.0472234
5.53 -0.079448
5.54 -0.19729
5.55 -0.30369
5.56 -0.397443
5.57 -0.478577
5.58 -0.545438
5.59 -0.600307
5.6 -0.642459
5.61 -0.674075
5.62 -0.696234
5.63 -0.710016
5.64 -0.717531
5.65 -0.719116
5.66 -0.716599
5.67 -0.71036
5.68 -0.700972
5.69 -0.688775
5.7 -0.673362
5.71 -0.654915
5.72 -0.632626
5.73 -0.60634
5.74 -0.575617
5.75 -0.539915
5.76 -0.499673
5.77 -0.454309
5.78 -0.404977
5.79 -0.352082
5.8 -0.296826
5.81 -0.240534
5.82 -0.184838
5.83 -0.131249
5.84 -0.0818533
5.85 -0.0380805
5.86 -0.00146539
5.87 0.0261498
5.88 0.0447901
5.89 0.0522051
5.9 0.0496804
5.91 0.0365281
5.92 0.0135237
5.93 -0.0179762
5.94 -0.0575978
5.95 -0.10286
5.96 -0.152816
5.97 -0.205363
5.98 -0.259021
5.99 -0.312193
6 -0.36378
6.01 -0.412389
6.02 -0.457747
6.03 -0.49924
6.04 -0.53689
6.05 -0.57113
6.06 -0.602107
6.07 -0.630895
6.08 -0.658009
6.09 -0.684402
6.1 -0.710748
6.11 -0.737713
6.12 -0.765606
6.13 -0.794796
6.14 -0.825046
6.15 -0.856151
6.16 -0.887541
6.17 -0.918577
6.18 -0.948303
6.19 -0.976096
6.2 -1.00086
6.21 -1.0221
6.22 -1.03928
6.23 -1.05185
6.24 -1.06024
6.25 -1.06399
6.26 -1.0642
6.27 -1.06119
6.28 -1.05584
6.29 -1.04902
6.3 -1.0414
6.31 -1.03361
6.32 -1.02592
6.33 -1.01816
6.34 -1.00976
6.35 -0.999374
6.36 -0.985653
6.37 -0.965423
6.38 -0.936739
6.39 -0.895715
6.4 -0.83868
6.41 -0.763154
6.42 -0.662701
6.43 -0.537495
6.44 -0.381336
6.45 -0.194392
6.46 0.0248507
6.47 0.278227
6.48 0.561122
6.49 0.875727
6.5 1.21401
6.51 1.57301
6.52 1.94572
6.53 2.32481
6.54 2.70183
6.55 3.06887
6.56 3.41538
6.57 3.73374
6.58 4.01576
6.59 4.25097
6.6 4.43839
6.61 4.5641
6.62 4.63271
6.63 4.63753
6.64 4.57914
6.65 4.46238
6.66 4.2837
6.67 4.05609
6.68 3.77978
6.69 3.46631
6.7 3.12309
6.71 2.7585
6.72 2.38308
6.73 2.00524
6.74 1.63386
6.75 1.27706
6.76 0.942085
6.77 0.632885
6.78 0.357693
6.79 0.114764
6.8 -0.0900517
6.81 -0.259368
6.82 -0.393684
6.83 -0.493355
6.84 -0.564689
6.85 -0.606978
6.86 -0.628081
6.87 -0.630306
6.88 -0.61838
6.89 -0.596661
6.9 -0.568017
6.91 -0.536331
6.92 -0.503857
6.93 -0.4727
6.94 -0.444165
6.95 -0.419338
6.96 -0.398165
6.97 -0.381256
6.98 -0.367773
6.99 -0.357584
7 -0.350141
7.01 -0.344904
7.02 -0.341803
7.03 -0.340425
7.04 -0.341065
7.05 -0.343847
7.06 -0.349206
7.07 -0.357912
7.08 -0.370176
7.09 -0.387282
7.1 -0.409114
7.11 -0.436417
7.12 -0.469288
7.13 -0.507313
7.14 -0.550672
7.15 -0.597969
7.16 -0.648679
7.17 -0.701266
7.18 -0.754438
7.19 -0.806558
7.2 -0.856385
7.21 -0.901949
7.22 -0.942592
7.23 -0.976974
7.24 -1.00446
7.25 -1.02518
7.26 -1.03836
7.27 -1.04545
7.28 -1.04648
7.29 -1.043
7.3 -1.03611
7.31 -1.02708
7.32 -1.01729
7.33 -1.00791
7.34 -0.999767
7.35 -0.993493
7.36 -0.989224
7.37 -0.986575
7.38 -0.984876
7.39 -0.982841
7.4 -0.978748
7.41 -0.970739
7.42 -0.956783
7.43 -0.934075
7.44 -0.901607
7.45 -0.85557
7.46 -0.796161
7.47 -0.721205
7.48 -0.630251
7.49 -0.524271
7.5 -0.40221
7.51 -0.267635
7.52 -0.121145
7.53 0.0335329
7.54 0.193456
7.55 0.354896
7.56 0.514222
7.57 0.666695
7.58 0.809421
7.59 0.938177
7.6 1.04969
7.61 1.14256
7.62 1.21208
7.63 1.26016
7.64 1.28341
7.65 1.28378
7.66 1.26181
7.67 1.21784
7.68 1.15603
7.69 1.07618
7.7 0.98339
7.71 0.879511
7.72 0.767938
7.73 0.651834
7.74 0.533915
7.75 0.416974
7.76 0.303632
7.77 0.195816
7.78 0.0952171
7.79 0.00383828
7.8 -0.0783288
7.81 -0.148898
7.82 -0.208911
7.83 -0.257316
7.84 -0.294222
7.85 -0.320472
7.86 -0.335117
7.87 -0.340247
7.88 -0.335357
7.89 -0.322055
7.9 -0.3012
7.91 -0.273633
7.92 -0.241244
7.93 -0.204848
7.94 -0.166528
7.95 -0.127742
7.96 -0.090367
7.97 -0.0559047
7.98 -0.0267023
7.99 -0.00359312
8 0.011123
8.01 0.0167602
8.02 0.0123679
8.03 -0.00330365
8.04 -0.0292227
8.05 -0.0668354
8.06 -0.113974
8.07 -0.170373
8.08 -0.234431
8.09 -0.304161
8.1 -0.378094
8.11 -0.453703
8.12 -0.529047
8.13 -0.602058
8.14 -0.671028
8.15 -0.734006
8.16 -0.790567
8.17 -0.838782
8.18 -0.879397
8.19 -0.911895
8.2 -0.936841
8.21 -0.95538
8.22 -0.967824
8.23 -0.976071
8.24 -0.980736
8.25 -0.983094
8.26 -0.983799
8.27 -0.983139
8.28 -0.981162
8.29 -0.976944
8.3 -0.969593
8.31 -0.957206
8.32 -0.937466
8.33 -0.908509
8.34 -0.865934
8.35 -0.808865
8.36 -0.732587
8.37 -0.635886
8.38 -0.516779
8.39 -0.372471
8.4 -0.205254
8.41 -0.0118994
8.42 0.20269
8.43 0.437661
8.44 0.688955
8.45 0.951496
8.46 1.2206
8.47 1.48962
8.48 1.75185
8.49 2.00078
8.5 2.23018
8.51 2.43189
8.52 2.60377
8.53 2.73552
8.54 2.82856
8.55 2.87742
8.56 2.881
8.57 2.84206
8.58 2.75657
8.59 2.63342
8.6 2.47178
8.61 2.27939
8.62 2.06128
8.63 1.82277
8.64 1.57191
8.65 1.31395
8.66 1.05608
8.67 0.803958
8.68 0.563211
8.69 0.337163
8.7 0.131821
8.71 -0.0531984
8.72 -0.213684
8.73 -0.350714
8.74 -0.464429
8.75 -0.554635
8.76 -0.625496
8.77 -0.676427
8.78 -0.712669
8.79 -0.735893
8.8 -0.749367
8.81 -0.756257
8.82 -0.758714
8.83 -0.759577
8.84 -0.760667
8.85 -0.763585
8.86 -0.769375
8.87 -0.77898
8.88 -0.792247
8.89 -0.809704
8.9 -0.830456
8.91 -0.854197
8.92 -0.880123
8.93 -0.90738
8.94 -0.935211
8.95 -0.962802
8.96 -0.989414
8.97 -1.01452
8.98 -1.03772
8.99 -1.05857
9 -1.07719
9.01 -1.09319
9.02 -1.10698
9.03 -1.11853
9.04 -1.12804
9.05 -1.1358
9.06 -1.14175
9.07 -1.14622
9.08 -1.14905
9.09 -1.15028
9.1 -1.14972
9.11 -1.14697
9.12 -1.14193
9.13 -1.13375
9.14 -1.12233
9.15 -1.10694
9.16 -1.08703
9.17 -1.06246
9.18 -1.03216
9.19 -0.996638
9.2 -0.955093
9.21 -0.907963
9.22 -0.855423
9.23 -0.797601
9.24 -0.735641
9.25 -0.669794
9.26 -0.601575
9.27 -0.531952
9.28 -0.462363
9.29 -0.394075
9.3 -0.328929
9.31 -0.267872
9.32 -0.212844
9.33 -0.164753
9.34 -0.124634
9.35 -0.0939486
9.36 -0.0722003
9.37 -0.0611667
9.38 -0.0594558
9.39 -0.0674138
9.4 -0.0842717
9.41 -0.108613
9.42 -0.140061
9.43 -0.176286
9.44 -0.216286
9.45 -0.258097
9.46 -0.300208
9.47 -0.340897
9.48 -0.379035
9.49 -0.412868
9.5 -0.441998
9.51 -0.465466
9.52 -0.482946
9.53 -0.494818
9.54 -0.500687
9.55 -0.501961
9.56 -0.498938
9.57 -0.492992
9.58 -0.485192
9.59 -0.476769
9.6 -0.468876
9.61 -0.462829
9.62 -0.45936
9.63 -0.459402
9.64 -0.463544
9.65 -0.471816
9.66 -0.484874
9.67 -0.501921
9.68 -0.523111
9.69 -0.54765
9.7 -0.574983
9.71 -0.604542
9.72 -0.635456
9.73 -0.667198
9.74 -0.699044
9.75 -0.730464
9.76 -0.760922
9.77 -0.790079
9.78 -0.817263
9.79 -0.842309
9.8 -0.864398
9.81 -0.88302
9.82 -0.897363
9.83 -0.905912
9.84 -0.90805
9.85 -0.900867
9.86 -0.883547
9.87 -0.85319
9.88 -0.807177
9.89 -0.744188
9.9 -0.658944
9.91 -0.552162
9.92 -0.418885
9.93 -0.259012
9.94 -0.0713793
9.95 0.14635
9.96 0.390526
9.97 0.663964
9.98 0.960671
9.99 1.2791
10 1.6145
10.01 1.96109
10.02 2.3135
10.03 2.66456
10.04 3.00684
10.05 3.3333
10.06 3.63724
10.07 3.90948
10.08 4.14781
10.09 4.34068
10.1 4.48934
10.11 4.58752
10.12 4.63327
10.13 4.62953
10.14 4.5705
10.15 4.46602
10.16 4.31408
10.17 4.12271
10.18 3.89706
10.19 3.64197
10.2 3.36684
10.21 3.0762
10.22 2.77889
10.23 2.48078
10.24 2.18842
10.25 1.90627
10.26 1.64085
10.27 1.39319
10.28 1.16807
10.29 0.965543
10.3 0.786092
10.31 0.630791
10.32 0.495879
10.33 0.382594
10.34 0.285898
10.35 0.204399
10.36 0.134996
10.37 0.0743368
10.38 0.0205073
10.39 -0.0298232
10.4 -0.0784384
10.41 -0.127315
10.42 -0.177714
10.43 -0.230769
10.44 -0.286643
10.45 -0.34591
10.46 -0.407909
10.47 -0.472328
10.48 -0.538358
10.49 -0.605085
10.5 -0.671472
10.51 -0.736582
10.52 -0.799217
10.53 -0.858532
10.54 -0.913712
10.55 -0.963622
10.56 -1.00826
10.57 -1.04619
10.58 -1.07785
10.59 -1.10254
10.6 -1.1201
10.61 -1.13096
10.62 -1.13427
10.63 -1.13125
10.64 -1.12139
10.65 -1.10553
10.66 -1.0841
10.67 -1.05739
10.68 -1.02656
10.69 -0.991793
10.7 -0.954386
10.71 -0.914996
10.72 -0.874611
10.73 -0.834134
10.74 -0.79461
10.75 -0.756763
10.76 -0.721658
10.77 -0.689917
10.78 -0.662145
10.79 -0.639215
10.8 -0.620952
10.81 -0.608398
10.82 -0.600969
10.83 -0.599004
10.84 -0.602348
10.85 -0.610422
10.86 -0.623493
10.87 -0.640466
10.88 -0.661346
10.89 -0.685361
10.9 -0.712032
10.91 -0.740969
10.92 -0.771467
10.93 -0.803247
10.94 -0.835695
10.95 -0.868446
10.96 -0.901052
10.97 -0.933171
10.98 -0.964298
10.99 -0.994221
11 -1.02243
11.01 -1.04867
11.02 -1.07267
11.03 -1.09395
11.04 -1.11261
11.05 -1.12805
11.06 -1.14057
11.07 -1.14999
11.08 -1.1564
11.09 -1.1602
11.1 -1.16135
11.11 -1.16057
11.12 -1.15808
11.13 -1.15446
11.14 -1.15009
11.15 -1.14532
11.16 -1.14041
11.17 -1.13539
11.18 -1.1301
11.19 -1.12408
11.2 -1.11653
11.21 -1.10662
11.22 -1.09244
11.23 -1.07305
11.24 -1.0459
11.25 -1.00936
11.26 -0.961538
11.27 -0.899369
11.28 -0.822759
11.29 -0.727647
11.3 -0.615101
11.31 -0.483307
11.32 -0.332181
11.33 -0.163602
11.34 0.0233393
11.35 0.224034
11.36 0.437251
11.37 0.658502
11.38 0.883954
11.39 1.10879
11.4 1.32864
11.41 1.5372
11.42 1.73088
11.43 1.90421
11.44 2.05255
11.45 2.17436
11.46 2.26258
11.47 2.32002
11.48 2.34185
11.49 2.33026
11.5 2.28622
11.51 2.20958
11.52 2.10649
11.53 1.97658
11.54 1.82714
11.55 1.66109
11.56 1.48343
11.57 1.29909
11.58 1.11224
11.59 0.927163
11.6 0.747803
11.61 0.577022
11.62 0.417017
11.63 0.270459
11.64 0.136746
11.65 0.0182752
11.66 -0.0870881
11.67 -0.17926
11.68 -0.259538
11.69 -0.330109
11.7 -0.391515
11.71 -0.446707
11.72 -0.49662
11.73 -0.54315
11.74 -0.587465
11.75 -0.630459
11.76 -0.672819
11.77 -0.714692
11.78 -0.756
11.79 -0.796257
11.8 -0.834645
11.81 -0.870414
11.82 -0.901874
11.83 -0.928432
11.84 -0.948181
11.85 -0.960221
11.86 -0.963508
11.87 -0.956274
11.88 -0.938943
11.89 -0.909225
11.9 -0.868221
11.91 -0.815067
11.92 -0.749861
11.93 -0.67379
11.94 -0.58603
11.95 -0.489092
11.96 -0.383023
11.97 -0.269821
11.98 -0.150987
11.99 -0.028108
12 0.0965889
12.01 0.221104
12.02 0.343281
12.03 0.460842
12.04 0.571365
12.05 0.673415
12.06 0.763441
12.07 0.841369
12.08 0.90411
12.09 0.951237
12.1 0.98199
12.11 0.994644
12.12 0.991212
12.13 0.96963
12.14 0.93297
12.15 0.881543
12.16 0.817182
12.17 0.742652
12.18 0.659152
12.19 0.570339
12.2 0.478161
12.21 0.385449
12.22 0.294372
12.23 0.207381
12.24 0.125593
12.25 0.0512701
12.26 -0.0156413
12.27 -0.0743422
12.28 -0.124954
12.29 -0.16858
12.3 -0.205337
12.31 -0.237441
12.32 -0.265862
12.33 -0.292497
12.34 -0.318811
12.35 -0.346377
12.36 -0.376119
12.37 -0.409281
12.38 -0.445848
12.39 -0.485957
