# xPDFsuite Configuration #
[PDF]
wavelength = 0.1432
dataformat = twotheta
inputfile = 1_1Pd_CeO2_cycle-00172.chi
backgroundfile = background-00000.chi
mode = xray
bgscale = 1.007
composition = CeO2
outputtype = gr
qmaxinst = 28.8974762299
qmin = 0.5
qmax = 27.9
rmax = 50.0
rmin = 0.0
rstep = 0.01
rpoly = 1.8657

[Misc]
inputdir = G:/SankarDec16/1Pd/Chi
savedir = D:/DATA/APS_CeO2/1Pd
backgroundfilefull = G:/SankarDec16/Background/background-00000.chi

#### start data
#S 1
#L r($\AA$)  G($\AA^{-2}$)
0 0
0.01 -0.00652613
0.02 -0.0125606
0.03 -0.0175971
0.04 -0.0212543
0.05 -0.02332
0.06 -0.0234533
0.07 -0.0218812
0.08 -0.0184941
0.09 -0.0137258
0.1 -0.00787607
0.11 -0.00140434
0.12 0.00518855
0.13 0.0113407
0.14 0.016654
0.15 0.0206412
0.16 0.0230167
0.17 0.0236668
0.18 0.0223589
0.19 0.0194273
0.2 0.0148851
0.21 0.00923807
0.22 0.00285968
0.23 -0.00373437
0.24 -0.0100726
0.25 -0.0155498
0.26 -0.0198802
0.27 -0.022619
0.28 -0.0235902
0.29 -0.0227838
0.3 -0.0200876
0.31 -0.0159268
0.32 -0.0104371
0.33 -0.00417256
0.34 0.00243774
0.35 0.00884581
0.36 0.0146324
0.37 0.0191775
0.38 0.0223218
0.39 0.0236842
0.4 0.0232069
0.41 0.0209849
0.42 0.0170316
0.43 0.0118435
0.44 0.00567252
0.45 -0.000905063
0.46 -0.00742501
0.47 -0.0133328
0.48 -0.0182818
0.49 -0.0216672
0.5 -0.0234636
0.51 -0.0233725
0.52 -0.0214576
0.53 -0.0179144
0.54 -0.0128823
0.55 -0.0069055
0.56 -0.000340543
0.57 0.00624126
0.58 0.012363
0.59 0.0174897
0.6 0.0213645
0.61 0.0234268
0.62 0.023787
0.63 0.0222441
0.64 0.0189806
0.65 0.0142838
0.66 0.00841289
0.67 0.0019343
0.68 -0.00470785
0.69 -0.0109742
0.7 -0.0163981
0.71 -0.0204899
0.72 -0.023095
0.73 -0.023724
0.74 -0.0226182
0.75 -0.0196835
0.76 -0.0152128
0.77 -0.00957097
0.78 -0.00312423
0.79 0.00356697
0.8 0.00999374
0.81 0.0156754
0.82 0.0201799
0.83 0.0230882
0.84 0.0243563
0.85 0.0235928
0.86 0.0211571
0.87 0.0170683
0.88 0.0117141
0.89 0.00551736
0.9 -0.00106876
0.91 -0.00752219
0.92 -0.0133006
0.93 -0.0180129
0.94 -0.0212926
0.95 -0.0228247
0.96 -0.0226859
0.97 -0.0206251
0.98 -0.0171069
0.99 -0.0122833
1 -0.00663031
1.01 -0.000614696
1.02 0.00522286
1.03 0.0104356
1.04 0.0144555
1.05 0.0170168
1.06 0.0178422
1.07 0.0167501
1.08 0.0139662
1.09 0.00941582
1.1 0.00369209
1.11 -0.00288148
1.12 -0.00970746
1.13 -0.0162478
1.14 -0.0218118
1.15 -0.0260184
1.16 -0.0281932
1.17 -0.0281762
1.18 -0.0257247
1.19 -0.0207239
1.2 -0.0135553
1.21 -0.00419691
1.22 0.00657063
1.23 0.0183204
1.24 0.0303145
1.25 0.0419032
1.26 0.052252
1.27 0.060913
1.28 0.0670609
1.29 0.0704832
1.3 0.0708399
1.31 0.0678995
1.32 0.0620448
1.33 0.0530311
1.34 0.0417061
1.35 0.0283336
1.36 0.0136128
1.37 -0.0018122
1.38 -0.0172626
1.39 -0.0321355
1.4 -0.0457329
1.41 -0.0576603
1.42 -0.0675042
1.43 -0.0748908
1.44 -0.0799335
1.45 -0.0821914
1.46 -0.0821584
1.47 -0.0797714
1.48 -0.0753521
1.49 -0.0692356
1.5 -0.0615831
1.51 -0.0528749
1.52 -0.0432694
1.53 -0.0331169
1.54 -0.0226168
1.55 -0.0119732
1.56 -0.00135048
1.57 0.00907693
1.58 0.0192
1.59 0.0288482
1.6 0.0378675
1.61 0.0461219
1.62 0.0533014
1.63 0.0593353
1.64 0.0638132
1.65 0.0666287
1.66 0.0675233
1.67 0.066214
1.68 0.0627987
1.69 0.0568394
1.7 0.0487443
1.71 0.0384337
1.72 0.0262321
1.73 0.0125328
1.74 -0.00232104
1.75 -0.0176937
1.76 -0.0330544
1.77 -0.0478029
1.78 -0.0613931
1.79 -0.0732261
1.8 -0.083114
1.81 -0.0903972
1.82 -0.0953364
1.83 -0.0977376
1.84 -0.0978913
1.85 -0.0962154
1.86 -0.093074
1.87 -0.0892152
1.88 -0.0852352
1.89 -0.0818324
1.9 -0.0796115
1.91 -0.0792087
1.92 -0.0807974
1.93 -0.0849784
1.94 -0.0913859
1.95 -0.100045
1.96 -0.110459
1.97 -0.12201
1.98 -0.133964
1.99 -0.145449
2 -0.155416
2.01 -0.163038
2.02 -0.167438
2.03 -0.167663
2.04 -0.163618
2.05 -0.154137
2.06 -0.139895
2.07 -0.120532
2.08 -0.096552
2.09 -0.0686355
2.1 -0.0371485
2.11 -0.00330726
2.12 0.032313
2.13 0.0686986
2.14 0.105167
2.15 0.141045
2.16 0.176006
2.17 0.209625
2.18 0.242087
2.19 0.273459
2.2 0.304142
2.21 0.334585
2.22 0.365347
2.23 0.396849
2.24 0.429617
2.25 0.463775
2.26 0.49936
2.27 0.536121
2.28 0.573428
2.29 0.610357
2.3 0.645806
2.31 0.678243
2.32 0.706057
2.33 0.727935
2.34 0.741379
2.35 0.746087
2.36 0.739559
2.37 0.721888
2.38 0.692382
2.39 0.650645
2.4 0.598441
2.41 0.535254
2.42 0.464304
2.43 0.38686
2.44 0.305661
2.45 0.223233
2.46 0.142474
2.47 0.0655996
2.48 -0.00436313
2.49 -0.0659623
2.5 -0.117561
2.51 -0.157702
2.52 -0.187236
2.53 -0.204663
2.54 -0.212641
2.55 -0.211669
2.56 -0.203988
2.57 -0.191863
2.58 -0.177456
2.59 -0.163257
2.6 -0.151595
2.61 -0.144184
2.62 -0.142497
2.63 -0.147808
2.64 -0.159746
2.65 -0.179223
2.66 -0.204382
2.67 -0.234546
2.68 -0.267844
2.69 -0.302438
2.7 -0.336232
2.71 -0.367529
2.72 -0.394183
2.73 -0.415188
2.74 -0.429543
2.75 -0.436534
2.76 -0.437042
2.77 -0.43075
2.78 -0.419835
2.79 -0.40543
2.8 -0.389646
2.81 -0.374383
2.82 -0.361971
2.83 -0.353747
2.84 -0.35185
2.85 -0.356794
2.86 -0.369197
2.87 -0.38925
2.88 -0.415547
2.89 -0.447713
2.9 -0.483167
2.91 -0.52016
2.92 -0.556175
2.93 -0.589126
2.94 -0.616172
2.95 -0.636311
2.96 -0.647111
2.97 -0.648524
2.98 -0.640172
2.99 -0.62222
3 -0.596701
3.01 -0.564347
3.02 -0.528389
3.03 -0.49102
3.04 -0.455209
3.05 -0.423327
3.06 -0.398582
3.07 -0.381929
3.08 -0.375964
3.09 -0.38051
3.1 -0.395784
3.11 -0.421361
3.12 -0.45486
3.13 -0.495243
3.14 -0.538985
3.15 -0.58364
3.16 -0.626094
3.17 -0.663972
3.18 -0.69409
3.19 -0.715784
3.2 -0.726778
3.21 -0.727716
3.22 -0.718905
3.23 -0.701457
3.24 -0.678122
3.25 -0.650934
3.26 -0.623461
3.27 -0.598796
3.28 -0.58019
3.29 -0.569873
3.3 -0.571253
3.31 -0.584123
3.32 -0.610564
3.33 -0.648914
3.34 -0.698069
3.35 -0.755879
3.36 -0.818682
3.37 -0.883163
3.38 -0.945178
3.39 -1.00065
3.4 -1.04581
3.41 -1.07835
3.42 -1.09433
3.43 -1.09483
3.44 -1.07776
3.45 -1.04594
3.46 -1.0013
3.47 -0.94713
3.48 -0.888189
3.49 -0.82907
3.5 -0.774611
3.51 -0.729734
3.52 -0.698429
3.53 -0.682697
3.54 -0.685987
3.55 -0.705628
3.56 -0.741694
3.57 -0.788739
3.58 -0.841633
3.59 -0.892519
3.6 -0.93392
3.61 -0.953438
3.62 -0.944515
3.63 -0.89517
3.64 -0.796932
3.65 -0.645358
3.66 -0.428228
3.67 -0.151347
3.68 0.193525
3.69 0.597677
3.7 1.05682
3.71 1.56352
3.72 2.10256
3.73 2.66366
3.74 3.2282
3.75 3.78014
3.76 4.30136
3.77 4.77807
3.78 5.18741
3.79 5.52526
3.8 5.77014
3.81 5.92139
3.82 5.97247
3.83 5.91753
3.84 5.76952
3.85 5.51914
3.86 5.1899
3.87 4.78599
3.88 4.32399
3.89 3.82054
3.9 3.28928
3.91 2.74915
3.92 2.21534
3.93 1.70215
3.94 1.22171
3.95 0.786832
3.96 0.399715
3.97 0.0741278
3.98 -0.196541
3.99 -0.407712
4 -0.563681
4.01 -0.671374
4.02 -0.732457
4.03 -0.760082
4.04 -0.758213
4.05 -0.737763
4.06 -0.705679
4.07 -0.669275
4.08 -0.634383
4.09 -0.60663
4.1 -0.588254
4.11 -0.581897
4.12 -0.587822
4.13 -0.604775
4.14 -0.632019
4.15 -0.665788
4.16 -0.703739
4.17 -0.742113
4.18 -0.777862
4.19 -0.807545
4.2 -0.829508
4.21 -0.840223
4.22 -0.840025
4.23 -0.827362
4.24 -0.802572
4.25 -0.766823
4.26 -0.720111
4.27 -0.665254
4.28 -0.602887
4.29 -0.535394
4.3 -0.464195
4.31 -0.390724
4.32 -0.316289
4.33 -0.241753
4.34 -0.167734
4.35 -0.0946136
4.36 -0.0225281
4.37 0.048559
4.38 0.11856
4.39 0.187598
4.4 0.25538
4.41 0.321646
4.42 0.38581
4.43 0.446826
4.44 0.504037
4.45 0.555307
4.46 0.600031
4.47 0.636144
4.48 0.662238
4.49 0.677594
4.5 0.67973
4.51 0.669704
4.52 0.645562
4.53 0.608629
4.54 0.559269
4.55 0.498138
4.56 0.427842
4.57 0.348992
4.58 0.264949
4.59 0.177523
4.6 0.089334
4.61 0.00249944
4.62 -0.080436
4.63 -0.158294
4.64 -0.228912
4.65 -0.291862
4.66 -0.346511
4.67 -0.392381
4.68 -0.43069
4.69 -0.460958
4.7 -0.485304
4.71 -0.504362
4.72 -0.519628
4.73 -0.532464
4.74 -0.543966
4.75 -0.5553
4.76 -0.567308
4.77 -0.580526
4.78 -0.59525
4.79 -0.611586
4.8 -0.629179
4.81 -0.647785
4.82 -0.666721
4.83 -0.685415
4.84 -0.703195
4.85 -0.71958
4.86 -0.733863
4.87 -0.746006
4.88 -0.75555
4.89 -0.76271
4.9 -0.767605
4.91 -0.770473
4.92 -0.771903
4.93 -0.772206
4.94 -0.772044
4.95 -0.771853
4.96 -0.772093
4.97 -0.77305
4.98 -0.775069
4.99 -0.778116
5 -0.782326
5.01 -0.787506
5.02 -0.793519
5.03 -0.80018
5.04 -0.807236
5.05 -0.814542
5.06 -0.821929
5.07 -0.82933
5.08 -0.83673
5.09 -0.844159
5.1 -0.851687
5.11 -0.859343
5.12 -0.867123
5.13 -0.874881
5.14 -0.882343
5.15 -0.888935
5.16 -0.894081
5.17 -0.896401
5.18 -0.895029
5.19 -0.888186
5.2 -0.874165
5.21 -0.851714
5.22 -0.817787
5.23 -0.772318
5.24 -0.712255
5.25 -0.63763
5.26 -0.54762
5.27 -0.44142
5.28 -0.321273
5.29 -0.186333
5.3 -0.0407042
5.31 0.113843
5.32 0.273473
5.33 0.434357
5.34 0.5917
5.35 0.741664
5.36 0.878481
5.37 0.998631
5.38 1.0981
5.39 1.17204
5.4 1.22074
5.41 1.23794
5.42 1.22723
5.43 1.18646
5.44 1.11758
5.45 1.0241
5.46 0.90667
5.47 0.772181
5.48 0.623049
5.49 0.465431
5.5 0.303805
5.51 0.143324
5.52 -0.0120928
5.53 -0.157092
5.54 -0.289837
5.55 -0.406832
5.56 -0.506542
5.57 -0.589121
5.58 -0.652516
5.59 -0.700019
5.6 -0.731012
5.61 -0.748778
5.62 -0.755196
5.63 -0.752328
5.64 -0.743257
5.65 -0.72938
5.66 -0.713181
5.67 -0.695832
5.68 -0.67837
5.69 -0.661211
5.7 -0.644361
5.71 -0.627354
5.72 -0.609354
5.73 -0.589404
5.74 -0.566461
5.75 -0.539218
5.76 -0.507345
5.77 -0.469408
5.78 -0.426039
5.79 -0.377
5.8 -0.323126
5.81 -0.265692
5.82 -0.206016
5.83 -0.146159
5.84 -0.0882734
5.85 -0.0344725
5.86 0.0131726
5.87 0.0521375
5.88 0.0818049
5.89 0.0991369
5.9 0.104996
5.91 0.0981066
5.92 0.0789089
5.93 0.0487147
5.94 0.00755174
5.95 -0.0416059
5.96 -0.0978509
5.97 -0.158507
5.98 -0.22169
5.99 -0.285308
6 -0.347693
6.01 -0.406937
6.02 -0.462338
6.03 -0.512861
6.04 -0.558238
6.05 -0.598803
6.06 -0.634443
6.07 -0.666476
6.08 -0.695344
6.09 -0.722292
6.1 -0.748176
6.11 -0.773865
6.12 -0.799955
6.13 -0.826942
6.14 -0.854789
6.15 -0.883361
6.16 -0.912124
6.17 -0.940427
6.18 -0.967223
6.19 -0.99183
6.2 -1.01302
6.21 -1.03023
6.22 -1.04289
6.23 -1.05044
6.24 -1.05346
6.25 -1.05162
6.26 -1.04629
6.27 -1.03816
6.28 -1.02853
6.29 -1.01861
6.3 -1.00972
6.31 -1.00265
6.32 -0.998269
6.33 -0.996461
6.34 -0.996773
6.35 -0.997931
6.36 -0.998048
6.37 -0.993828
6.38 -0.982396
6.39 -0.959189
6.4 -0.919511
6.41 -0.859974
6.42 -0.772752
6.43 -0.65739
6.44 -0.506244
6.45 -0.318999
6.46 -0.093502
6.47 0.172799
6.48 0.474643
6.49 0.814946
6.5 1.18419
6.51 1.579
6.52 1.99102
6.53 2.41147
6.54 2.83037
6.55 3.23813
6.56 3.62227
6.57 3.97369
6.58 4.28274
6.59 4.5372
6.6 4.73599
6.61 4.86315
6.62 4.92435
6.63 4.91227
6.64 4.82815
6.65 4.6781
6.66 4.45899
6.67 4.18616
6.68 3.86092
6.69 3.49697
6.7 3.10338
6.71 2.69052
6.72 2.27018
6.73 1.85293
6.74 1.44808
6.75 1.06507
6.76 0.711609
6.77 0.391409
6.78 0.113473
6.79 -0.125487
6.8 -0.3195
6.81 -0.472672
6.82 -0.586463
6.83 -0.662313
6.84 -0.707968
6.85 -0.723732
6.86 -0.718649
6.87 -0.69596
6.88 -0.661198
6.89 -0.619117
6.9 -0.573311
6.91 -0.527378
6.92 -0.483924
6.93 -0.444615
6.94 -0.410495
6.95 -0.382353
6.96 -0.359491
6.97 -0.342287
6.98 -0.329299
6.99 -0.320115
7 -0.313881
7.01 -0.309882
7.02 -0.307958
7.03 -0.307715
7.04 -0.309543
7.05 -0.313729
7.06 -0.32089
7.07 -0.332051
7.08 -0.347524
7.09 -0.368889
7.1 -0.39597
7.11 -0.429598
7.12 -0.469764
7.13 -0.515837
7.14 -0.567792
7.15 -0.623833
7.16 -0.683045
7.17 -0.743463
7.18 -0.803384
7.19 -0.86066
7.2 -0.913899
7.21 -0.960534
7.22 -1.00005
7.23 -1.03088
7.24 -1.05248
7.25 -1.0653
7.26 -1.06868
7.27 -1.06473
7.28 -1.05384
7.29 -1.03823
7.3 -1.01955
7.31 -0.999756
7.32 -0.980635
7.33 -0.964126
7.34 -0.951159
7.35 -0.942812
7.36 -0.939333
7.37 -0.940161
7.38 -0.944783
7.39 -0.951233
7.4 -0.957616
7.41 -0.961355
7.42 -0.959843
7.43 -0.949558
7.44 -0.928864
7.45 -0.893083
7.46 -0.841989
7.47 -0.772731
7.48 -0.684426
7.49 -0.577955
7.5 -0.451705
7.51 -0.309769
7.52 -0.152532
7.53 0.0156671
7.54 0.191452
7.55 0.370541
7.56 0.548469
7.57 0.71978
7.58 0.880739
7.59 1.0263
7.6 1.15236
7.61 1.25704
7.62 1.33461
7.63 1.38704
7.64 1.41018
7.65 1.40617
7.66 1.37557
7.67 1.31873
7.68 1.24063
7.69 1.14113
7.7 1.02647
7.71 0.899105
7.72 0.763376
7.73 0.623308
7.74 0.482677
7.75 0.344925
7.76 0.213733
7.77 0.0915145
7.78 -0.019516
7.79 -0.116718
7.8 -0.200429
7.81 -0.267562
7.82 -0.320011
7.83 -0.356763
7.84 -0.378552
7.85 -0.387034
7.86 -0.381815
7.87 -0.366088
7.88 -0.340145
7.89 -0.306533
7.9 -0.266896
7.91 -0.223002
7.92 -0.177048
7.93 -0.130843
7.94 -0.0862897
7.95 -0.0452505
7.96 -0.0095089
7.97 0.0198672
7.98 0.0405328
7.99 0.0526332
8 0.0542214
8.01 0.0455186
8.02 0.026274
8.03 -0.0039469
8.04 -0.0434974
8.05 -0.0929594
8.06 -0.149875
8.07 -0.213443
8.08 -0.281833
8.09 -0.353157
8.1 -0.425699
8.11 -0.497575
8.12 -0.566945
8.13 -0.632428
8.14 -0.69285
8.15 -0.746907
8.16 -0.794799
8.17 -0.835335
8.18 -0.869687
8.19 -0.897901
8.2 -0.920901
8.21 -0.939884
8.22 -0.955544
8.23 -0.969311
8.24 -0.981846
8.25 -0.993861
8.26 -1.00556
8.27 -1.01667
8.28 -1.02657
8.29 -1.03361
8.3 -1.03631
8.31 -1.03208
8.32 -1.01803
8.33 -0.992029
8.34 -0.948937
8.35 -0.88816
8.36 -0.804514
8.37 -0.697133
8.38 -0.56422
8.39 -0.403179
8.4 -0.217037
8.41 -0.0028203
8.42 0.233699
8.43 0.491111
8.44 0.764619
8.45 1.04855
8.46 1.33739
8.47 1.62415
8.48 1.90131
8.49 2.16212
8.5 2.39999
8.51 2.60626
8.52 2.7791
8.53 2.90756
8.54 2.99366
8.55 3.03178
8.56 3.02114
8.57 2.96499
8.58 2.85935
8.59 2.71397
8.6 2.5283
8.61 2.31078
8.62 2.067
8.63 1.80293
8.64 1.52717
8.65 1.24576
8.66 0.966277
8.67 0.695028
8.68 0.438128
8.69 0.199078
8.7 -0.0153567
8.71 -0.205913
8.72 -0.367847
8.73 -0.502572
8.74 -0.610369
8.75 -0.691149
8.76 -0.749828
8.77 -0.785937
8.78 -0.805651
8.79 -0.811141
8.8 -0.806426
8.81 -0.795323
8.82 -0.780775
8.83 -0.766066
8.84 -0.753747
8.85 -0.745711
8.86 -0.74329
8.87 -0.747768
8.88 -0.758665
8.89 -0.776804
8.9 -0.800624
8.91 -0.829613
8.92 -0.862423
8.93 -0.897593
8.94 -0.933823
8.95 -0.969662
8.96 -1.00378
8.97 -1.03517
8.98 -1.06307
8.99 -1.08662
9 -1.10602
9.01 -1.12059
9.02 -1.13114
9.03 -1.13777
9.04 -1.14111
9.05 -1.14193
9.06 -1.14067
9.07 -1.13819
9.08 -1.13488
9.09 -1.1312
9.1 -1.12731
9.11 -1.12317
9.12 -1.11857
9.13 -1.11292
9.14 -1.10567
9.15 -1.09589
9.16 -1.08258
9.17 -1.06507
9.18 -1.04167
9.19 -1.01239
9.2 -0.97573
9.21 -0.931726
9.22 -0.880181
9.23 -0.820807
9.24 -0.754936
9.25 -0.682515
9.26 -0.605644
9.27 -0.525526
9.28 -0.444191
9.29 -0.36357
9.3 -0.286241
9.31 -0.213839
9.32 -0.149148
9.33 -0.093638
9.34 -0.0488494
9.35 -0.0168451
9.36 0.00305252
9.37 0.00854286
9.38 0.00168395
9.39 -0.0177164
9.4 -0.0482662
9.41 -0.0877752
9.42 -0.135147
9.43 -0.187132
9.44 -0.241828
9.45 -0.296505
9.46 -0.348998
9.47 -0.396815
9.48 -0.438855
9.49 -0.472662
9.5 -0.498403
9.51 -0.515137
9.52 -0.523067
9.53 -0.523323
9.54 -0.516104
9.55 -0.503821
9.56 -0.487598
9.57 -0.469646
9.58 -0.45172
9.59 -0.435841
9.6 -0.423246
9.61 -0.415942
9.62 -0.414219
9.63 -0.419019
9.64 -0.430466
9.65 -0.447905
9.66 -0.471432
9.67 -0.499324
9.68 -0.530958
9.69 -0.564772
9.7 -0.599597
9.71 -0.634179
9.72 -0.667626
9.73 -0.698894
9.74 -0.727764
9.75 -0.753865
9.76 -0.777269
9.77 -0.798391
9.78 -0.817379
9.79 -0.834938
9.8 -0.851237
9.81 -0.866484
9.82 -0.880475
9.83 -0.892385
9.84 -0.901362
9.85 -0.904952
9.86 -0.901453
9.87 -0.887523
9.88 -0.859509
9.89 -0.81495
9.9 -0.747116
9.91 -0.655537
9.92 -0.533556
9.93 -0.379981
9.94 -0.192615
9.95 0.032207
9.96 0.290481
9.97 0.586285
9.98 0.912284
9.99 1.26673
10 1.64364
10.01 2.03553
10.02 2.43553
10.03 2.83425
10.04 3.2221
10.05 3.58997
10.06 3.92929
10.07 4.22851
10.08 4.48499
10.09 4.68458
10.1 4.82935
10.11 4.91219
10.12 4.93164
10.13 4.89213
10.14 4.78815
10.15 4.63248
10.16 4.42444
10.17 4.17472
10.18 3.89067
10.19 3.57967
10.2 3.25279
10.21 2.9173
10.22 2.58272
10.23 2.25651
10.24 1.94589
10.25 1.65481
10.26 1.39072
10.27 1.15247
10.28 0.944666
10.29 0.765308
10.3 0.613317
10.31 0.488043
10.32 0.383806
10.33 0.300052
10.34 0.230367
10.35 0.171984
10.36 0.120805
10.37 0.0732885
10.38 0.0265988
10.39 -0.0215902
10.4 -0.0731604
10.41 -0.12893
10.42 -0.189231
10.43 -0.25413
10.44 -0.322496
10.45 -0.393729
10.46 -0.466193
10.47 -0.538643
10.48 -0.609589
10.49 -0.677988
10.5 -0.742248
10.51 -0.802138
10.52 -0.856519
10.53 -0.905412
10.54 -0.94874
10.55 -0.986253
10.56 -1.01882
10.57 -1.04602
10.58 -1.06884
10.59 -1.08727
10.6 -1.10152
10.61 -1.11196
10.62 -1.11799
10.63 -1.12007
10.64 -1.11741
10.65 -1.10998
10.66 -1.09745
10.67 -1.07917
10.68 -1.05559
10.69 -1.02586
10.7 -0.990936
10.71 -0.950883
10.72 -0.906475
10.73 -0.858871
10.74 -0.809008
10.75 -0.758551
10.76 -0.709016
10.77 -0.662047
10.78 -0.619145
10.79 -0.582291
10.8 -0.552048
10.81 -0.530709
10.82 -0.517985
10.83 -0.51491
10.84 -0.521578
10.85 -0.537083
10.86 -0.561917
10.87 -0.593846
10.88 -0.632466
10.89 -0.675825
10.9 -0.722447
10.91 -0.770726
10.92 -0.819021
10.93 -0.865682
10.94 -0.909588
10.95 -0.949513
10.96 -0.984564
10.97 -1.01459
10.98 -1.03862
10.99 -1.05754
11 -1.07103
11.01 -1.07999
11.02 -1.0851
11.03 -1.08701
11.04 -1.08692
11.05 -1.08551
11.06 -1.08384
11.07 -1.08267
11.08 -1.08276
11.09 -1.08451
11.1 -1.08861
11.11 -1.09491
11.12 -1.10369
11.13 -1.11459
11.14 -1.12723
11.15 -1.14107
11.16 -1.15526
11.17 -1.16878
11.18 -1.18056
11.19 -1.18921
11.2 -1.19313
11.21 -1.19121
11.22 -1.18069
11.23 -1.16108
11.24 -1.12944
11.25 -1.08469
11.26 -1.02533
11.27 -0.9487
11.28 -0.855609
11.29 -0.742432
11.3 -0.61112
11.31 -0.460436
11.32 -0.290932
11.33 -0.104893
11.34 0.0980163
11.35 0.313136
11.36 0.538879
11.37 0.770803
11.38 1.00509
11.39 1.23687
11.4 1.46208
11.41 1.67427
11.42 1.87015
11.43 2.04421
11.44 2.1918
11.45 2.31144
11.46 2.39578
11.47 2.44773
11.48 2.46213
11.49 2.44112
11.5 2.38557
11.51 2.29513
11.52 2.1762
11.53 2.02821
11.54 1.85895
11.55 1.67157
11.56 1.47153
11.57 1.26436
11.58 1.05488
11.59 0.848035
11.6 0.648603
11.61 0.460085
11.62 0.285271
11.63 0.127655
11.64 -0.0134043
11.65 -0.13464
11.66 -0.238672
11.67 -0.325264
11.68 -0.396054
11.69 -0.453942
11.7 -0.499771
11.71 -0.537649
11.72 -0.569185
11.73 -0.597288
11.74 -0.623953
11.75 -0.651052
11.76 -0.679729
11.77 -0.711101
11.78 -0.745086
11.79 -0.781573
11.8 -0.819712
11.81 -0.858291
11.82 -0.895554
11.83 -0.929911
11.84 -0.958955
11.85 -0.980842
11.86 -0.993751
11.87 -0.994976
11.88 -0.984388
11.89 -0.958723
11.9 -0.918922
11.91 -0.863643
11.92 -0.792858
11.93 -0.708077
11.94 -0.608352
11.95 -0.497093
11.96 -0.374678
11.97 -0.243976
11.98 -0.107214
11.99 0.0331562
12 0.174252
12.01 0.313123
12.02 0.447253
12.03 0.573762
12.04 0.68988
12.05 0.79427
12.06 0.882929
12.07 0.956473
12.08 1.01176
12.09 1.04899
12.1 1.06789
12.11 1.0672
12.12 1.04963
12.13 1.01359
12.14 0.962687
12.15 0.89767
12.16 0.820744
12.17 0.734831
12.18 0.641471
12.19 0.544162
12.2 0.444992
12.21 0.346604
12.22 0.25103
12.23 0.160617
12.24 0.0761991
12.25 -2.40405e-05
12.26 -0.0683359
12.27 -0.128009
12.28 -0.179235
12.29 -0.22317
12.3 -0.259873
12.31 -0.291575
12.32 -0.319146
12.33 -0.34445
12.34 -0.368909
12.35 -0.394027
12.36 -0.420803
12.37 -0.450449
12.38 -0.483104
12.39 -0.519003
