# xPDFsuite Configuration #
[PDF]
wavelength = 0.1432
dataformat = twotheta
inputfile = 1_1Pd_CeO2_cycle-00363.chi
backgroundfile = background-00000.chi
mode = xray
bgscale = 1.007
composition = CeO2
outputtype = gr
qmaxinst = 28.8974762299
qmin = 0.5
qmax = 27.9
rmax = 50.0
rmin = 0.0
rstep = 0.01
rpoly = 1.8657

[Misc]
inputdir = G:/SankarDec16/1Pd/Chi
savedir = D:/DATA/APS_CeO2/1Pd
backgroundfilefull = G:/SankarDec16/Background/background-00000.chi

#### start data
#S 1
#L r($\AA$)  G($\AA^{-2}$)
0 0
0.01 -0.00604167
0.02 -0.0116276
0.03 -0.0162887
0.04 -0.0196716
0.05 -0.0215799
0.06 -0.0216979
0.07 -0.0202363
0.08 -0.0170943
0.09 -0.012674
0.1 -0.00725408
0.11 -0.00126057
0.12 0.00484246
0.13 0.0105338
0.14 0.0154453
0.15 0.0191257
0.16 0.0213114
0.17 0.0218978
0.18 0.020671
0.19 0.0179415
0.2 0.0137232
0.21 0.00848556
0.22 0.00257552
0.23 -0.00352838
0.24 -0.00938988
0.25 -0.0144477
0.26 -0.0184388
0.27 -0.0209521
0.28 -0.0218264
0.29 -0.0210544
0.3 -0.0185342
0.31 -0.0146615
0.32 -0.00956437
0.33 -0.00375667
0.34 0.00236301
0.35 0.00828661
0.36 0.0136271
0.37 0.0178103
0.38 0.0206914
0.39 0.0219193
0.4 0.0214435
0.41 0.0193544
0.42 0.0156677
0.43 0.0108448
0.44 0.00512192
0.45 -0.000967046
0.46 -0.00699158
0.47 -0.0124385
0.48 -0.016989
0.49 -0.0200844
0.5 -0.0217049
0.51 -0.0215773
0.52 -0.0197642
0.53 -0.0164497
0.54 -0.0117667
0.55 -0.0062203
0.56 -0.000143454
0.57 0.00593571
0.58 0.0115758
0.59 0.0162833
0.6 0.0198237
0.61 0.0216807
0.62 0.0219614
0.63 0.0204838
0.64 0.017421
0.65 0.0130423
0.66 0.00759186
0.67 0.00159369
0.68 -0.00453831
0.69 -0.0103073
0.7 -0.0152827
0.71 -0.0190142
0.72 -0.0213635
0.73 -0.0218817
0.74 -0.0207973
0.75 -0.018028
0.76 -0.0138489
0.77 -0.00860023
0.78 -0.00262456
0.79 0.0035612
0.8 0.00948484
0.81 0.0147055
0.82 0.0188264
0.83 0.0214642
0.84 0.0225833
0.85 0.021827
0.86 0.0195316
0.87 0.0157192
0.88 0.0107506
0.89 0.00501708
0.9 -0.00106216
0.91 -0.00700895
0.92 -0.0123256
0.93 -0.0166576
0.94 -0.0196734
0.95 -0.0210907
0.96 -0.0209862
0.97 -0.0191401
0.98 -0.0159821
0.99 -0.0116598
1 -0.0066127
1.01 -0.0012683
1.02 0.0038766
1.03 0.00842262
1.04 0.011856
1.05 0.0139487
1.06 0.0144626
1.07 0.0132532
1.08 0.010543
1.09 0.00629786
1.1 0.00106993
1.11 -0.00481554
1.12 -0.010797
1.13 -0.0163754
1.14 -0.0208956
1.15 -0.0240292
1.16 -0.0251462
1.17 -0.0241295
1.18 -0.0207743
1.19 -0.0150045
1.2 -0.00720991
1.21 0.00258791
1.22 0.0136285
1.23 0.0254675
1.24 0.037378
1.25 0.0487255
1.26 0.0586723
1.27 0.0668029
1.28 0.0722865
1.29 0.074933
1.3 0.0744058
1.31 0.0704744
1.32 0.0635346
1.33 0.0533273
1.34 0.0407184
1.35 0.0259678
1.36 0.00978804
1.37 -0.0071586
1.38 -0.024172
1.39 -0.0406121
1.4 -0.0557352
1.41 -0.069097
1.42 -0.0802251
1.43 -0.0886688
1.44 -0.094506
1.45 -0.0971771
1.46 -0.0971773
1.47 -0.0943614
1.48 -0.0890332
1.49 -0.081537
1.5 -0.0719969
1.51 -0.0609916
1.52 -0.0486856
1.53 -0.0355507
1.54 -0.0218748
1.55 -0.00798586
1.56 0.00583043
1.57 0.0192376
1.58 0.0320301
1.59 0.0438885
1.6 0.0545608
1.61 0.063859
1.62 0.071347
1.63 0.077028
1.64 0.0804119
1.65 0.0815054
1.66 0.0801039
1.67 0.0760167
1.68 0.0695008
1.69 0.0602226
1.7 0.0487676
1.71 0.0351958
1.72 0.0199771
1.73 0.00360687
1.74 -0.0134198
1.75 -0.0304618
1.76 -0.0468722
1.77 -0.062093
1.78 -0.0755788
1.79 -0.0867585
1.8 -0.0955599
1.81 -0.101347
1.82 -0.104538
1.83 -0.105013
1.84 -0.103178
1.85 -0.0995376
1.86 -0.0945491
1.87 -0.089005
1.88 -0.0835702
1.89 -0.0789469
1.9 -0.0757503
1.91 -0.0746123
1.92 -0.0756594
1.93 -0.0794863
1.94 -0.0856609
1.95 -0.0941829
1.96 -0.104515
1.97 -0.116016
1.98 -0.127935
1.99 -0.139397
2 -0.149361
2.01 -0.157018
2.02 -0.161512
2.03 -0.161923
2.04 -0.158169
2.05 -0.149127
2.06 -0.135455
2.07 -0.116804
2.08 -0.0936541
2.09 -0.0666465
2.1 -0.0360979
2.11 -0.00316031
2.12 0.0316731
2.13 0.0674574
2.14 0.103584
2.15 0.139462
2.16 0.174771
2.17 0.20918
2.18 0.242805
2.19 0.275721
2.2 0.308252
2.21 0.340753
2.22 0.373674
2.23 0.407298
2.24 0.441988
2.25 0.477736
2.26 0.514437
2.27 0.551689
2.28 0.588843
2.29 0.624801
2.3 0.658569
2.31 0.688585
2.32 0.713345
2.33 0.731681
2.34 0.741234
2.35 0.741932
2.36 0.731489
2.37 0.71022
2.38 0.677643
2.39 0.633595
2.4 0.579904
2.41 0.516318
2.42 0.44595
2.43 0.370151
2.44 0.291556
2.45 0.212528
2.46 0.135842
2.47 0.0634103
2.48 -0.00196214
2.49 -0.0591176
2.5 -0.106675
2.51 -0.143469
2.52 -0.170469
2.53 -0.186498
2.54 -0.194145
2.55 -0.194041
2.56 -0.188352
2.57 -0.179195
2.58 -0.168648
2.59 -0.158876
2.6 -0.152014
2.61 -0.149454
2.62 -0.152409
2.63 -0.161851
2.64 -0.177259
2.65 -0.199218
2.66 -0.225901
2.67 -0.256483
2.68 -0.289137
2.69 -0.322146
2.7 -0.353467
2.71 -0.381698
2.72 -0.404844
2.73 -0.422188
2.74 -0.432947
2.75 -0.436656
2.76 -0.434329
2.77 -0.425886
2.78 -0.413486
2.79 -0.398341
2.8 -0.382502
2.81 -0.367749
2.82 -0.356311
2.83 -0.349297
2.84 -0.348671
2.85 -0.354736
2.86 -0.367942
2.87 -0.388301
2.88 -0.414372
2.89 -0.445643
2.9 -0.479652
2.91 -0.514685
2.92 -0.548398
2.93 -0.578895
2.94 -0.603583
2.95 -0.621681
2.96 -0.631056
2.97 -0.631837
2.98 -0.623829
2.99 -0.60737
3 -0.584414
3.01 -0.555836
3.02 -0.524569
3.03 -0.492694
3.04 -0.46287
3.05 -0.43715
3.06 -0.418354
3.07 -0.407119
3.08 -0.405599
3.09 -0.413384
3.1 -0.430433
3.11 -0.456086
3.12 -0.488081
3.13 -0.525164
3.14 -0.564226
3.15 -0.602942
3.16 -0.638598
3.17 -0.669227
3.18 -0.692102
3.19 -0.706986
3.2 -0.712119
3.21 -0.708455
3.22 -0.696612
3.23 -0.677989
3.24 -0.655218
3.25 -0.63058
3.26 -0.607185
3.27 -0.587989
3.28 -0.575798
3.29 -0.572385
3.3 -0.580647
3.31 -0.59991
3.32 -0.631691
3.33 -0.673996
3.34 -0.725396
3.35 -0.783454
3.36 -0.844659
3.37 -0.905474
3.38 -0.962277
3.39 -1.01118
3.4 -1.04895
3.41 -1.07379
3.42 -1.08234
3.43 -1.07618
3.44 -1.05388
3.45 -1.01855
3.46 -0.972476
3.47 -0.919188
3.48 -0.86323
3.49 -0.809366
3.5 -0.761788
3.51 -0.725115
3.52 -0.702693
3.53 -0.695901
3.54 -0.707427
3.55 -0.734074
3.56 -0.775131
3.57 -0.824834
3.58 -0.877699
3.59 -0.9256
3.6 -0.961414
3.61 -0.972598
3.62 -0.953445
3.63 -0.892418
3.64 -0.781904
3.65 -0.618265
3.66 -0.390316
3.67 -0.104512
3.68 0.246314
3.69 0.653045
3.7 1.1109
3.71 1.61205
3.72 2.14173
3.73 2.68937
3.74 3.23746
3.75 3.77048
3.76 4.27142
3.77 4.72754
3.78 5.11729
3.79 5.43755
3.8 5.66829
3.81 5.80954
3.82 5.8556
3.83 5.80139
3.84 5.65949
3.85 5.42143
3.86 5.10943
3.87 4.72744
3.88 4.29091
3.89 3.81527
3.9 3.31291
3.91 2.80134
3.92 2.29424
3.93 1.80473
3.94 1.34382
3.95 0.923129
3.96 0.544829
3.97 0.221404
3.98 -0.0528052
3.99 -0.273419
4 -0.443932
4.01 -0.57023
4.02 -0.653208
4.03 -0.704429
4.04 -0.72673
4.05 -0.729652
4.06 -0.719011
4.07 -0.700886
4.08 -0.680698
4.09 -0.662823
4.1 -0.649907
4.11 -0.644204
4.12 -0.646391
4.13 -0.655913
4.14 -0.672456
4.15 -0.693542
4.16 -0.717609
4.17 -0.742058
4.18 -0.764759
4.19 -0.783286
4.2 -0.796435
4.21 -0.801665
4.22 -0.799124
4.23 -0.787593
4.24 -0.767142
4.25 -0.738424
4.26 -0.701098
4.27 -0.657
4.28 -0.606123
4.29 -0.549943
4.3 -0.489147
4.31 -0.424356
4.32 -0.356552
4.33 -0.285806
4.34 -0.21294
4.35 -0.138102
4.36 -0.0617009
4.37 0.0158366
4.38 0.0940808
4.39 0.172327
4.4 0.249696
4.41 0.325178
4.42 0.39757
4.43 0.465158
4.44 0.527063
4.45 0.580515
4.46 0.62516
4.47 0.658805
4.48 0.680354
4.49 0.689547
4.5 0.684299
4.51 0.666389
4.52 0.634461
4.53 0.590476
4.54 0.53534
4.55 0.47029
4.56 0.398042
4.57 0.319748
4.58 0.238426
4.59 0.155924
4.6 0.0744773
4.61 -0.00429582
4.62 -0.0783306
4.63 -0.147148
4.64 -0.209242
4.65 -0.264786
4.66 -0.313685
4.67 -0.356035
4.68 -0.393098
4.69 -0.424947
4.7 -0.453274
4.71 -0.478733
4.72 -0.502384
4.73 -0.525044
4.74 -0.547293
4.75 -0.569547
4.76 -0.59195
4.77 -0.614391
4.78 -0.636586
4.79 -0.658009
4.8 -0.678236
4.81 -0.696385
4.82 -0.71219
4.83 -0.724994
4.84 -0.734524
4.85 -0.740835
4.86 -0.743663
4.87 -0.743772
4.88 -0.74135
4.89 -0.73732
4.9 -0.73241
4.91 -0.727534
4.92 -0.723451
4.93 -0.721169
4.94 -0.721062
4.95 -0.723751
4.96 -0.729422
4.97 -0.737918
4.98 -0.749298
4.99 -0.762754
5 -0.777916
5.01 -0.793891
5.02 -0.809968
5.03 -0.825316
5.04 -0.839409
5.05 -0.851434
5.06 -0.861336
5.07 -0.868791
5.08 -0.873908
5.09 -0.877022
5.1 -0.878328
5.11 -0.878503
5.12 -0.877885
5.13 -0.87694
5.14 -0.875878
5.15 -0.874685
5.16 -0.873103
5.17 -0.870336
5.18 -0.865551
5.19 -0.857263
5.2 -0.843772
5.21 -0.823666
5.22 -0.793922
5.23 -0.753984
5.24 -0.70064
5.25 -0.63344
5.26 -0.551201
5.27 -0.452697
5.28 -0.339844
5.29 -0.211352
5.3 -0.0711712
5.31 0.0792134
5.32 0.236085
5.33 0.395592
5.34 0.553085
5.35 0.70444
5.36 0.843901
5.37 0.967654
5.38 1.07149
5.39 1.15035
5.4 1.20423
5.41 1.22666
5.42 1.22104
5.43 1.18501
5.44 1.12038
5.45 1.03059
5.46 0.916148
5.47 0.784011
5.48 0.63652
5.49 0.479925
5.5 0.31875
5.51 0.158205
5.52 0.00234385
5.53 -0.143438
5.54 -0.277164
5.55 -0.395265
5.56 -0.496114
5.57 -0.579791
5.58 -0.644165
5.59 -0.692491
5.6 -0.724085
5.61 -0.742213
5.62 -0.748731
5.63 -0.745679
5.64 -0.736171
5.65 -0.721578
5.66 -0.704447
5.67 -0.685971
5.68 -0.667245
5.69 -0.648747
5.7 -0.630558
5.71 -0.612288
5.72 -0.593202
5.73 -0.572426
5.74 -0.549003
5.75 -0.521738
5.76 -0.490321
5.77 -0.453465
5.78 -0.411755
5.79 -0.365018
5.8 -0.314065
5.81 -0.260103
5.82 -0.204436
5.83 -0.148959
5.84 -0.0957432
5.85 -0.0467247
5.86 -0.00382338
5.87 0.0306305
5.88 0.0561513
5.89 0.0699506
5.9 0.0729571
5.91 0.0640761
5.92 0.0438407
5.93 0.0135692
5.94 -0.0265662
5.95 -0.073756
5.96 -0.12703
5.97 -0.183892
5.98 -0.242568
5.99 -0.301106
6 -0.358062
6.01 -0.411686
6.02 -0.461499
6.03 -0.506657
6.04 -0.547082
6.05 -0.583235
6.06 -0.615225
6.07 -0.644367
6.08 -0.671283
6.09 -0.697186
6.1 -0.722954
6.11 -0.749475
6.12 -0.777197
6.13 -0.806664
6.14 -0.837625
6.15 -0.869887
6.16 -0.902771
6.17 -0.935481
6.18 -0.966851
6.19 -0.996043
6.2 -1.02169
6.21 -1.0431
6.22 -1.05959
6.23 -1.07044
6.24 -1.07618
6.25 -1.0763
6.26 -1.07217
6.27 -1.06435
6.28 -1.05411
6.29 -1.04267
6.3 -1.03123
6.31 -1.02075
6.32 -1.01202
6.33 -1.0051
6.34 -0.999628
6.35 -0.994477
6.36 -0.98798
6.37 -0.977039
6.38 -0.959036
6.39 -0.929675
6.4 -0.884552
6.41 -0.820485
6.42 -0.730059
6.43 -0.612867
6.44 -0.46165
6.45 -0.276113
6.46 -0.0542124
6.47 0.206482
6.48 0.500967
6.49 0.832018
6.5 1.19058
6.51 1.57343
6.52 1.97262
6.53 2.37978
6.54 2.78537
6.55 3.18027
6.56 3.55253
6.57 3.89349
6.58 4.19389
6.59 4.44205
6.6 4.63692
6.61 4.76318
6.62 4.82622
6.63 4.81898
6.64 4.74259
6.65 4.60281
6.66 4.39652
6.67 4.13838
6.68 3.82948
6.69 3.48288
6.7 3.10717
6.71 2.71213
6.72 2.30908
6.73 1.90794
6.74 1.51769
6.75 1.1473
6.76 0.804141
6.77 0.49184
6.78 0.218942
6.79 -0.0174989
6.8 -0.211787
6.81 -0.367681
6.82 -0.48647
6.83 -0.569412
6.84 -0.623741
6.85 -0.64962
6.86 -0.655531
6.87 -0.644419
6.88 -0.621421
6.89 -0.590977
6.9 -0.556319
6.91 -0.520869
6.92 -0.486929
6.93 -0.456072
6.94 -0.429233
6.95 -0.407065
6.96 -0.388994
6.97 -0.375217
6.98 -0.364522
6.99 -0.356466
7 -0.350297
7.01 -0.345437
7.02 -0.341712
7.03 -0.338939
7.04 -0.337502
7.05 -0.337827
7.06 -0.340602
7.07 -0.346909
7.08 -0.357186
7.09 -0.373057
7.1 -0.394488
7.11 -0.422404
7.12 -0.456938
7.13 -0.497586
7.14 -0.54453
7.15 -0.596079
7.16 -0.651569
7.17 -0.709159
7.18 -0.767309
7.19 -0.82409
7.2 -0.878076
7.21 -0.926991
7.22 -0.970135
7.23 -1.00602
7.24 -1.03398
7.25 -1.05425
7.26 -1.06604
7.27 -1.07106
7.28 -1.06944
7.29 -1.06296
7.3 -1.05293
7.31 -1.04081
7.32 -1.02814
7.33 -1.01628
7.34 -1.0061
7.35 -0.998314
7.36 -0.993067
7.37 -0.989909
7.38 -0.988144
7.39 -0.986329
7.4 -0.982651
7.41 -0.975097
7.42 -0.961515
7.43 -0.93896
7.44 -0.906354
7.45 -0.859753
7.46 -0.799359
7.47 -0.722942
7.48 -0.630064
7.49 -0.521746
7.5 -0.396936
7.51 -0.259315
7.52 -0.109514
7.53 0.0486493
7.54 0.212169
7.55 0.377255
7.56 0.540219
7.57 0.696267
7.58 0.842462
7.59 0.974531
7.6 1.08914
7.61 1.18486
7.62 1.25684
7.63 1.30697
7.64 1.33169
7.65 1.33286
7.66 1.3109
7.67 1.26595
7.68 1.20216
7.69 1.11901
7.7 1.02172
7.71 0.911985
7.72 0.793234
7.73 0.668773
7.74 0.54133
7.75 0.414066
7.76 0.2898
7.77 0.170873
7.78 0.0593541
7.79 -0.0422499
7.8 -0.13361
7.81 -0.211672
7.82 -0.277293
7.83 -0.328939
7.84 -0.366461
7.85 -0.39072
7.86 -0.400398
7.87 -0.398092
7.88 -0.383238
7.89 -0.358021
7.9 -0.323745
7.91 -0.281822
7.92 -0.23484
7.93 -0.184349
7.94 -0.133054
7.95 -0.0831249
7.96 -0.0370332
7.97 0.00345284
7.98 0.0352847
7.99 0.0579556
8 0.068809
8.01 0.0676288
8.02 0.0537991
8.03 0.0265117
8.04 -0.0123747
8.05 -0.0637001
8.06 -0.12442
8.07 -0.193508
8.08 -0.268587
8.09 -0.3472
8.1 -0.427037
8.11 -0.505666
8.12 -0.580641
8.13 -0.650206
8.14 -0.712878
8.15 -0.76704
8.16 -0.81309
8.17 -0.849643
8.18 -0.878405
8.19 -0.899659
8.2 -0.914849
8.21 -0.925703
8.22 -0.933507
8.23 -0.940174
8.24 -0.946968
8.25 -0.954935
8.26 -0.964571
8.27 -0.9759
8.28 -0.988083
8.29 -0.999676
8.3 -1.00866
8.31 -1.01223
8.32 -1.00697
8.33 -0.990239
8.34 -0.956352
8.35 -0.904228
8.36 -0.828129
8.37 -0.726863
8.38 -0.598367
8.39 -0.439777
8.4 -0.254315
8.41 -0.0388538
8.42 0.20034
8.43 0.461629
8.44 0.739744
8.45 1.02854
8.46 1.32199
8.47 1.61271
8.48 1.89269
8.49 2.15495
8.5 2.39274
8.51 2.59725
8.52 2.76692
8.53 2.89084
8.54 2.97156
8.55 3.00387
8.56 2.98755
8.57 2.92634
8.58 2.81701
8.59 2.6696
8.6 2.48419
8.61 2.26941
8.62 2.03098
8.63 1.77504
8.64 1.50972
8.65 1.24103
8.66 0.975777
8.67 0.719761
8.68 0.478315
8.69 0.254235
8.7 0.0533373
8.71 -0.125613
8.72 -0.278781
8.73 -0.407915
8.74 -0.513641
8.75 -0.596266
8.76 -0.660248
8.77 -0.70542
8.78 -0.737043
8.79 -0.756929
8.8 -0.768295
8.81 -0.774119
8.82 -0.776469
8.83 -0.77782
8.84 -0.779789
8.85 -0.783662
8.86 -0.790244
8.87 -0.800215
8.88 -0.813308
8.89 -0.829832
8.9 -0.848936
8.91 -0.870272
8.92 -0.893123
8.93 -0.916789
8.94 -0.940642
8.95 -0.964112
8.96 -0.98667
8.97 -1.00802
8.98 -1.02794
8.99 -1.04623
9 -1.06308
9.01 -1.07831
9.02 -1.09228
9.03 -1.10501
9.04 -1.11665
9.05 -1.12735
9.06 -1.13697
9.07 -1.14561
9.08 -1.15293
9.09 -1.15873
9.1 -1.16262
9.11 -1.16395
9.12 -1.16247
9.13 -1.15704
9.14 -1.14752
9.15 -1.133
9.16 -1.11286
9.17 -1.087
9.18 -1.05423
9.19 -1.01527
9.2 -0.969295
9.21 -0.91697
9.22 -0.858626
9.23 -0.794581
9.24 -0.72623
9.25 -0.654059
9.26 -0.579817
9.27 -0.504723
9.28 -0.430446
9.29 -0.358381
9.3 -0.290673
9.31 -0.228213
9.32 -0.173157
9.33 -0.126332
9.34 -0.088738
9.35 -0.0618034
9.36 -0.0447593
9.37 -0.0393137
9.38 -0.043721
9.39 -0.0581061
9.4 -0.081389
9.41 -0.111894
9.42 -0.148896
9.43 -0.189913
9.44 -0.233639
9.45 -0.278024
9.46 -0.321471
9.47 -0.362159
9.48 -0.399157
9.49 -0.430661
9.5 -0.456612
9.51 -0.476218
9.52 -0.48946
9.53 -0.49701
9.54 -0.498811
9.55 -0.496508
9.56 -0.490722
9.57 -0.482979
9.58 -0.474475
9.59 -0.466575
9.6 -0.460271
9.61 -0.456934
9.62 -0.456964
9.63 -0.46111
9.64 -0.469632
9.65 -0.482243
9.66 -0.499207
9.67 -0.519483
9.68 -0.542855
9.69 -0.568374
9.7 -0.595362
9.71 -0.623128
9.72 -0.651024
9.73 -0.678522
9.74 -0.70533
9.75 -0.731209
9.76 -0.75609
9.77 -0.780051
9.78 -0.803016
9.79 -0.825116
9.8 -0.846092
9.81 -0.86563
9.82 -0.8831
9.83 -0.897186
9.84 -0.906918
9.85 -0.909433
9.86 -0.903245
9.87 -0.885031
9.88 -0.851455
9.89 -0.800514
9.9 -0.725978
9.91 -0.628001
9.92 -0.500626
9.93 -0.343261
9.94 -0.15425
9.95 0.0693932
9.96 0.323667
9.97 0.612004
9.98 0.927533
9.99 1.26852
10 1.62945
10.01 2.00357
10.02 2.38466
10.03 2.76434
10.04 3.13402
10.05 3.48558
10.06 3.81132
10.07 4.10083
10.08 4.35171
10.09 4.55101
10.1 4.70041
10.11 4.79318
10.12 4.82756
10.13 4.80721
10.14 4.72635
10.15 4.59631
10.16 4.41558
10.17 4.19352
10.18 3.93632
10.19 3.64998
10.2 3.34484
10.21 3.02668
10.22 2.70487
10.23 2.3861
10.24 2.07743
10.25 1.78326
10.26 1.51079
10.27 1.26023
10.28 1.03656
10.29 0.839092
10.3 0.667771
10.31 0.523157
10.32 0.400581
10.33 0.300773
10.34 0.217887
10.35 0.149967
10.36 0.0933408
10.37 0.0443199
10.38 0.000462381
10.39 -0.0415313
10.4 -0.0837519
10.41 -0.128052
10.42 -0.175615
10.43 -0.227518
10.44 -0.28355
10.45 -0.344233
10.46 -0.408497
10.47 -0.47585
10.48 -0.545227
10.49 -0.615499
10.5 -0.685451
10.51 -0.754006
10.52 -0.819837
10.53 -0.882027
10.54 -0.93971
10.55 -0.99168
10.56 -1.03796
10.57 -1.07702
10.58 -1.10934
10.59 -1.13417
10.6 -1.15131
10.61 -1.16121
10.62 -1.1629
10.63 -1.15768
10.64 -1.14495
10.65 -1.1256
10.66 -1.10011
10.67 -1.06875
10.68 -1.03287
10.69 -0.992704
10.7 -0.949743
10.71 -0.904806
10.72 -0.859097
10.73 -0.81369
10.74 -0.76992
10.75 -0.728601
10.76 -0.691066
10.77 -0.658005
10.78 -0.630103
10.79 -0.608347
10.8 -0.592393
10.81 -0.583366
10.82 -0.580388
10.83 -0.583675
10.84 -0.592813
10.85 -0.606948
10.86 -0.626065
10.87 -0.648802
10.88 -0.674857
10.89 -0.70325
10.9 -0.733329
10.91 -0.764483
10.92 -0.796074
10.93 -0.827633
10.94 -0.858764
10.95 -0.889138
10.96 -0.918493
10.97 -0.946733
10.98 -0.973541
10.99 -0.999006
11 -1.02286
11.01 -1.04509
11.02 -1.06562
11.03 -1.08419
11.04 -1.10093
11.05 -1.11543
11.06 -1.12791
11.07 -1.1382
11.08 -1.14631
11.09 -1.15248
11.1 -1.15661
11.11 -1.15918
11.12 -1.16029
11.13 -1.16034
11.14 -1.15958
11.15 -1.15823
11.16 -1.15647
11.17 -1.15424
11.18 -1.15135
11.19 -1.14734
11.2 -1.14137
11.21 -1.13266
11.22 -1.11927
11.23 -1.1003
11.24 -1.07315
11.25 -1.03618
11.26 -0.987454
11.27 -0.923783
11.28 -0.845056
11.29 -0.746997
11.3 -0.630663
11.31 -0.494083
11.32 -0.337083
11.33 -0.161567
11.34 0.0335304
11.35 0.243384
11.36 0.46677
11.37 0.698945
11.38 0.935845
11.39 1.17233
11.4 1.40368
11.41 1.6231
11.42 1.82665
11.43 2.00836
11.44 2.16312
11.45 2.28918
11.46 2.37881
11.47 2.43501
11.48 2.45248
11.49 2.43357
11.5 2.3794
11.51 2.28985
11.52 2.17173
11.53 2.02481
11.54 1.85719
11.55 1.67229
11.56 1.4758
11.57 1.27325
11.58 1.0696
11.59 0.869487
11.6 0.677558
11.61 0.496917
11.62 0.329982
11.63 0.179748
11.64 0.0452171
11.65 -0.0709541
11.66 -0.171585
11.67 -0.256832
11.68 -0.328534
11.69 -0.389494
11.7 -0.440786
11.71 -0.485987
11.72 -0.526609
11.73 -0.565008
11.74 -0.602707
11.75 -0.641018
11.76 -0.680549
11.77 -0.721765
11.78 -0.764217
11.79 -0.807319
11.8 -0.8499
11.81 -0.890752
11.82 -0.927777
11.83 -0.959848
11.84 -0.984556
11.85 -1.00056
11.86 -1.00647
11.87 -1.00006
11.88 -0.98178
11.89 -0.948953
11.9 -0.90296
11.91 -0.842944
11.92 -0.769255
11.93 -0.683481
11.94 -0.585075
11.95 -0.477096
11.96 -0.360005
11.97 -0.236266
11.98 -0.10776
11.99 0.0234621
12 0.155064
12.01 0.2846
12.02 0.410032
12.03 0.528958
12.04 0.639036
12.05 0.739096
12.06 0.825622
12.07 0.899014
12.08 0.956362
12.09 0.997613
12.1 1.02228
12.11 1.02893
12.12 1.01977
12.13 0.99295
12.14 0.951593
12.15 0.896084
12.16 0.828236
12.17 0.750712
12.18 0.664652
12.19 0.57352
12.2 0.479144
12.21 0.384195
12.22 0.290728
12.23 0.201078
12.24 0.116345
12.25 0.038743
12.26 -0.0316959
12.27 -0.0940991
12.28 -0.148445
12.29 -0.195689
12.3 -0.235726
12.31 -0.270647
12.32 -0.301193
12.33 -0.329156
12.34 -0.35591
12.35 -0.38291
12.36 -0.411201
12.37 -0.44196
12.38 -0.475408
12.39 -0.511807
12.4 -0.55079
