# xPDFsuite Configuration #
[PDF]
wavelength = 0.1432
dataformat = twotheta
inputfile = 1_1Pd_CeO2_cycle-00409.chi
backgroundfile = background-00000.chi
mode = xray
bgscale = 1.007
composition = CeO2
outputtype = gr
qmaxinst = 28.8974762299
qmin = 0.5
qmax = 27.9
rmax = 50.0
rmin = 0.0
rstep = 0.01
rpoly = 1.8657

[Misc]
inputdir = G:/SankarDec16/1Pd/Chi
savedir = D:/DATA/APS_CeO2/1Pd
backgroundfilefull = G:/SankarDec16/Background/background-00000.chi

#### start data
#S 1
#L r($\AA$)  G($\AA^{-2}$)
0 0
0.01 -0.00528037
0.02 -0.0101648
0.03 -0.0142454
0.04 -0.0172147
0.05 -0.0189011
0.06 -0.0190285
0.07 -0.0177788
0.08 -0.0150614
0.09 -0.0112242
0.1 -0.00650714
0.11 -0.00127832
0.12 0.00405839
0.13 0.00905207
0.14 0.0133792
0.15 0.0166461
0.16 0.0186195
0.17 0.0192038
0.18 0.0182069
0.19 0.0158941
0.2 0.0122701
0.21 0.00773934
0.22 0.00259937
0.23 -0.00273698
0.24 -0.00788786
0.25 -0.0123674
0.26 -0.0159387
0.27 -0.01824
0.28 -0.0191222
0.29 -0.0185705
0.3 -0.0164854
0.31 -0.0132039
0.32 -0.00882598
0.33 -0.00379504
0.34 0.00154699
0.35 0.00676054
0.36 0.0115028
0.37 0.0152745
0.38 0.0179358
0.39 0.019173
0.4 0.0189283
0.41 0.0172682
0.42 0.0141905
0.43 0.0100894
0.44 0.0051558
0.45 -0.000147293
0.46 -0.00544876
0.47 -0.0103014
0.48 -0.0144171
0.49 -0.017305
0.5 -0.018929
0.51 -0.0190376
0.52 -0.0176669
0.53 -0.0149624
0.54 -0.0110197
0.55 -0.00627289
0.56 -0.000995478
0.57 0.00435
0.58 0.00937982
0.59 0.0136588
0.6 0.0169664
0.61 0.0188424
0.62 0.0193562
0.63 0.0183299
0.64 0.0158928
0.65 0.012263
0.66 0.00763029
0.67 0.00244968
0.68 -0.00293417
0.69 -0.00807949
0.7 -0.0126068
0.71 -0.0161118
0.72 -0.0184515
0.73 -0.0192161
0.74 -0.0185776
0.75 -0.0164395
0.76 -0.013018
0.77 -0.00859402
0.78 -0.00344293
0.79 0.00197968
0.8 0.00727432
0.81 0.0120391
0.82 0.0159161
0.83 0.0185493
0.84 0.019879
0.85 0.0195632
0.86 0.0178665
0.87 0.0147753
0.88 0.0105794
0.89 0.00560583
0.9 0.000195498
0.91 -0.00521975
0.92 -0.0102151
0.93 -0.014452
0.94 -0.0176204
0.95 -0.0194405
0.96 -0.0199406
0.97 -0.018883
0.98 -0.0166076
0.99 -0.0131973
1 -0.00900271
1.01 -0.00437798
1.02 0.000281732
1.03 0.00460847
1.04 0.00817708
1.05 0.0107548
1.06 0.012117
1.07 0.0121083
1.08 0.0108758
1.09 0.00835577
1.1 0.0049789
1.11 0.000986014
1.12 -0.00317589
1.13 -0.00710204
1.14 -0.0102689
1.15 -0.0123928
1.16 -0.0129672
1.17 -0.0118835
1.18 -0.00897523
1.19 -0.00418597
1.2 0.00216858
1.21 0.0100399
1.22 0.0188061
1.23 0.0280689
1.24 0.0372111
1.25 0.0456973
1.26 0.0527956
1.27 0.0581814
1.28 0.0611361
1.29 0.0615339
1.3 0.0591112
1.31 0.053711
1.32 0.0457225
1.33 0.0349886
1.34 0.0223078
1.35 0.00798232
1.36 -0.00730735
1.37 -0.0229425
1.38 -0.0382226
1.39 -0.0526085
1.4 -0.0653755
1.41 -0.0761789
1.42 -0.0846147
1.43 -0.0903243
1.44 -0.0934731
1.45 -0.0936236
1.46 -0.0913459
1.47 -0.0866166
1.48 -0.0798297
1.49 -0.071387
1.5 -0.0615425
1.51 -0.0508333
1.52 -0.039524
1.53 -0.0280051
1.54 -0.0165326
1.55 -0.00535673
1.56 0.00539919
1.57 0.0155208
1.58 0.02502
1.59 0.0337782
1.6 0.0417672
1.61 0.0489739
1.62 0.0552447
1.63 0.0606215
1.64 0.0648645
1.65 0.0679372
1.66 0.0696617
1.67 0.0698071
1.68 0.0683899
1.69 0.0649805
1.7 0.0597782
1.71 0.0525636
1.72 0.0434239
1.73 0.0325331
1.74 0.0199205
1.75 0.00606596
1.76 -0.00882912
1.77 -0.0242437
1.78 -0.0397618
1.79 -0.0548617
1.8 -0.0691688
1.81 -0.08205
1.82 -0.0933537
1.83 -0.102647
1.84 -0.109792
1.85 -0.114814
1.86 -0.117542
1.87 -0.118426
1.88 -0.117493
1.89 -0.115268
1.9 -0.1121
1.91 -0.108434
1.92 -0.104703
1.93 -0.101351
1.94 -0.0986473
1.95 -0.0968895
1.96 -0.0961944
1.97 -0.0965329
1.98 -0.0978961
1.99 -0.0999417
2 -0.102416
2.01 -0.104855
2.02 -0.106811
2.03 -0.107707
2.04 -0.107195
2.05 -0.104474
2.06 -0.0994396
2.07 -0.0915047
2.08 -0.0804435
2.09 -0.0662062
2.1 -0.0483302
2.11 -0.0272709
2.12 -0.00265853
2.13 0.0250549
2.14 0.0557782
2.15 0.0893829
2.16 0.125359
2.17 0.163813
2.18 0.204107
2.19 0.246135
2.2 0.289513
2.21 0.333874
2.22 0.378881
2.23 0.424031
2.24 0.468789
2.25 0.512562
2.26 0.554666
2.27 0.594161
2.28 0.630537
2.29 0.662189
2.3 0.688863
2.31 0.709141
2.32 0.72223
2.33 0.727702
2.34 0.723989
2.35 0.711867
2.36 0.689979
2.37 0.65929
2.38 0.61995
2.39 0.572405
2.4 0.518382
2.41 0.45823
2.42 0.394335
2.43 0.327972
2.44 0.261097
2.45 0.195341
2.46 0.132747
2.47 0.0743355
2.48 0.0220286
2.49 -0.0237145
2.5 -0.0621594
2.51 -0.092771
2.52 -0.116493
2.53 -0.132764
2.54 -0.143549
2.55 -0.149455
2.56 -0.152061
2.57 -0.152831
2.58 -0.153221
2.59 -0.154565
2.6 -0.158245
2.61 -0.165009
2.62 -0.175504
2.63 -0.190161
2.64 -0.208465
2.65 -0.230521
2.66 -0.255022
2.67 -0.28121
2.68 -0.307782
2.69 -0.333589
2.7 -0.357165
2.71 -0.377777
2.72 -0.394099
2.73 -0.4059
2.74 -0.412839
2.75 -0.41484
2.76 -0.412824
2.77 -0.407015
2.78 -0.39903
2.79 -0.38991
2.8 -0.381158
2.81 -0.37401
2.82 -0.370079
2.83 -0.369936
2.84 -0.374894
2.85 -0.384912
2.86 -0.400097
2.87 -0.420194
2.88 -0.443976
2.89 -0.470755
2.9 -0.49869
2.91 -0.526338
2.92 -0.551951
2.93 -0.574193
2.94 -0.591126
2.95 -0.602431
2.96 -0.606618
2.97 -0.604063
2.98 -0.594833
2.99 -0.579444
3 -0.559539
3.01 -0.536061
3.02 -0.511269
3.03 -0.486894
3.04 -0.464962
3.05 -0.446966
3.06 -0.435045
3.07 -0.429447
3.08 -0.431706
3.09 -0.441258
3.1 -0.457872
3.11 -0.480807
3.12 -0.508185
3.13 -0.538791
3.14 -0.570227
3.15 -0.60059
3.16 -0.62782
3.17 -0.650501
3.18 -0.666609
3.19 -0.676216
3.2 -0.678163
3.21 -0.673475
3.22 -0.662894
3.23 -0.64783
3.24 -0.630474
3.25 -0.613
3.26 -0.597793
3.27 -0.587363
3.28 -0.583873
3.29 -0.588581
3.3 -0.603729
3.31 -0.628402
3.32 -0.663601
3.33 -0.70734
3.34 -0.758142
3.35 -0.813644
3.36 -0.870788
3.37 -0.926232
3.38 -0.977012
3.39 -1.01969
3.4 -1.05158
3.41 -1.0713
3.42 -1.07603
3.43 -1.06742
3.44 -1.04437
3.45 -1.00983
3.46 -0.965963
3.47 -0.916028
3.48 -0.864076
3.49 -0.814416
3.5 -0.770683
3.51 -0.736945
3.52 -0.716052
3.53 -0.709097
3.54 -0.718282
3.55 -0.740604
3.56 -0.775163
3.57 -0.816643
3.58 -0.859917
3.59 -0.897421
3.6 -0.922715
3.61 -0.924074
3.62 -0.89643
3.63 -0.829062
3.64 -0.714971
3.65 -0.550834
3.66 -0.326164
3.67 -0.0470187
3.68 0.293434
3.69 0.686737
3.7 1.12855
3.71 1.61169
3.72 2.12237
3.73 2.65085
3.74 3.1806
3.75 3.69702
3.76 4.18394
3.77 4.62911
3.78 5.01188
3.79 5.32885
3.8 5.56055
3.81 5.70647
3.82 5.76061
3.83 5.71743
3.84 5.58857
3.85 5.36499
3.86 5.06791
3.87 4.70055
3.88 4.27759
3.89 3.81395
3.9 3.32138
3.91 2.8174
3.92 2.31537
3.93 1.82874
3.94 1.36875
3.95 0.947398
3.96 0.567501
3.97 0.242022
3.98 -0.0340763
3.99 -0.255907
4 -0.426542
4.01 -0.55167
4.02 -0.631908
4.03 -0.679086
4.04 -0.696105
4.05 -0.693009
4.06 -0.67607
4.07 -0.652005
4.08 -0.626751
4.09 -0.605512
4.1 -0.591213
4.11 -0.586679
4.12 -0.592795
4.13 -0.608925
4.14 -0.634899
4.15 -0.667532
4.16 -0.704975
4.17 -0.74375
4.18 -0.780981
4.19 -0.81328
4.2 -0.838734
4.21 -0.853627
4.22 -0.857797
4.23 -0.849252
4.24 -0.827814
4.25 -0.794272
4.26 -0.748059
4.27 -0.69197
4.28 -0.62629
4.29 -0.553627
4.3 -0.475574
4.31 -0.393908
4.32 -0.310535
4.33 -0.226897
4.34 -0.144301
4.35 -0.0638411
4.36 0.0136877
4.37 0.0879208
4.38 0.158045
4.39 0.22437
4.4 0.286196
4.41 0.343722
4.42 0.39667
4.43 0.444512
4.44 0.487434
4.45 0.524045
4.46 0.554656
4.47 0.578095
4.48 0.593789
4.49 0.601529
4.5 0.599753
4.51 0.589329
4.52 0.568871
4.53 0.539219
4.54 0.500462
4.55 0.452781
4.56 0.397828
4.57 0.335565
4.58 0.268265
4.59 0.196848
4.6 0.123009
4.61 0.0482455
4.62 -0.0258699
4.63 -0.0981304
4.64 -0.167025
4.65 -0.231797
4.66 -0.291659
4.67 -0.34582
4.68 -0.394646
4.69 -0.43722
4.7 -0.474623
4.71 -0.506764
4.72 -0.534294
4.73 -0.557976
4.74 -0.578073
4.75 -0.595645
4.76 -0.610959
4.77 -0.624721
4.78 -0.637285
4.79 -0.648936
4.8 -0.659957
4.81 -0.670371
4.82 -0.680299
4.83 -0.689683
4.84 -0.698481
4.85 -0.706668
4.86 -0.714116
4.87 -0.720903
4.88 -0.726952
4.89 -0.732376
4.9 -0.737249
4.91 -0.741676
4.92 -0.745825
4.93 -0.749813
4.94 -0.753795
4.95 -0.757882
4.96 -0.762166
4.97 -0.766682
4.98 -0.77148
4.99 -0.776509
5 -0.781767
5.01 -0.787192
5.02 -0.792756
5.03 -0.798444
5.04 -0.804254
5.05 -0.810258
5.06 -0.816506
5.07 -0.823119
5.08 -0.83021
5.09 -0.837837
5.1 -0.846115
5.11 -0.854917
5.12 -0.864139
5.13 -0.87341
5.14 -0.882249
5.15 -0.88983
5.16 -0.895437
5.17 -0.897422
5.18 -0.894946
5.19 -0.886155
5.2 -0.869448
5.21 -0.843771
5.22 -0.806307
5.23 -0.757343
5.24 -0.69423
5.25 -0.617376
5.26 -0.526334
5.27 -0.420741
5.28 -0.30291
5.29 -0.172475
5.3 -0.0332779
5.31 0.112836
5.32 0.262322
5.33 0.411773
5.34 0.556801
5.35 0.694244
5.36 0.818989
5.37 0.928187
5.38 1.01846
5.39 1.08573
5.4 1.13046
5.41 1.14728
5.42 1.13949
5.43 1.10526
5.44 1.04629
5.45 0.965616
5.46 0.863666
5.47 0.746364
5.48 0.61556
5.49 0.476476
5.5 0.332813
5.51 0.188804
5.52 0.0478759
5.53 -0.0856389
5.54 -0.209937
5.55 -0.322053
5.56 -0.420485
5.57 -0.50511
5.58 -0.573958
5.59 -0.62945
5.6 -0.670707
5.61 -0.700144
5.62 -0.719002
5.63 -0.728587
5.64 -0.731377
5.65 -0.727998
5.66 -0.720645
5.67 -0.710018
5.68 -0.696985
5.69 -0.682047
5.7 -0.665077
5.71 -0.646158
5.72 -0.624601
5.73 -0.600042
5.74 -0.571885
5.75 -0.539351
5.76 -0.502552
5.77 -0.46059
5.78 -0.41431
5.79 -0.363796
5.8 -0.309987
5.81 -0.254083
5.82 -0.197452
5.83 -0.141755
5.84 -0.0889864
5.85 -0.0408264
5.86 0.00099591
5.87 0.034362
5.88 0.0589426
5.89 0.0721197
5.9 0.0748527
5.91 0.0660913
5.92 0.0463186
5.93 0.0167516
5.94 -0.0225578
5.95 -0.0689643
5.96 -0.121675
5.97 -0.178336
5.98 -0.237297
5.99 -0.296724
6 -0.355139
6.01 -0.410855
6.02 -0.463219
6.03 -0.511285
6.04 -0.554761
6.05 -0.593901
6.06 -0.628531
6.07 -0.659793
6.08 -0.688019
6.09 -0.714311
6.1 -0.739429
6.11 -0.764165
6.12 -0.789118
6.13 -0.814793
6.14 -0.841265
6.15 -0.868521
6.16 -0.896206
6.17 -0.923819
6.18 -0.950573
6.19 -0.975846
6.2 -0.998624
6.21 -1.01835
6.22 -1.03443
6.23 -1.04624
6.24 -1.05411
6.25 -1.05751
6.26 -1.05741
6.27 -1.05412
6.28 -1.04849
6.29 -1.04139
6.3 -1.03354
6.31 -1.02566
6.32 -1.01811
6.33 -1.01085
6.34 -1.00341
6.35 -0.994571
6.36 -0.982981
6.37 -0.965593
6.38 -0.940337
6.39 -0.90329
6.4 -0.850614
6.41 -0.779622
6.42 -0.683614
6.43 -0.562499
6.44 -0.40971
6.45 -0.22515
6.46 -0.00702848
6.47 0.246828
6.48 0.531792
6.49 0.850431
6.5 1.19444
6.51 1.56093
6.52 1.94262
6.53 2.33184
6.54 2.71986
6.55 3.09823
6.56 3.45591
6.57 3.78477
6.58 4.07615
6.59 4.319
6.6 4.51217
6.61 4.64108
6.62 4.71049
6.63 4.71344
6.64 4.6506
6.65 4.5271
6.66 4.33943
6.67 4.10125
6.68 3.81306
6.69 3.48703
6.7 3.13105
6.71 2.75408
6.72 2.36707
6.73 1.979
6.74 1.59892
6.75 1.23532
6.76 0.895542
6.77 0.583453
6.78 0.307437
6.79 0.0653023
6.8 -0.137146
6.81 -0.302959
6.82 -0.432934
6.83 -0.527765
6.84 -0.594103
6.85 -0.631541
6.86 -0.648151
6.87 -0.646431
6.88 -0.631207
6.89 -0.606822
6.9 -0.576176
6.91 -0.542969
6.92 -0.509371
6.93 -0.477289
6.94 -0.44787
6.95 -0.422029
6.96 -0.399613
6.97 -0.381098
6.98 -0.365666
6.99 -0.353184
7 -0.343198
7.01 -0.335302
7.02 -0.329607
7.03 -0.325881
7.04 -0.324662
7.05 -0.326244
7.06 -0.331221
7.07 -0.340545
7.08 -0.354375
7.09 -0.374148
7.1 -0.399522
7.11 -0.431168
7.12 -0.468941
7.13 -0.512158
7.14 -0.560694
7.15 -0.61285
7.16 -0.66774
7.17 -0.723581
7.18 -0.778849
7.19 -0.831654
7.2 -0.880819
7.21 -0.924146
7.22 -0.961273
7.23 -0.990924
7.24 -1.01275
7.25 -1.02721
7.26 -1.03387
7.27 -1.03457
7.28 -1.02975
7.29 -1.02128
7.3 -1.01055
7.31 -0.999148
7.32 -0.988453
7.33 -0.979923
7.34 -0.97412
7.35 -0.97167
7.36 -0.97246
7.37 -0.975781
7.38 -0.980696
7.39 -0.985484
7.4 -0.988064
7.41 -0.986217
7.42 -0.977606
7.43 -0.959085
7.44 -0.929591
7.45 -0.884982
7.46 -0.825624
7.47 -0.749277
7.48 -0.655635
7.49 -0.545906
7.5 -0.419165
7.51 -0.279353
7.52 -0.12728
7.53 0.0330175
7.54 0.198366
7.55 0.364785
7.56 0.528539
7.57 0.684662
7.58 0.830294
7.59 0.961139
7.6 1.07396
7.61 1.16745
7.62 1.23691
7.63 1.28444
7.64 1.30667
7.65 1.30568
7.66 1.28209
7.67 1.23625
7.68 1.17239
7.69 1.09024
7.7 0.994967
7.71 0.888348
7.72 0.773762
7.73 0.654377
7.74 0.532881
7.75 0.412143
7.76 0.294831
7.77 0.183
7.78 0.0784787
7.79 -0.0165251
7.8 -0.101868
7.81 -0.174851
7.82 -0.236409
7.83 -0.285239
7.84 -0.321303
7.85 -0.345432
7.86 -0.356486
7.87 -0.356807
7.88 -0.345877
7.89 -0.325627
7.9 -0.297184
7.91 -0.261755
7.92 -0.221628
7.93 -0.178116
7.94 -0.133644
7.95 -0.0901236
7.96 -0.0497797
7.97 -0.0142367
7.98 0.0137473
7.99 0.033628
8 0.0429544
8.01 0.0414368
8.02 0.028436
8.03 0.00311939
8.04 -0.0328925
8.05 -0.0804754
8.06 -0.136892
8.07 -0.20128
8.08 -0.271508
8.09 -0.345329
8.1 -0.420687
8.11 -0.495288
8.12 -0.566913
8.13 -0.63389
8.14 -0.694819
8.15 -0.748176
8.16 -0.794248
8.17 -0.831725
8.18 -0.862094
8.19 -0.885559
8.2 -0.903375
8.21 -0.917075
8.22 -0.927746
8.23 -0.937104
8.24 -0.946197
8.25 -0.955922
8.26 -0.966647
8.27 -0.978249
8.28 -0.989939
8.29 -1.00015
8.3 -1.00705
8.31 -1.00787
8.32 -0.999402
8.33 -0.979212
8.34 -0.941854
8.35 -0.8865
8.36 -0.807726
8.37 -0.704578
8.38 -0.575224
8.39 -0.417095
8.4 -0.233416
8.41 -0.0213862
8.42 0.212915
8.43 0.467782
8.44 0.738096
8.45 1.01798
8.46 1.30156
8.47 1.58191
8.48 1.85136
8.49 2.10337
8.5 2.33159
8.51 2.52774
8.52 2.69049
8.53 2.80956
8.54 2.88753
8.55 2.91955
8.56 2.90551
8.57 2.84903
8.58 2.74711
8.59 2.60923
8.6 2.43546
8.61 2.23389
8.62 2.00984
8.63 1.76895
8.64 1.51882
8.65 1.26488
8.66 1.01346
8.67 0.769844
8.68 0.538921
8.69 0.323294
8.7 0.128227
8.71 -0.0472871
8.72 -0.199746
8.73 -0.33062
8.74 -0.440376
8.75 -0.52915
8.76 -0.600847
8.77 -0.655091
8.78 -0.696519
8.79 -0.726551
8.8 -0.74791
8.81 -0.763203
8.82 -0.774007
8.83 -0.78265
8.84 -0.790379
8.85 -0.79845
8.86 -0.807624
8.87 -0.81854
8.88 -0.831229
8.89 -0.846001
8.9 -0.862434
8.91 -0.880386
8.92 -0.899473
8.93 -0.919288
8.94 -0.939504
8.95 -0.959749
8.96 -0.97973
8.97 -0.99923
8.98 -1.01809
8.99 -1.03613
9 -1.05339
9.01 -1.06965
9.02 -1.08501
9.03 -1.09934
9.04 -1.11255
9.05 -1.1246
9.06 -1.13515
9.07 -1.14418
9.08 -1.15124
9.09 -1.1561
9.1 -1.15842
9.11 -1.15759
9.12 -1.15357
9.13 -1.14535
9.14 -1.13305
9.15 -1.11598
9.16 -1.09379
9.17 -1.06654
9.18 -1.03332
9.19 -0.994861
9.2 -0.95054
9.21 -0.900931
9.22 -0.846311
9.23 -0.786905
9.24 -0.723824
9.25 -0.657376
9.26 -0.588961
9.27 -0.519508
9.28 -0.450357
9.29 -0.382676
9.3 -0.318232
9.31 -0.257893
9.32 -0.20355
9.33 -0.156091
9.34 -0.116552
9.35 -0.0864257
9.36 -0.0652617
9.37 -0.0549119
9.38 -0.05404
9.39 -0.0630648
9.4 -0.081271
9.41 -0.10725
9.42 -0.140666
9.43 -0.179113
9.44 -0.221552
9.45 -0.265903
9.46 -0.310538
9.47 -0.353573
9.48 -0.393761
9.49 -0.429128
9.5 -0.459208
9.51 -0.482887
9.52 -0.499764
9.53 -0.510241
9.54 -0.513839
9.55 -0.512155
9.56 -0.505523
9.57 -0.495537
9.58 -0.483449
9.59 -0.470728
9.6 -0.458735
9.61 -0.449077
9.62 -0.442628
9.63 -0.440532
9.64 -0.443509
9.65 -0.451588
9.66 -0.465566
9.67 -0.48444
9.68 -0.50836
9.69 -0.5363
9.7 -0.567519
9.71 -0.601221
9.72 -0.636294
9.73 -0.67196
9.74 -0.707316
9.75 -0.741648
9.76 -0.774297
9.77 -0.804918
9.78 -0.83275
9.79 -0.857804
9.8 -0.879305
9.81 -0.896957
9.82 -0.910128
9.83 -0.917522
9.84 -0.918703
9.85 -0.910989
9.86 -0.893647
9.87 -0.863888
9.88 -0.819104
9.89 -0.757885
9.9 -0.674874
9.91 -0.570539
9.92 -0.439689
9.93 -0.281923
9.94 -0.0957885
9.95 0.12143
9.96 0.366224
9.97 0.641842
9.98 0.942247
9.99 1.26606
10 1.6085
10.01 1.96353
10.02 2.3257
10.03 2.68733
10.04 3.04066
10.05 3.37811
10.06 3.69248
10.07 3.97398
10.08 4.22009
10.09 4.41852
10.1 4.57043
10.11 4.66917
10.12 4.71266
10.13 4.70403
10.14 4.63731
10.15 4.523
10.16 4.35924
10.17 4.15472
10.18 3.91514
10.19 3.64596
10.2 3.35717
10.21 3.05403
10.22 2.74576
10.23 2.43875
10.24 2.13992
10.25 1.85371
10.26 1.58704
10.27 1.34046
10.28 1.11879
10.29 0.921585
10.3 0.74891
10.31 0.601375
10.32 0.474629
10.33 0.369378
10.34 0.280105
10.35 0.204957
10.36 0.14046
10.37 0.0831416
10.38 0.0307292
10.39 -0.0198395
10.4 -0.0704349
10.41 -0.12269
10.42 -0.177583
10.43 -0.235912
10.44 -0.297389
10.45 -0.362191
10.46 -0.429282
10.47 -0.497993
10.48 -0.567227
10.49 -0.635975
10.5 -0.702931
10.51 -0.767365
10.52 -0.828023
10.53 -0.884326
10.54 -0.935682
10.55 -0.981213
10.56 -1.02125
10.57 -1.05465
10.58 -1.08212
10.59 -1.10319
10.6 -1.11788
10.61 -1.12665
10.62 -1.12877
10.63 -1.12528
10.64 -1.11564
10.65 -1.10045
10.66 -1.07997
10.67 -1.05423
10.68 -1.02422
10.69 -0.989855
10.7 -0.952354
10.71 -0.912252
10.72 -0.870522
10.73 -0.828155
10.74 -0.786261
10.75 -0.745805
10.76 -0.70806
10.77 -0.673917
10.78 -0.644227
10.79 -0.62017
10.8 -0.601677
10.81 -0.590095
10.82 -0.584771
10.83 -0.58611
10.84 -0.593851
10.85 -0.607173
10.86 -0.626161
10.87 -0.649311
10.88 -0.676278
10.89 -0.705887
10.9 -0.737305
10.91 -0.769698
10.92 -0.802246
10.93 -0.834224
10.94 -0.865149
10.95 -0.894551
10.96 -0.922125
10.97 -0.947856
10.98 -0.971437
10.99 -0.993216
11 -1.01309
11.01 -1.03134
11.02 -1.04814
11.03 -1.06357
11.04 -1.07792
11.05 -1.09115
11.06 -1.10348
11.07 -1.11488
11.08 -1.12537
11.09 -1.135
11.1 -1.1436
11.11 -1.15128
11.12 -1.15785
11.13 -1.16332
11.14 -1.1676
11.15 -1.17045
11.16 -1.17186
11.17 -1.17128
11.18 -1.16857
11.19 -1.16306
11.2 -1.15398
11.21 -1.14078
11.22 -1.12163
11.23 -1.09616
11.24 -1.06212
11.25 -1.01842
11.26 -0.963596
11.27 -0.895066
11.28 -0.812995
11.29 -0.713769
11.3 -0.598458
11.31 -0.465383
11.32 -0.314385
11.33 -0.147082
11.34 0.0375901
11.35 0.235501
11.36 0.445761
11.37 0.664324
11.38 0.887719
11.39 1.11154
11.4 1.33156
11.41 1.54179
11.42 1.73852
11.43 1.91626
11.44 2.07015
11.45 2.19827
11.46 2.2932
11.47 2.35723
11.48 2.38501
11.49 2.37823
11.5 2.33746
11.51 2.26201
11.52 2.15802
11.53 2.02464
11.54 1.86946
11.55 1.69545
11.56 1.50788
11.57 1.31224
11.58 1.11308
11.59 0.915425
11.6 0.723831
11.61 0.541805
11.62 0.372082
11.63 0.218002
11.64 0.0790625
11.65 -0.0417114
11.66 -0.146734
11.67 -0.235833
11.68 -0.310575
11.69 -0.373668
11.7 -0.42597
11.71 -0.471236
11.72 -0.510962
11.73 -0.547746
11.74 -0.583323
11.75 -0.619258
11.76 -0.656435
11.77 -0.695605
11.78 -0.736511
11.79 -0.778773
11.8 -0.82135
11.81 -0.863024
11.82 -0.9018
11.83 -0.936341
11.84 -0.964188
11.85 -0.983774
11.86 -0.993507
11.87 -0.990959
11.88 -0.976378
11.89 -0.94687
11.9 -0.90373
11.91 -0.845989
11.92 -0.77397
11.93 -0.689336
11.94 -0.591567
11.95 -0.483926
11.96 -0.367016
11.97 -0.243514
11.98 -0.11548
11.99 0.0148185
12 0.144963
12.01 0.272318
12.02 0.394895
12.03 0.510282
12.04 0.616239
12.05 0.711789
12.06 0.793613
12.07 0.862396
12.08 0.915541
12.09 0.95329
12.1 0.975428
12.11 0.980869
12.12 0.971857
12.13 0.946918
12.14 0.909015
12.15 0.858599
12.16 0.797352
12.17 0.727638
12.18 0.65044
12.19 0.568734
12.2 0.484011
12.21 0.398487
12.22 0.31383
12.23 0.231894
12.24 0.153589
12.25 0.080622
12.26 0.0130505
12.27 -0.0484553
12.28 -0.103873
12.29 -0.153921
12.3 -0.198512
12.31 -0.239212
12.32 -0.27655
12.33 -0.311836
12.34 -0.346049
12.35 -0.380177
12.36 -0.414939
12.37 -0.451022
12.38 -0.488499
12.39 -0.527353
