# xPDFsuite Configuration #
[PDF]
wavelength = 0.1432
dataformat = twotheta
inputfile = 1_1Pd_CeO2_cycle-00439.chi
backgroundfile = background-00000.chi
mode = xray
bgscale = 1.007
composition = CeO2
outputtype = gr
qmaxinst = 28.8974762299
qmin = 0.5
qmax = 27.9
rmax = 50.0
rmin = 0.0
rstep = 0.01
rpoly = 1.8657

[Misc]
inputdir = G:/SankarDec16/1Pd/Chi
savedir = D:/DATA/APS_CeO2/1Pd
backgroundfilefull = G:/SankarDec16/Background/background-00000.chi

#### start data
#S 1
#L r($\AA$)  G($\AA^{-2}$)
0 0
0.01 -0.00483572
0.02 -0.00930745
0.03 -0.0130404
0.04 -0.0157521
0.05 -0.0172855
0.06 -0.0173877
0.07 -0.0162268
0.08 -0.0137211
0.09 -0.0101914
0.1 -0.00585953
0.11 -0.00106517
0.12 0.00382079
0.13 0.00838265
0.14 0.0123251
0.15 0.0152872
0.16 0.0170568
0.17 0.0175491
0.18 0.0165909
0.19 0.0144289
0.2 0.0110718
0.21 0.00689357
0.22 0.00217006
0.23 -0.00271731
0.24 -0.00741904
0.25 -0.0114872
0.26 -0.0147089
0.27 -0.0167541
0.28 -0.0174911
0.29 -0.0169112
0.3 -0.0149294
0.31 -0.0118598
0.32 -0.00780096
0.33 -0.00316272
0.34 0.00173776
0.35 0.00649493
0.36 0.0107972
0.37 0.0141855
0.38 0.0165393
0.39 0.0175752
0.4 0.0172481
0.41 0.0156264
0.42 0.0127174
0.43 0.00888806
0.44 0.00432251
0.45 -0.000552459
0.46 -0.00539341
0.47 -0.00978937
0.48 -0.0134816
0.49 -0.0160213
0.5 -0.0173865
0.51 -0.0173538
0.52 -0.0159674
0.53 -0.0133698
0.54 -0.00966099
0.55 -0.0052435
0.56 -0.000378884
0.57 0.00450891
0.58 0.00906638
0.59 0.0128962
0.6 0.0158051
0.61 0.0173757
0.62 0.0176861
0.63 0.0165839
0.64 0.014201
0.65 0.0107478
0.66 0.0064128
0.67 0.00161577
0.68 -0.00331632
0.69 -0.00798184
0.7 -0.0120338
0.71 -0.0151066
0.72 -0.0170817
0.73 -0.0175925
0.74 -0.0168134
0.75 -0.0146699
0.76 -0.011375
0.77 -0.00719699
0.78 -0.00240322
0.79 0.00258905
0.8 0.00740414
0.81 0.0116814
0.82 0.0150972
0.83 0.0173352
0.84 0.0183561
0.85 0.0178608
0.86 0.0161093
0.87 0.0131057
0.88 0.00913008
0.89 0.00449076
0.9 -0.00048687
0.91 -0.00541313
0.92 -0.00989456
0.93 -0.0136356
0.94 -0.0163634
0.95 -0.0178401
0.96 -0.0181111
0.97 -0.016984
0.98 -0.0147866
0.99 -0.0116178
1 -0.00781241
1.01 -0.00370039
1.02 0.000344056
1.03 0.00400103
1.04 0.00688284
1.05 0.00880419
1.06 0.00958281
1.07 0.00911048
1.08 0.00755293
1.09 0.0049005
1.1 0.00157046
1.11 -0.00217335
1.12 -0.0058965
1.13 -0.00921638
1.14 -0.0116209
1.15 -0.0128774
1.16 -0.0125059
1.17 -0.0104476
1.18 -0.0065751
1.19 -0.000877057
1.2 0.00630367
1.21 0.0148681
1.22 0.0241899
1.23 0.0338393
1.24 0.0431926
1.25 0.0517171
1.26 0.0586636
1.27 0.063737
1.28 0.0662057
1.29 0.0659706
1.3 0.0627754
1.31 0.0564716
1.32 0.0474728
1.33 0.0356185
1.34 0.0217379
1.35 0.00614193
1.36 -0.0104651
1.37 -0.0274395
1.38 -0.0440476
1.39 -0.0597157
1.4 -0.0736646
1.41 -0.0855048
1.42 -0.094774
1.43 -0.101039
1.44 -0.104438
1.45 -0.104415
1.46 -0.101556
1.47 -0.0957593
1.48 -0.0874148
1.49 -0.076946
1.5 -0.0645896
1.51 -0.0509984
1.52 -0.0364765
1.53 -0.0215617
1.54 -0.0066357
1.55 0.00787745
1.56 0.0217125
1.57 0.0344058
1.58 0.0458741
1.59 0.0557833
1.6 0.0639866
1.61 0.0704185
1.62 0.0747588
1.63 0.0771963
1.64 0.0774095
1.65 0.0755773
1.66 0.071657
1.67 0.0656342
1.68 0.0578121
1.69 0.0480583
1.7 0.0368705
1.71 0.0243717
1.72 0.0109472
1.73 -0.00302845
1.74 -0.0171541
1.75 -0.0310124
1.76 -0.0441165
1.77 -0.0561198
1.78 -0.0666559
1.79 -0.0753495
1.8 -0.0822044
1.81 -0.0867888
1.82 -0.0894579
1.83 -0.090158
1.84 -0.0892148
1.85 -0.0870172
1.86 -0.0839258
1.87 -0.0805187
1.88 -0.0773009
1.89 -0.0747779
1.9 -0.0734006
1.91 -0.0736295
1.92 -0.0755394
1.93 -0.0795664
1.94 -0.0853668
1.95 -0.0929256
1.96 -0.10182
1.97 -0.111552
1.98 -0.121522
1.99 -0.131051
2 -0.1393
2.01 -0.145623
2.02 -0.149312
2.03 -0.149587
2.04 -0.146347
2.05 -0.13858
2.06 -0.12677
2.07 -0.110505
2.08 -0.0900637
2.09 -0.065885
2.1 -0.0380323
2.11 -0.00745076
2.12 0.0256518
2.13 0.0604727
2.14 0.0965574
2.15 0.133436
2.16 0.170688
2.17 0.20806
2.18 0.245365
2.19 0.282527
2.2 0.319551
2.21 0.356487
2.22 0.393385
2.23 0.430269
2.24 0.467074
2.25 0.503624
2.26 0.539604
2.27 0.574445
2.28 0.607668
2.29 0.638034
2.3 0.665001
2.31 0.687184
2.32 0.703515
2.33 0.713243
2.34 0.714512
2.35 0.707641
2.36 0.690897
2.37 0.664866
2.38 0.629376
2.39 0.584544
2.4 0.532046
2.41 0.471915
2.42 0.406762
2.43 0.337834
2.44 0.267321
2.45 0.197132
2.46 0.129578
2.47 0.0660715
2.48 0.00889151
2.49 -0.0411723
2.5 -0.0830878
2.51 -0.116016
2.52 -0.140862
2.53 -0.156761
2.54 -0.165897
2.55 -0.168845
2.56 -0.167401
2.57 -0.163292
2.58 -0.158214
2.59 -0.153877
2.6 -0.151987
2.61 -0.15361
2.62 -0.159672
2.63 -0.170894
2.64 -0.186808
2.65 -0.207809
2.66 -0.232406
2.67 -0.259887
2.68 -0.28877
2.69 -0.317681
2.7 -0.34497
2.71 -0.369572
2.72 -0.389907
2.73 -0.405474
2.74 -0.415706
2.75 -0.420308
2.76 -0.420158
2.77 -0.415285
2.78 -0.407452
2.79 -0.3977
2.8 -0.387695
2.81 -0.378858
2.82 -0.37299
2.83 -0.370901
2.84 -0.374127
2.85 -0.382803
2.86 -0.397187
2.87 -0.417152
2.88 -0.44144
2.89 -0.469443
2.9 -0.499127
2.91 -0.528957
2.92 -0.55697
2.93 -0.581625
2.94 -0.600719
2.95 -0.613756
2.96 -0.618977
2.97 -0.616657
2.98 -0.606752
2.99 -0.589704
3 -0.567296
3.01 -0.540456
3.02 -0.511751
3.03 -0.4831
3.04 -0.456846
3.05 -0.434766
3.06 -0.419383
3.07 -0.411143
3.08 -0.411953
3.09 -0.421346
3.1 -0.439225
3.11 -0.464938
3.12 -0.496392
3.13 -0.532406
3.14 -0.57014
3.15 -0.607458
3.16 -0.64187
3.17 -0.671573
3.18 -0.694041
3.19 -0.709049
3.2 -0.714924
3.21 -0.712509
3.22 -0.702317
3.23 -0.685556
3.24 -0.664635
3.25 -0.641544
3.26 -0.619187
3.27 -0.600249
3.28 -0.587363
3.29 -0.582245
3.3 -0.587649
3.31 -0.603119
3.32 -0.630223
3.33 -0.667311
3.34 -0.713262
3.35 -0.766061
3.36 -0.822556
3.37 -0.879778
3.38 -0.934318
3.39 -0.982716
3.4 -1.02192
3.41 -1.05011
3.42 -1.06411
3.43 -1.065
3.44 -1.05123
3.45 -1.02526
3.46 -0.988864
3.47 -0.944853
3.48 -0.897194
3.49 -0.849712
3.5 -0.806271
3.51 -0.770786
3.52 -0.746283
3.53 -0.734124
3.54 -0.736645
3.55 -0.751346
3.56 -0.777587
3.57 -0.810509
3.58 -0.845344
3.59 -0.87494
3.6 -0.8931
3.61 -0.888558
3.62 -0.856302
3.63 -0.785897
3.64 -0.670428
3.65 -0.506543
3.66 -0.283934
3.67 -0.00836525
3.68 0.326901
3.69 0.713695
3.7 1.14781
3.71 1.62226
3.72 2.12354
3.73 2.64209
3.74 3.16169
3.75 3.668
3.76 4.14513
3.77 4.58107
3.78 4.95556
3.79 5.26532
3.8 5.49129
3.81 5.63309
3.82 5.68494
3.83 5.64158
3.84 5.51452
3.85 5.29515
3.86 5.00432
3.87 4.64537
3.88 4.23272
3.89 3.781
3.9 3.30174
3.91 2.81192
3.92 2.32448
3.93 1.85232
3.94 1.40615
3.95 0.99736
3.96 0.62841
3.97 0.311464
3.98 0.0414404
3.99 -0.177278
4 -0.347879
4.01 -0.475937
4.02 -0.562286
4.03 -0.618097
4.04 -0.6462
4.05 -0.655902
4.06 -0.65294
4.07 -0.643332
4.08 -0.632331
4.09 -0.624301
4.1 -0.621659
4.11 -0.626521
4.12 -0.639314
4.13 -0.65923
4.14 -0.685568
4.15 -0.715597
4.16 -0.747257
4.17 -0.777692
4.18 -0.804439
4.19 -0.82469
4.2 -0.837324
4.21 -0.839339
4.22 -0.831322
4.23 -0.812036
4.24 -0.781946
4.25 -0.742205
4.26 -0.692944
4.27 -0.636724
4.28 -0.574231
4.29 -0.507622
4.3 -0.438226
4.31 -0.367397
4.32 -0.296274
4.33 -0.225757
4.34 -0.156309
4.35 -0.0883222
4.36 -0.0218784
4.37 0.0431259
4.38 0.106626
4.39 0.168888
4.4 0.229716
4.41 0.289032
4.42 0.346438
4.43 0.401153
4.44 0.452694
4.45 0.499328
4.46 0.540551
4.47 0.57462
4.48 0.600296
4.49 0.616894
4.5 0.622194
4.51 0.616975
4.52 0.59939
4.53 0.570419
4.54 0.530199
4.55 0.479068
4.56 0.419197
4.57 0.350798
4.58 0.276807
4.59 0.198601
4.6 0.118419
4.61 0.0381522
4.62 -0.0400956
4.63 -0.115039
4.64 -0.184809
4.65 -0.248765
4.66 -0.306178
4.67 -0.356411
4.68 -0.400258
4.69 -0.437052
4.7 -0.468403
4.71 -0.494617
4.72 -0.516786
4.73 -0.535977
4.74 -0.552883
4.75 -0.568575
4.76 -0.583586
4.77 -0.59847
4.78 -0.613485
4.79 -0.628734
4.8 -0.644112
4.81 -0.659375
4.82 -0.674211
4.83 -0.688209
4.84 -0.700978
4.85 -0.712281
4.86 -0.721675
4.87 -0.729304
4.88 -0.734958
4.89 -0.738969
4.9 -0.741584
4.91 -0.743183
4.92 -0.744299
4.93 -0.745424
4.94 -0.747054
4.95 -0.749667
4.96 -0.753631
4.97 -0.759101
4.98 -0.766377
4.99 -0.775187
5 -0.785554
5.01 -0.797052
5.02 -0.809341
5.03 -0.821974
5.04 -0.834502
5.05 -0.84641
5.06 -0.857394
5.07 -0.867068
5.08 -0.875209
5.09 -0.881767
5.1 -0.886483
5.11 -0.889594
5.12 -0.890901
5.13 -0.890538
5.14 -0.8884
5.15 -0.884184
5.16 -0.877797
5.17 -0.868271
5.18 -0.855316
5.19 -0.837731
5.2 -0.814424
5.21 -0.784584
5.22 -0.745978
5.23 -0.69859
5.24 -0.640072
5.25 -0.570369
5.26 -0.488743
5.27 -0.394407
5.28 -0.288965
5.29 -0.171518
5.3 -0.0451688
5.31 0.0888793
5.32 0.227709
5.33 0.368306
5.34 0.506951
5.35 0.640397
5.36 0.763963
5.37 0.874532
5.38 0.968587
5.39 1.04182
5.4 1.09408
5.41 1.11966
5.42 1.12116
5.43 1.09623
5.44 1.04596
5.45 0.972993
5.46 0.87715
5.47 0.764285
5.48 0.635846
5.49 0.497171
5.5 0.352011
5.51 0.204742
5.52 0.0592571
5.53 -0.079871
5.54 -0.210236
5.55 -0.328437
5.56 -0.432451
5.57 -0.521774
5.58 -0.593888
5.59 -0.651124
5.6 -0.6922
5.61 -0.719606
5.62 -0.734596
5.63 -0.738565
5.64 -0.734417
5.65 -0.722964
5.66 -0.706987
5.67 -0.6876
5.68 -0.666203
5.69 -0.64371
5.7 -0.620594
5.71 -0.597107
5.72 -0.573066
5.73 -0.54814
5.74 -0.521832
5.75 -0.493436
5.76 -0.462686
5.77 -0.428716
5.78 -0.391758
5.79 -0.351605
5.8 -0.308676
5.81 -0.263696
5.82 -0.21748
5.83 -0.171315
5.84 -0.126645
5.85 -0.0849001
5.86 -0.0475384
5.87 -0.0163939
5.88 0.00802488
5.89 0.0233967
5.9 0.0302135
5.91 0.0273546
5.92 0.0149325
5.93 -0.0062537
5.94 -0.036506
5.95 -0.0736874
5.96 -0.117442
5.97 -0.165825
5.98 -0.217546
5.99 -0.271171
6 -0.325278
6.01 -0.378601
6.02 -0.430275
6.03 -0.47946
6.04 -0.525698
6.05 -0.568961
6.06 -0.608925
6.07 -0.64625
6.08 -0.680979
6.09 -0.713781
6.1 -0.745063
6.11 -0.775209
6.12 -0.804622
6.13 -0.83338
6.14 -0.861581
6.15 -0.889025
6.16 -0.915391
6.17 -0.940346
6.18 -0.963143
6.19 -0.983575
6.2 -1.00083
6.21 -1.01476
6.22 -1.02511
6.23 -1.03167
6.24 -1.03499
6.25 -1.03498
6.26 -1.0327
6.27 -1.02864
6.28 -1.02371
6.29 -1.01864
6.3 -1.01418
6.31 -1.01064
6.32 -1.00821
6.33 -1.00642
6.34 -1.00445
6.35 -1.00069
6.36 -0.993477
6.37 -0.979308
6.38 -0.956021
6.39 -0.919435
6.4 -0.865668
6.41 -0.792158
6.42 -0.692202
6.43 -0.566145
6.44 -0.40765
6.45 -0.217109
6.46 0.00684371
6.47 0.265844
6.48 0.554925
6.49 0.876013
6.5 1.2207
6.51 1.58569
6.52 1.96363
6.53 2.34697
6.54 2.72689
6.55 3.09549
6.56 3.44194
6.57 3.75877
6.58 4.03783
6.59 4.26878
6.6 4.45098
6.61 4.5707
6.62 4.63301
6.63 4.63154
6.64 4.56728
6.65 4.44536
6.66 4.26266
6.67 4.03226
6.68 3.75471
6.69 3.4415
6.7 3.10004
6.71 2.73865
6.72 2.36756
6.73 1.99501
6.74 1.62943
6.75 1.27865
6.76 0.949469
6.77 0.645536
6.78 0.374646
6.79 0.134932
6.8 -0.0680863
6.81 -0.237014
6.82 -0.372362
6.83 -0.474456
6.84 -0.549286
6.85 -0.596025
6.86 -0.622087
6.87 -0.629474
6.88 -0.622517
6.89 -0.605267
6.9 -0.580174
6.91 -0.551007
6.92 -0.519708
6.93 -0.488399
6.94 -0.458382
6.95 -0.430789
6.96 -0.405876
6.97 -0.384387
6.98 -0.365911
6.99 -0.350619
7 -0.338343
7.01 -0.328827
7.02 -0.3224
7.03 -0.318736
7.04 -0.318416
7.05 -0.32153
7.06 -0.328498
7.07 -0.34003
7.08 -0.356033
7.09 -0.377655
7.1 -0.404381
7.11 -0.436676
7.12 -0.474296
7.13 -0.51658
7.14 -0.56337
7.15 -0.613208
7.16 -0.665348
7.17 -0.718307
7.18 -0.770834
7.19 -0.821374
7.2 -0.86895
7.21 -0.911737
7.22 -0.949395
7.23 -0.98081
7.24 -1.0056
7.25 -1.02404
7.26 -1.03559
7.27 -1.04167
7.28 -1.0424
7.29 -1.03919
7.3 -1.03304
7.31 -1.02505
7.32 -1.01638
7.33 -1.00795
7.34 -1.00041
7.35 -0.994186
7.36 -0.989281
7.37 -0.985292
7.38 -0.981467
7.39 -0.976715
7.4 -0.96941
7.41 -0.957974
7.42 -0.940637
7.43 -0.914946
7.44 -0.880136
7.45 -0.832833
7.46 -0.773335
7.47 -0.699728
7.48 -0.611633
7.49 -0.509914
7.5 -0.393543
7.51 -0.265662
7.52 -0.126645
7.53 0.0202777
7.54 0.172601
7.55 0.327159
7.56 0.480682
7.57 0.629101
7.58 0.769645
7.59 0.898482
7.6 1.01244
7.61 1.10997
7.62 1.18643
7.63 1.24312
7.64 1.2764
7.65 1.28753
7.66 1.27648
7.67 1.24288
7.68 1.19036
7.69 1.11786
7.7 1.03027
7.71 0.928907
7.72 0.816978
7.73 0.697781
7.74 0.573851
7.75 0.44869
7.76 0.325135
7.77 0.2059
7.78 0.0933198
7.79 -0.00979938
7.8 -0.102818
7.81 -0.182424
7.82 -0.249308
7.83 -0.301807
7.84 -0.339752
7.85 -0.364079
7.86 -0.373579
7.87 -0.371069
7.88 -0.356227
7.89 -0.331486
7.9 -0.298382
7.91 -0.258599
7.92 -0.214754
7.93 -0.168639
7.94 -0.122772
7.95 -0.0792877
7.96 -0.0404119
7.97 -0.00759558
7.98 0.0164771
7.99 0.031706
8 0.0359203
8.01 0.0292785
8.02 0.0115163
8.03 -0.0177597
8.04 -0.0567271
8.05 -0.10583
8.06 -0.162382
8.07 -0.225386
8.08 -0.292811
8.09 -0.362659
8.1 -0.433032
8.11 -0.502098
8.12 -0.567959
8.13 -0.629364
8.14 -0.685257
8.15 -0.734496
8.16 -0.777489
8.17 -0.813259
8.18 -0.843153
8.19 -0.8674
8.2 -0.887057
8.21 -0.903357
8.22 -0.917105
8.23 -0.929596
8.24 -0.941488
8.25 -0.953321
8.26 -0.965169
8.27 -0.976594
8.28 -0.986832
8.29 -0.994096
8.3 -0.996857
8.31 -0.992494
8.32 -0.978168
8.33 -0.95187
8.34 -0.908678
8.35 -0.848209
8.36 -0.765644
8.37 -0.660401
8.38 -0.530999
8.39 -0.375268
8.4 -0.196272
8.41 0.0084576
8.42 0.233372
8.43 0.476934
8.44 0.734549
8.45 1.00094
8.46 1.27087
8.47 1.53807
8.48 1.79565
8.49 2.03761
8.5 2.25813
8.51 2.44953
8.52 2.61039
8.53 2.73103
8.54 2.81351
8.55 2.85298
8.56 2.84889
8.57 2.80425
8.58 2.7156
8.59 2.59162
8.6 2.43172
8.61 2.2433
8.62 2.03113
8.63 1.8002
8.64 1.55796
8.65 1.30924
8.66 1.06062
8.67 0.817252
8.68 0.584248
8.69 0.36464
8.7 0.163909
8.71 -0.0182692
8.72 -0.177996
8.73 -0.316174
8.74 -0.432835
8.75 -0.527641
8.76 -0.604304
8.77 -0.662036
8.78 -0.705565
8.79 -0.736215
8.8 -0.75684
8.81 -0.770311
8.82 -0.778368
8.83 -0.783763
8.84 -0.788022
8.85 -0.792757
8.86 -0.799003
8.87 -0.807693
8.88 -0.81894
8.89 -0.833293
8.9 -0.850215
8.91 -0.869574
8.92 -0.890839
8.93 -0.913391
8.94 -0.936723
8.95 -0.960176
8.96 -0.983222
8.97 -1.00542
8.98 -1.02642
8.99 -1.04587
9 -1.06379
9.01 -1.07983
9.02 -1.09422
9.03 -1.10686
9.04 -1.11782
9.05 -1.12722
9.06 -1.13489
9.07 -1.14103
9.08 -1.14533
9.09 -1.14775
9.1 -1.14805
9.11 -1.14575
9.12 -1.1408
9.13 -1.1323
9.14 -1.12025
9.15 -1.10397
9.16 -1.08303
9.17 -1.0574
9.18 -1.02614
9.19 -0.989858
9.2 -0.947897
9.21 -0.900777
9.22 -0.848749
9.23 -0.792025
9.24 -0.731697
9.25 -0.668077
9.26 -0.60254
9.27 -0.535988
9.28 -0.469707
9.29 -0.404799
9.3 -0.342896
9.31 -0.284774
9.32 -0.232123
9.33 -0.185692
9.34 -0.146358
9.35 -0.115383
9.36 -0.0923145
9.37 -0.078733
9.38 -0.0734392
9.39 -0.0767996
9.4 -0.0882263
9.41 -0.106552
9.42 -0.131629
9.43 -0.161467
9.44 -0.195396
9.45 -0.231774
9.46 -0.269382
9.47 -0.306866
9.48 -0.343161
9.49 -0.376909
9.5 -0.407569
9.51 -0.434288
9.52 -0.45663
9.53 -0.474707
9.54 -0.488003
9.55 -0.49744
9.56 -0.503017
9.57 -0.505647
9.58 -0.506008
9.59 -0.504858
9.6 -0.503114
9.61 -0.501574
9.62 -0.500951
9.63 -0.50193
9.64 -0.505066
9.65 -0.510569
9.66 -0.519037
9.67 -0.530162
9.68 -0.544258
9.69 -0.560996
9.7 -0.580194
9.71 -0.601716
9.72 -0.625035
9.73 -0.650087
9.74 -0.676323
9.75 -0.703501
9.76 -0.731224
9.77 -0.759096
9.78 -0.786595
9.79 -0.813218
9.8 -0.838103
9.81 -0.860403
9.82 -0.87905
9.83 -0.892241
9.84 -0.899063
9.85 -0.896324
9.86 -0.88302
9.87 -0.856064
9.88 -0.812728
9.89 -0.751704
9.9 -0.667641
9.91 -0.561441
9.92 -0.428196
9.93 -0.268001
9.94 -0.0798411
9.95 0.138453
9.96 0.383097
9.97 0.656772
9.98 0.953444
9.99 1.27153
10 1.60632
10.01 1.9521
10.02 2.30362
10.03 2.65387
10.04 2.99557
10.05 3.32184
10.06 3.62609
10.07 3.89931
10.08 4.13927
10.09 4.33453
10.1 4.48617
10.11 4.58789
10.12 4.63756
10.13 4.63788
10.14 4.58282
10.15 4.48201
10.16 4.33312
10.17 4.14399
10.18 3.91963
10.19 3.66465
10.2 3.38855
10.21 3.09567
10.22 2.79513
10.23 2.49286
10.24 2.19568
10.25 1.90831
10.26 1.63757
10.27 1.38481
10.28 1.1551
10.29 0.948768
10.3 0.766475
10.31 0.609517
10.32 0.474066
10.33 0.36152
10.34 0.26659
10.35 0.187796
10.36 0.121794
10.37 0.0649498
10.38 0.0150801
10.39 -0.0314369
10.4 -0.0766712
10.41 -0.122802
10.42 -0.171237
10.43 -0.223267
10.44 -0.278963
10.45 -0.338967
10.46 -0.402373
10.47 -0.468732
10.48 -0.536982
10.49 -0.605965
10.5 -0.67436
10.51 -0.741047
10.52 -0.804583
10.53 -0.864036
10.54 -0.918542
10.55 -0.966941
10.56 -1.00941
10.57 -1.04462
10.58 -1.07331
10.59 -1.09501
10.6 -1.10989
10.61 -1.11861
10.62 -1.12068
10.63 -1.11738
10.64 -1.10844
10.65 -1.09466
10.66 -1.0764
10.67 -1.05384
10.68 -1.02781
10.69 -0.998219
10.7 -0.965952
10.71 -0.931273
10.72 -0.894744
10.73 -0.857003
10.74 -0.81861
10.75 -0.780325
10.76 -0.742938
10.77 -0.707234
10.78 -0.673981
10.79 -0.644277
10.8 -0.618458
10.81 -0.597976
10.82 -0.58283
10.83 -0.5739
10.84 -0.5716
10.85 -0.575675
10.86 -0.587038
10.87 -0.604491
10.88 -0.628389
10.89 -0.657705
10.9 -0.691727
10.91 -0.729751
10.92 -0.77039
10.93 -0.812832
10.94 -0.855703
10.95 -0.897939
10.96 -0.938365
10.97 -0.976218
10.98 -1.01017
10.99 -1.04012
11 -1.0651
11.01 -1.08515
11.02 -1.10025
11.03 -1.11028
11.04 -1.11617
11.05 -1.11791
11.06 -1.11676
11.07 -1.11333
11.08 -1.10865
11.09 -1.10362
11.1 -1.09924
11.11 -1.09618
11.12 -1.09526
11.13 -1.09681
11.14 -1.101
11.15 -1.1079
11.16 -1.11684
11.17 -1.12733
11.18 -1.13811
11.19 -1.14788
11.2 -1.15483
11.21 -1.15747
11.22 -1.1528
11.23 -1.13977
11.24 -1.11511
11.25 -1.07732
11.26 -1.02462
11.27 -0.954095
11.28 -0.866519
11.29 -0.758199
11.3 -0.631294
11.31 -0.484754
11.32 -0.319448
11.33 -0.137955
11.34 0.0596352
11.35 0.268491
11.36 0.486691
11.37 0.709763
11.38 0.933917
11.39 1.15439
11.4 1.36754
11.41 1.56732
11.42 1.75108
11.43 1.91396
11.44 2.05213
11.45 2.16463
11.46 2.24521
11.47 2.29688
11.48 2.31535
11.49 2.30277
11.5 2.26005
11.51 2.18695
11.52 2.08901
11.53 1.96558
11.54 1.82321
11.55 1.66429
11.56 1.49316
11.57 1.31435
11.58 1.13135
11.59 0.948429
11.6 0.769142
11.61 0.596489
11.62 0.432818
11.63 0.281004
11.64 0.140996
11.65 0.0155674
11.66 -0.0968048
11.67 -0.195531
11.68 -0.281378
11.69 -0.356229
11.7 -0.420097
11.71 -0.476022
11.72 -0.524701
11.73 -0.568267
11.74 -0.60812
11.75 -0.645445
11.76 -0.681462
11.77 -0.716746
11.78 -0.751741
11.79 -0.786423
11.8 -0.820404
11.81 -0.853125
11.82 -0.883297
11.83 -0.910125
11.84 -0.931804
11.85 -0.947108
11.86 -0.954694
11.87 -0.952415
11.88 -0.940209
11.89 -0.915306
11.9 -0.878406
11.91 -0.828239
11.92 -0.764595
11.93 -0.688612
11.94 -0.599214
11.95 -0.49925
11.96 -0.388833
11.97 -0.270394
11.98 -0.145828
11.99 -0.0172172
12 0.112771
12.01 0.241561
12.02 0.366722
12.03 0.485611
12.04 0.595613
12.05 0.69539
12.06 0.78127
12.07 0.853687
12.08 0.909774
12.09 0.949673
12.1 0.973128
12.11 0.979038
12.12 0.969847
12.13 0.944173
12.14 0.905268
12.15 0.853791
12.16 0.791677
12.17 0.721459
12.18 0.644352
12.19 0.563336
12.2 0.479996
12.21 0.396452
12.22 0.314258
12.23 0.235099
12.24 0.159649
12.25 0.0893619
12.26 0.0240732
12.27 -0.0357797
12.28 -0.090363
12.29 -0.140437
12.3 -0.186077
12.31 -0.228662
12.32 -0.268691
12.33 -0.307218
12.34 -0.344983
12.35 -0.382668
12.36 -0.42071
12.37 -0.459425
12.38 -0.498701
