# xPDFsuite Configuration #
[PDF]
wavelength = 0.1432
dataformat = twotheta
inputfile = 1_1Pd_CeO2_cycle-00373.chi
backgroundfile = background-00000.chi
mode = xray
bgscale = 1.007
composition = CeO2
outputtype = gr
qmaxinst = 28.8974762299
qmin = 0.5
qmax = 27.9
rmax = 50.0
rmin = 0.0
rstep = 0.01
rpoly = 1.8657

[Misc]
inputdir = G:/SankarDec16/1Pd/Chi
savedir = D:/DATA/APS_CeO2/1Pd
backgroundfilefull = G:/SankarDec16/Background/background-00000.chi

#### start data
#S 1
#L r($\AA$)  G($\AA^{-2}$)
0 0
0.01 -0.00592838
0.02 -0.0114109
0.03 -0.0159884
0.04 -0.019315
0.05 -0.0211979
0.06 -0.0213271
0.07 -0.0199083
0.08 -0.0168409
0.09 -0.0125177
0.1 -0.00720977
0.11 -0.00133303
0.12 0.00465813
0.13 0.0102548
0.14 0.0150947
0.15 0.0187351
0.16 0.0209158
0.17 0.0215316
0.18 0.0203694
0.19 0.0177307
0.2 0.0136247
0.21 0.00850882
0.22 0.00272048
0.23 -0.00327361
0.24 -0.0090448
0.25 -0.0140446
0.26 -0.0180107
0.27 -0.0205378
0.28 -0.021463
0.29 -0.020774
0.3 -0.0183648
0.31 -0.0146189
0.32 -0.00965514
0.33 -0.00397503
0.34 0.00203353
0.35 0.00787394
0.36 0.0131633
0.37 0.0173386
0.38 0.0202501
0.39 0.0215486
0.4 0.0211765
0.41 0.0192154
0.42 0.0156715
0.43 0.0109931
0.44 0.00540359
0.45 -0.000574138
0.46 -0.00651964
0.47 -0.0119289
0.48 -0.0164828
0.49 -0.0196301
0.5 -0.0213405
0.51 -0.0213378
0.52 -0.0196727
0.53 -0.0165176
0.54 -0.0119913
0.55 -0.00658678
0.56 -0.000621908
0.57 0.00538279
0.58 0.0109938
0.59 0.0157226
0.6 0.0193292
0.61 0.0212998
0.62 0.0217258
0.63 0.020417
0.64 0.0175312
0.65 0.0133239
0.66 0.00802239
0.67 0.00214148
0.68 -0.0039203
0.69 -0.00966854
0.7 -0.0146766
0.71 -0.0184939
0.72 -0.0209711
0.73 -0.0216552
0.74 -0.0207557
0.75 -0.0181774
0.76 -0.0141779
0.77 -0.00908401
0.78 -0.00322062
0.79 0.00289932
0.8 0.00881625
0.81 0.0140848
0.82 0.018306
0.83 0.0210883
0.84 0.0223802
0.85 0.021811
0.86 0.019697
0.87 0.0160412
0.88 0.0111866
0.89 0.00551245
0.9 -0.000579528
0.91 -0.00660692
0.92 -0.0120806
0.93 -0.0166315
0.94 -0.0199173
0.95 -0.0216369
0.96 -0.0218431
0.97 -0.0202876
0.98 -0.0173764
0.99 -0.0132267
1 -0.00825492
1.01 -0.0028745
1.02 0.00244472
1.03 0.00729161
1.04 0.0111685
1.05 0.0138241
1.06 0.0150074
1.07 0.0145506
1.08 0.012641
1.09 0.00921238
1.1 0.00477758
1.11 -0.000378471
1.12 -0.00573266
1.13 -0.0108141
1.14 -0.0150163
1.15 -0.0180118
1.16 -0.0192157
1.17 -0.0185021
1.18 -0.0156762
1.19 -0.0106662
1.2 -0.00382893
1.21 0.00480062
1.22 0.0145184
1.23 0.0248954
1.24 0.0352488
1.25 0.0449862
1.26 0.0533171
1.27 0.0598739
1.28 0.0638877
1.29 0.065215
1.3 0.0635751
1.31 0.0588039
1.32 0.0513146
1.33 0.0409499
1.34 0.0285533
1.35 0.0144471
1.36 -0.000655318
1.37 -0.0161111
1.38 -0.0311993
1.39 -0.0453732
1.4 -0.0579056
1.41 -0.0684646
1.42 -0.0766648
1.43 -0.0821783
1.44 -0.0851961
1.45 -0.0853318
1.46 -0.0831714
1.47 -0.0787331
1.48 -0.0724285
1.49 -0.0646626
1.5 -0.0557102
1.51 -0.0460698
1.52 -0.0360059
1.53 -0.0258589
1.54 -0.0158504
1.55 -0.0061851
1.56 0.00305863
1.57 0.0117147
1.58 0.0198238
1.59 0.0273018
1.6 0.034136
1.61 0.0403147
1.62 0.0456942
1.63 0.0502878
1.64 0.0538522
1.65 0.0563215
1.66 0.0575034
1.67 0.0571567
1.68 0.0552907
1.69 0.0514953
1.7 0.0459846
1.71 0.0385849
1.72 0.0294346
1.73 0.0187556
1.74 0.00667493
1.75 -0.00630939
1.76 -0.0198909
1.77 -0.0335485
1.78 -0.0468386
1.79 -0.0592355
1.8 -0.0704523
1.81 -0.0798815
1.82 -0.0875402
1.83 -0.0931226
1.84 -0.0966818
1.85 -0.0984139
1.86 -0.0984066
1.87 -0.097221
1.88 -0.0951636
1.89 -0.0928201
1.9 -0.0906574
1.91 -0.0892079
1.92 -0.0887647
1.93 -0.0898517
1.94 -0.0924098
1.95 -0.0965995
1.96 -0.10222
1.97 -0.108939
1.98 -0.116364
1.99 -0.123871
2 -0.130773
2.01 -0.1364
2.02 -0.140053
2.03 -0.140923
2.04 -0.138775
2.05 -0.13256
2.06 -0.122576
2.07 -0.108317
2.08 -0.0899273
2.09 -0.0677464
2.1 -0.0417324
2.11 -0.0127917
2.12 0.0189343
2.13 0.0526311
2.14 0.0878404
2.15 0.12407
2.16 0.160842
2.17 0.197879
2.18 0.234934
2.19 0.271907
2.2 0.308784
2.21 0.345613
2.22 0.382475
2.23 0.419423
2.24 0.456465
2.25 0.493478
2.26 0.530222
2.27 0.566212
2.28 0.600979
2.29 0.63339
2.3 0.662835
2.31 0.687943
2.32 0.707566
2.33 0.720849
2.34 0.725815
2.35 0.722617
2.36 0.709332
2.37 0.686373
2.38 0.653391
2.39 0.610299
2.4 0.558729
2.41 0.498465
2.42 0.432227
2.43 0.361178
2.44 0.287605
2.45 0.213566
2.46 0.141477
2.47 0.0730397
2.48 0.0107352
2.49 -0.044363
2.5 -0.0909765
2.51 -0.127983
2.52 -0.156164
2.53 -0.174331
2.54 -0.184721
2.55 -0.187765
2.56 -0.185315
2.57 -0.179229
2.58 -0.171265
2.59 -0.163448
2.6 -0.157657
2.61 -0.155276
2.62 -0.157487
2.63 -0.165307
2.64 -0.178435
2.65 -0.197588
2.66 -0.221268
2.67 -0.248915
2.68 -0.279009
2.69 -0.310065
2.7 -0.340366
2.71 -0.368546
2.72 -0.392839
2.73 -0.412427
2.74 -0.426473
2.75 -0.434366
2.76 -0.43681
2.77 -0.433478
2.78 -0.426137
2.79 -0.415647
2.8 -0.403695
2.81 -0.391813
2.82 -0.381836
2.83 -0.374899
2.84 -0.372702
2.85 -0.375726
2.86 -0.384514
2.87 -0.39928
2.88 -0.418984
2.89 -0.443414
2.9 -0.470592
2.91 -0.499225
2.92 -0.5274
2.93 -0.553518
2.94 -0.57545
2.95 -0.592396
2.96 -0.602544
2.97 -0.605837
2.98 -0.602001
2.99 -0.59118
3 -0.574892
3.01 -0.553738
3.02 -0.530114
3.03 -0.505682
3.04 -0.482643
3.05 -0.462727
3.06 -0.448284
3.07 -0.439926
3.08 -0.439479
3.09 -0.446676
3.1 -0.46153
3.11 -0.483535
3.12 -0.510827
3.13 -0.542365
3.14 -0.575539
3.15 -0.608377
3.16 -0.638564
3.17 -0.664414
3.18 -0.683578
3.19 -0.695845
3.2 -0.699691
3.21 -0.695939
3.22 -0.68513
3.23 -0.668494
3.24 -0.648336
3.25 -0.626698
3.26 -0.606314
3.27 -0.589833
3.28 -0.579766
3.29 -0.577704
3.3 -0.586284
3.31 -0.604902
3.32 -0.634972
3.33 -0.674712
3.34 -0.72286
3.35 -0.777242
3.36 -0.834669
3.37 -0.891965
3.38 -0.945794
3.39 -0.992616
3.4 -1.02943
3.41 -1.05455
3.42 -1.06485
3.43 -1.0617
3.44 -1.0437
3.45 -1.01365
3.46 -0.973558
3.47 -0.926615
3.48 -0.876968
3.49 -0.828915
3.5 -0.786339
3.51 -0.75345
3.52 -0.733325
3.53 -0.727242
3.54 -0.737608
3.55 -0.761489
3.56 -0.798096
3.57 -0.842039
3.58 -0.888102
3.59 -0.928527
3.6 -0.956628
3.61 -0.960309
3.62 -0.934236
3.63 -0.867283
3.64 -0.75214
3.65 -0.585311
3.66 -0.355921
3.67 -0.0702198
3.68 0.278823
3.69 0.6824
3.7 1.13592
3.71 1.63182
3.72 2.15574
3.73 2.69736
3.74 3.23956
3.75 3.76708
3.76 4.26316
3.77 4.71519
3.78 5.10182
3.79 5.41981
3.8 5.64921
3.81 5.78986
3.82 5.83593
3.83 5.78219
3.84 5.641
3.85 5.40372
3.86 5.09242
3.87 4.71095
3.88 4.27471
3.89 3.79912
3.9 3.29662
3.91 2.78482
3.92 2.27754
3.93 1.78806
3.94 1.32754
3.95 0.90778
3.96 0.530992
3.97 0.209838
3.98 -0.0614396
3.99 -0.278456
4 -0.444849
4.01 -0.566691
4.02 -0.645098
4.03 -0.691896
4.04 -0.710232
4.05 -0.709889
4.06 -0.696922
4.07 -0.677664
4.08 -0.657524
4.09 -0.641124
4.1 -0.630859
4.11 -0.628953
4.12 -0.635814
4.13 -0.650577
4.14 -0.672595
4.15 -0.698998
4.16 -0.727801
4.17 -0.756081
4.18 -0.781403
4.19 -0.801028
4.2 -0.813789
4.21 -0.816864
4.22 -0.810744
4.23 -0.794278
4.24 -0.767894
4.25 -0.732645
4.26 -0.688629
4.27 -0.638148
4.28 -0.581727
4.29 -0.521217
4.3 -0.457664
4.31 -0.392049
4.32 -0.325282
4.33 -0.257759
4.34 -0.189868
4.35 -0.121661
4.36 -0.0531128
4.37 0.0158299
4.38 0.0852478
4.39 0.154986
4.4 0.224771
4.41 0.294022
4.42 0.361941
4.43 0.427215
4.44 0.488883
4.45 0.544533
4.46 0.593326
4.47 0.632964
4.48 0.661878
4.49 0.679285
4.5 0.682559
4.51 0.672891
4.52 0.648295
4.53 0.610285
4.54 0.559363
4.55 0.496372
4.56 0.424128
4.57 0.343463
4.58 0.257908
4.59 0.169466
4.6 0.0808895
4.61 -0.00565527
4.62 -0.0875021
4.63 -0.163595
4.64 -0.231757
4.65 -0.291744
4.66 -0.343069
4.67 -0.385459
4.68 -0.420346
4.69 -0.447521
4.7 -0.469274
4.71 -0.486479
4.72 -0.500792
4.73 -0.513636
4.74 -0.526284
4.75 -0.539745
4.76 -0.554915
4.77 -0.5721
4.78 -0.591424
4.79 -0.61275
4.8 -0.635427
4.81 -0.658884
4.82 -0.682172
4.83 -0.704395
4.84 -0.724629
4.85 -0.74227
4.86 -0.756326
4.87 -0.766911
4.88 -0.773429
4.89 -0.77635
4.9 -0.775965
4.91 -0.772776
4.92 -0.767758
4.93 -0.761581
4.94 -0.755303
4.95 -0.749766
4.96 -0.745792
4.97 -0.74388
4.98 -0.744781
4.99 -0.748344
5 -0.754936
5.01 -0.764118
5.02 -0.77559
5.03 -0.788902
5.04 -0.803333
5.05 -0.818357
5.06 -0.833283
5.07 -0.847558
5.08 -0.860688
5.09 -0.872398
5.1 -0.882228
5.11 -0.890273
5.12 -0.896195
5.13 -0.900086
5.14 -0.901818
5.15 -0.901081
5.16 -0.897857
5.17 -0.891175
5.18 -0.880835
5.19 -0.865644
5.2 -0.844518
5.21 -0.81663
5.22 -0.779642
5.23 -0.733483
5.24 -0.675608
5.25 -0.605841
5.26 -0.523269
5.27 -0.426876
5.28 -0.318247
5.29 -0.19617
5.3 -0.0638939
5.31 0.0774784
5.32 0.224907
5.33 0.375154
5.34 0.524338
5.35 0.668781
5.36 0.803449
5.37 0.924759
5.38 1.02875
5.39 1.11057
5.4 1.1698
5.41 1.20004
5.42 1.2039
5.43 1.17862
5.44 1.12527
5.45 1.04661
5.46 0.942347
5.47 0.818961
5.48 0.678022
5.49 0.525521
5.5 0.365702
5.51 0.203547
5.52 0.0435096
5.53 -0.109136
5.54 -0.251612
5.55 -0.379969
5.56 -0.491855
5.57 -0.586684
5.58 -0.661548
5.59 -0.719179
5.6 -0.758154
5.61 -0.781445
5.62 -0.79061
5.63 -0.787438
5.64 -0.775387
5.65 -0.755679
5.66 -0.731594
5.67 -0.704652
5.68 -0.676606
5.69 -0.648549
5.7 -0.621255
5.71 -0.594832
5.72 -0.569205
5.73 -0.54378
5.74 -0.517871
5.75 -0.490503
5.76 -0.461066
5.77 -0.428384
5.78 -0.392395
5.79 -0.352615
5.8 -0.309262
5.81 -0.262995
5.82 -0.214484
5.83 -0.165203
5.84 -0.116631
5.85 -0.0704812
5.86 -0.0284591
5.87 0.00726969
5.88 0.0359114
5.89 0.0547246
5.9 0.0640238
5.91 0.0623804
5.92 0.0497517
5.93 0.0269387
5.94 -0.00652059
5.95 -0.0481792
5.96 -0.0976476
5.97 -0.152608
5.98 -0.211476
5.99 -0.272439
6 -0.333716
6.01 -0.39359
6.02 -0.450947
6.03 -0.504598
6.04 -0.553875
6.05 -0.59871
6.06 -0.638561
6.07 -0.674371
6.08 -0.706153
6.09 -0.734925
6.1 -0.76135
6.11 -0.786138
6.12 -0.810065
6.13 -0.833578
6.14 -0.857066
6.15 -0.88064
6.16 -0.9042
6.17 -0.927482
6.18 -0.949946
6.19 -0.97118
6.2 -0.990416
6.21 -1.00724
6.22 -1.0212
6.23 -1.03183
6.24 -1.0394
6.25 -1.04357
6.26 -1.04514
6.27 -1.04443
6.28 -1.04219
6.29 -1.03914
6.3 -1.03594
6.31 -1.03306
6.32 -1.03076
6.33 -1.02877
6.34 -1.02646
6.35 -1.02242
6.36 -1.01514
6.37 -1.00133
6.38 -0.978857
6.39 -0.943588
6.4 -0.891572
6.41 -0.820094
6.42 -0.722233
6.43 -0.598048
6.44 -0.440814
6.45 -0.250581
6.46 -0.0256149
6.47 0.236183
6.48 0.529928
6.49 0.858103
6.5 1.21208
6.51 1.58873
6.52 1.98049
6.53 2.37944
6.54 2.77645
6.55 3.1629
6.56 3.52737
6.57 3.86156
6.58 4.15663
6.59 4.40124
6.6 4.59436
6.61 4.72106
6.62 4.7864
6.63 4.78334
6.64 4.71274
6.65 4.57998
6.66 4.38167
6.67 4.13192
6.68 3.83145
6.69 3.49284
6.7 3.12432
6.71 2.73527
6.72 2.33688
6.73 1.93864
6.74 1.54971
6.75 1.17893
6.76 0.833826
6.77 0.518276
6.78 0.240963
6.79 -0.000602602
6.8 -0.200459
6.81 -0.361963
6.82 -0.486088
6.83 -0.573738
6.84 -0.631984
6.85 -0.660651
6.86 -0.668262
6.87 -0.657648
6.88 -0.634015
6.89 -0.601977
6.9 -0.564856
6.91 -0.526414
6.92 -0.489158
6.93 -0.454974
6.94 -0.425043
6.95 -0.400299
6.96 -0.380289
6.97 -0.365473
6.98 -0.354591
6.99 -0.34727
7 -0.342674
7.01 -0.340063
7.02 -0.339137
7.03 -0.339427
7.04 -0.341094
7.05 -0.3443
7.06 -0.349507
7.07 -0.357544
7.08 -0.368778
7.09 -0.384591
7.1 -0.405053
7.11 -0.43105
7.12 -0.462838
7.13 -0.50011
7.14 -0.543213
7.15 -0.590759
7.16 -0.642338
7.17 -0.69638
7.18 -0.751578
7.19 -0.806265
7.2 -0.859061
7.21 -0.907935
7.22 -0.952045
7.23 -0.989917
7.24 -1.02074
7.25 -1.04451
7.26 -1.06023
7.27 -1.0693
7.28 -1.07155
7.29 -1.06849
7.3 -1.06115
7.31 -1.05076
7.32 -1.03882
7.33 -1.02645
7.34 -1.01469
7.35 -1.00428
7.36 -0.995555
7.37 -0.988344
7.38 -0.982208
7.39 -0.976056
7.4 -0.968425
7.41 -0.957605
7.42 -0.94171
7.43 -0.918095
7.44 -0.885678
7.45 -0.840783
7.46 -0.783373
7.47 -0.711192
7.48 -0.623551
7.49 -0.521155
7.5 -0.402645
7.51 -0.271298
7.52 -0.127345
7.53 0.0257347
7.54 0.185235
7.55 0.347693
7.56 0.509417
7.57 0.665903
7.58 0.813947
7.59 0.949244
7.6 1.06819
7.61 1.169
7.62 1.24653
7.63 1.30221
7.64 1.33208
7.65 1.33767
7.66 1.3191
7.67 1.2762
7.68 1.21315
7.69 1.12922
7.7 1.02992
7.71 0.917039
7.72 0.794349
7.73 0.665533
7.74 0.533744
7.75 0.402551
7.76 0.275256
7.77 0.154516
7.78 0.0426761
7.79 -0.0574672
7.8 -0.145722
7.81 -0.218842
7.82 -0.278129
7.83 -0.322256
7.84 -0.351551
7.85 -0.367371
7.86 -0.369001
7.87 -0.359517
7.88 -0.339012
7.89 -0.310036
7.9 -0.274243
7.91 -0.23342
7.92 -0.189938
7.93 -0.145639
7.94 -0.10262
7.95 -0.0628195
7.96 -0.028115
7.97 0.000367455
7.98 0.0202867
7.99 0.0317929
8 0.0330223
8.01 0.0242712
8.02 0.00538863
8.03 -0.0239158
8.04 -0.0619677
8.05 -0.109172
8.06 -0.163137
8.07 -0.223017
8.08 -0.287058
8.09 -0.353518
8.1 -0.420808
8.11 -0.487298
8.12 -0.551388
8.13 -0.611963
8.14 -0.668101
8.15 -0.718808
8.16 -0.764374
8.17 -0.803953
8.18 -0.838631
8.19 -0.868564
8.2 -0.894595
8.21 -0.917714
8.22 -0.938504
8.23 -0.957995
8.24 -0.976578
8.25 -0.994573
8.26 -1.01185
8.27 -1.02773
8.28 -1.0414
8.29 -1.0508
8.3 -1.05448
8.31 -1.0497
8.32 -1.03361
8.33 -1.00432
8.34 -0.956787
8.35 -0.890896
8.36 -0.801783
8.37 -0.689061
8.38 -0.551358
8.39 -0.386605
8.4 -0.198074
8.41 0.0166184
8.42 0.251707
8.43 0.50551
8.44 0.77324
8.45 1.04946
8.46 1.32869
8.47 1.60454
8.48 1.86982
8.49 2.11843
8.5 2.34434
8.51 2.53961
8.52 2.70285
8.53 2.82399
8.54 2.90524
8.55 2.94157
8.56 2.93245
8.57 2.88103
8.58 2.78374
8.59 2.64967
8.6 2.47825
8.61 2.27727
8.62 2.05176
8.63 1.80705
8.64 1.55098
8.65 1.28876
8.66 1.02733
8.67 0.772231
8.68 0.528928
8.69 0.300625
8.7 0.0932816
8.71 -0.0935498
8.72 -0.255625
8.73 -0.393991
8.74 -0.508724
8.75 -0.599513
8.76 -0.670486
8.77 -0.720891
8.78 -0.755988
8.79 -0.777371
8.8 -0.788315
8.81 -0.792068
8.82 -0.790797
8.83 -0.787536
8.84 -0.784214
8.85 -0.782633
8.86 -0.784006
8.87 -0.789486
8.88 -0.799039
8.89 -0.81342
8.9 -0.831763
8.91 -0.853871
8.92 -0.878962
8.93 -0.90611
8.94 -0.934576
8.95 -0.963339
8.96 -0.991588
8.97 -1.0186
8.98 -1.0438
8.99 -1.06659
9 -1.08694
9.01 -1.10427
9.02 -1.11895
9.03 -1.13084
9.04 -1.1401
9.05 -1.14708
9.06 -1.15167
9.07 -1.15436
9.08 -1.15503
9.09 -1.15383
9.1 -1.15072
9.11 -1.14538
9.12 -1.13784
9.13 -1.12734
9.14 -1.11383
9.15 -1.09664
9.16 -1.07526
9.17 -1.04955
9.18 -1.01844
9.19 -0.982392
9.2 -0.940595
9.21 -0.893433
9.22 -0.841052
9.23 -0.783561
9.24 -0.722065
9.25 -0.656826
9.26 -0.589342
9.27 -0.520596
9.28 -0.452038
9.29 -0.384939
9.3 -0.321173
9.31 -0.261662
9.32 -0.208359
9.33 -0.162131
9.34 -0.123975
9.35 -0.0952921
9.36 -0.0755136
9.37 -0.0663129
9.38 -0.0662194
9.39 -0.0754695
9.4 -0.0931967
9.41 -0.11794
9.42 -0.149194
9.43 -0.184683
9.44 -0.223337
9.45 -0.263272
9.46 -0.303043
9.47 -0.341015
9.48 -0.376225
9.49 -0.407058
9.5 -0.433301
9.51 -0.454169
9.52 -0.469519
9.53 -0.479835
9.54 -0.484941
9.55 -0.486213
9.56 -0.484084
9.57 -0.479855
9.58 -0.474541
9.59 -0.4693
9.6 -0.465068
9.61 -0.463033
9.62 -0.46367
9.63 -0.467706
9.64 -0.475492
9.65 -0.486898
9.66 -0.502315
9.67 -0.520931
9.68 -0.542722
9.69 -0.56694
9.7 -0.593067
9.71 -0.620596
9.72 -0.648889
9.73 -0.677557
9.74 -0.706175
9.75 -0.734458
9.76 -0.762164
9.77 -0.789161
9.78 -0.815122
9.79 -0.839932
9.8 -0.863024
9.81 -0.883869
9.82 -0.901641
9.83 -0.914795
9.84 -0.922423
9.85 -0.921482
9.86 -0.910747
9.87 -0.886988
9.88 -0.847152
9.89 -0.789572
9.9 -0.70839
9.91 -0.60414
9.92 -0.471322
9.93 -0.30968
9.94 -0.11786
9.95 0.106751
9.96 0.360207
9.97 0.645597
9.98 0.956378
9.99 1.29085
10 1.64381
10.01 2.00893
10.02 2.38033
10.03 2.75021
10.04 3.11046
10.05 3.45344
10.06 3.77187
10.07 4.05583
10.08 4.30297
10.09 4.50083
10.1 4.65084
10.11 4.74634
10.12 4.78535
10.13 4.77115
10.14 4.69771
10.15 4.5758
10.16 4.40349
10.17 4.18964
10.18 3.94005
10.19 3.66024
10.2 3.36042
10.21 3.04596
10.22 2.72634
10.23 2.40818
10.24 2.0987
10.25 1.80258
10.26 1.52723
10.27 1.27332
10.28 1.04615
10.29 0.845434
10.3 0.671425
10.31 0.525022
10.32 0.40163
10.33 0.30224
10.34 0.220842
10.35 0.15545
10.36 0.102168
10.37 0.057002
10.38 0.0171956
10.39 -0.0209289
10.4 -0.0598629
10.41 -0.101778
10.42 -0.148123
10.43 -0.200287
10.44 -0.257994
10.45 -0.321998
10.46 -0.390916
10.47 -0.46414
10.48 -0.540269
10.49 -0.617771
10.5 -0.695003
10.51 -0.770448
10.52 -0.842277
10.53 -0.909216
10.54 -0.970093
10.55 -1.02334
10.56 -1.06907
10.57 -1.10549
10.58 -1.13347
10.59 -1.15236
10.6 -1.16236
10.61 -1.16439
10.62 -1.15794
10.63 -1.14483
10.64 -1.12501
10.65 -1.0998
10.66 -1.07003
10.67 -1.0364
10.68 -1.00017
10.69 -0.961921
10.7 -0.922765
10.71 -0.883426
10.72 -0.844737
10.73 -0.807287
10.74 -0.771978
10.75 -0.73905
10.76 -0.709296
10.77 -0.682941
10.78 -0.660288
10.79 -0.641867
10.8 -0.627367
10.81 -0.617529
10.82 -0.611815
10.83 -0.610486
10.84 -0.613457
10.85 -0.620329
10.86 -0.631459
10.87 -0.64606
10.88 -0.664324
10.89 -0.685743
10.9 -0.710045
10.91 -0.737069
10.92 -0.766194
10.93 -0.797333
10.94 -0.829822
10.95 -0.863319
10.96 -0.897297
10.97 -0.931259
10.98 -0.964583
10.99 -0.996827
11 -1.0273
11.01 -1.05554
11.02 -1.08112
11.03 -1.10339
11.04 -1.12241
11.05 -1.13744
11.06 -1.14889
11.07 -1.15659
11.08 -1.16077
11.09 -1.16201
11.1 -1.16045
11.11 -1.15705
11.12 -1.15227
11.13 -1.14689
11.14 -1.14149
11.15 -1.13665
11.16 -1.1326
11.17 -1.12959
11.18 -1.1273
11.19 -1.12525
11.2 -1.12248
11.21 -1.1179
11.22 -1.10941
11.23 -1.09569
11.24 -1.07387
11.25 -1.04198
11.26 -0.997823
11.27 -0.937919
11.28 -0.86209
11.29 -0.76581
11.3 -0.650246
11.31 -0.513404
11.32 -0.355228
11.33 -0.17783
11.34 0.0197199
11.35 0.2323
11.36 0.45848
11.37 0.693283
11.38 0.932462
11.39 1.17069
11.4 1.4032
11.41 1.62307
11.42 1.82645
11.43 2.00738
11.44 2.16091
11.45 2.28544
11.46 2.37339
11.47 2.42796
11.48 2.44405
11.49 2.42417
11.5 2.36952
11.51 2.28015
11.52 2.16281
11.53 2.01735
11.54 1.85171
11.55 1.66926
11.56 1.4755
11.57 1.2758
11.58 1.07489
11.59 0.877267
11.6 0.687351
11.61 0.50813
11.62 0.341924
11.63 0.191621
11.64 0.0563113
11.65 -0.0613995
11.66 -0.16413
11.67 -0.251923
11.68 -0.326413
11.69 -0.390194
11.7 -0.444085
11.71 -0.49149
11.72 -0.533671
11.73 -0.572857
11.74 -0.610475
11.75 -0.647716
11.76 -0.685311
11.77 -0.723673
11.78 -0.762605
11.79 -0.801668
11.8 -0.839949
11.81 -0.876502
11.82 -0.909561
11.83 -0.938222
11.84 -0.960413
11.85 -0.974978
11.86 -0.980669
11.87 -0.975486
11.88 -0.959729
11.89 -0.930877
11.9 -0.890007
11.91 -0.83614
11.92 -0.769336
11.93 -0.690848
11.94 -0.599775
11.95 -0.498816
11.96 -0.388023
11.97 -0.269544
11.98 -0.144995
11.99 -0.0160746
12 0.114834
12.01 0.245609
12.02 0.373951
12.03 0.497451
12.04 0.613543
12.05 0.720699
12.06 0.815156
12.07 0.89682
12.08 0.962393
12.09 1.01139
12.1 1.04296
12.11 1.0552
12.12 1.05022
12.13 1.02573
12.14 0.984941
12.15 0.92813
12.16 0.857196
12.17 0.775092
12.18 0.683049
12.19 0.585056
12.2 0.483231
12.21 0.380718
12.22 0.279965
12.23 0.183776
12.24 0.0934942
12.25 0.0118126
12.26 -0.0611977
12.27 -0.124454
12.28 -0.177906
12.29 -0.222704
12.3 -0.258717
12.31 -0.288507
12.32 -0.31301
12.33 -0.334464
12.34 -0.354615
12.35 -0.375351
12.36 -0.398017
12.37 -0.424248
12.38 -0.454392
12.39 -0.488953
