# xPDFsuite Configuration #
[PDF]
wavelength = 0.1432
dataformat = twotheta
inputfile = 1_1Pd_CeO2_cycle-00413.chi
backgroundfile = background-00000.chi
mode = xray
bgscale = 1.007
composition = CeO2
outputtype = gr
qmaxinst = 28.8974762299
qmin = 0.5
qmax = 27.9
rmax = 50.0
rmin = 0.0
rstep = 0.01
rpoly = 1.8657

[Misc]
inputdir = G:/SankarDec16/1Pd/Chi
savedir = D:/DATA/APS_CeO2/1Pd
backgroundfilefull = G:/SankarDec16/Background/background-00000.chi

#### start data
#S 1
#L r($\AA$)  G($\AA^{-2}$)
0 0
0.01 -0.00514574
0.02 -0.00990201
0.03 -0.0138679
0.04 -0.0167418
0.05 -0.0183563
0.06 -0.0184425
0.07 -0.0171815
0.08 -0.0144886
0.09 -0.0107084
0.1 -0.00608038
0.11 -0.000969753
0.12 0.0042272
0.13 0.00906391
0.14 0.0132279
0.15 0.0163341
0.16 0.0181601
0.17 0.018619
0.18 0.0175315
0.19 0.0151658
0.2 0.011538
0.21 0.0070511
0.22 0.00200395
0.23 -0.00319278
0.24 -0.00816789
0.25 -0.0124406
0.26 -0.0157913
0.27 -0.0178708
0.28 -0.018547
0.29 -0.0178183
0.3 -0.0156043
0.31 -0.0122467
0.32 -0.0078617
0.33 -0.00289018
0.34 0.00232472
0.35 0.00734779
0.36 0.011852
0.37 0.0153472
0.38 0.0177176
0.39 0.0186683
0.4 0.0181643
0.41 0.0162896
0.42 0.0130671
0.43 0.00889486
0.44 0.00398314
0.45 -0.00121146
0.46 -0.00631933
0.47 -0.0109027
0.48 -0.0146959
0.49 -0.0172243
0.5 -0.0184825
0.51 -0.0182451
0.52 -0.0165762
0.53 -0.0136416
0.54 -0.00956667
0.55 -0.00478549
0.56 0.0004081
0.57 0.00556504
0.58 0.0103084
0.59 0.0142201
0.6 0.0171097
0.61 0.0185431
0.62 0.0186254
0.63 0.0172126
0.64 0.0144654
0.65 0.0106227
0.66 0.00590636
0.67 0.000764283
0.68 -0.00444127
0.69 -0.00929169
0.7 -0.0134224
0.71 -0.0164566
0.72 -0.0182892
0.73 -0.0185486
0.74 -0.0174456
0.75 -0.0149246
0.76 -0.0112342
0.77 -0.00667367
0.78 -0.00154866
0.79 0.00370315
0.8 0.00867212
0.81 0.012993
0.82 0.0163348
0.83 0.0183842
0.84 0.0191279
0.85 0.018281
0.86 0.0161477
0.87 0.0127668
0.88 0.00846146
0.89 0.00357399
0.9 -0.00152236
0.91 -0.00642901
0.92 -0.0107151
0.93 -0.0140962
0.94 -0.0163022
0.95 -0.0171128
0.96 -0.0166176
0.97 -0.0146576
0.98 -0.0116225
0.99 -0.00766793
1 -0.00319147
1.01 0.00142789
1.02 0.00573803
1.03 0.00940758
1.04 0.0119772
1.05 0.0132698
1.06 0.0130873
1.07 0.0113184
1.08 0.00818192
1.09 0.00366018
1.1 -0.00173864
1.11 -0.00771368
1.12 -0.0137548
1.13 -0.0194106
1.14 -0.0240859
1.15 -0.027485
1.16 -0.0290299
1.17 -0.0286077
1.18 -0.0260173
1.19 -0.0211639
1.2 -0.0143823
1.21 -0.00563528
1.22 0.004405
1.23 0.0153944
1.24 0.026712
1.25 0.0378072
1.26 0.0479851
1.27 0.0568412
1.28 0.0636704
1.29 0.0682505
1.3 0.0702521
1.31 0.0694144
1.32 0.0660032
1.33 0.0596996
1.34 0.0511683
1.35 0.0405193
1.36 0.0282668
1.37 0.014908
1.38 0.000900319
1.39 -0.0131959
1.4 -0.0268744
1.41 -0.0397125
1.42 -0.0513185
1.43 -0.0612902
1.44 -0.0695666
1.45 -0.0756474
1.46 -0.079754
1.47 -0.0816447
1.48 -0.081394
1.49 -0.0791346
1.5 -0.0747548
1.51 -0.0686396
1.52 -0.0607041
1.53 -0.05129
1.54 -0.0405398
1.55 -0.028651
1.56 -0.0159621
1.57 -0.0026634
1.58 0.010836
1.59 0.0242035
1.6 0.0370228
1.61 0.0489361
1.62 0.0593581
1.63 0.068081
1.64 0.0744431
1.65 0.078292
1.66 0.0792894
1.67 0.0771171
1.68 0.0720212
1.69 0.0635512
1.7 0.0523965
1.71 0.0386158
1.72 0.0227806
1.73 0.00549871
1.74 -0.0126284
1.75 -0.0308149
1.76 -0.048287
1.77 -0.0643769
1.78 -0.078446
1.79 -0.0898376
1.8 -0.098484
1.81 -0.103682
1.82 -0.105944
1.83 -0.105179
1.84 -0.101893
1.85 -0.0967003
1.86 -0.0901838
1.87 -0.0832502
1.88 -0.0767108
1.89 -0.0713522
1.9 -0.0678804
1.91 -0.0670092
1.92 -0.0688343
1.93 -0.0740296
1.94 -0.082032
1.95 -0.09281
1.96 -0.1057
1.97 -0.119928
1.98 -0.134597
1.99 -0.148682
2 -0.16096
2.01 -0.170504
2.02 -0.176327
2.03 -0.177381
2.04 -0.173592
2.05 -0.163687
2.06 -0.14846
2.07 -0.127546
2.08 -0.10154
2.09 -0.0712229
2.1 -0.0370358
2.11 -0.000336713
2.12 0.0382007
2.13 0.0774414
2.14 0.1166
2.15 0.154884
2.16 0.191914
2.17 0.227117
2.18 0.26068
2.19 0.292572
2.2 0.323167
2.21 0.352918
2.22 0.38231
2.23 0.411863
2.24 0.442054
2.25 0.473116
2.26 0.50514
2.27 0.537958
2.28 0.571078
2.29 0.603683
2.3 0.634829
2.31 0.663138
2.32 0.687162
2.33 0.705712
2.34 0.716506
2.35 0.719269
2.36 0.711702
2.37 0.693885
2.38 0.66517
2.39 0.625179
2.4 0.575525
2.41 0.515705
2.42 0.448675
2.43 0.37558
2.44 0.298924
2.45 0.221025
2.46 0.144527
2.47 0.0714837
2.48 0.00466935
2.49 -0.0545544
2.5 -0.104662
2.51 -0.144278
2.52 -0.174141
2.53 -0.19281
2.54 -0.202681
2.55 -0.204136
2.56 -0.199171
2.57 -0.189825
2.58 -0.177992
2.59 -0.165975
2.6 -0.155842
2.61 -0.149208
2.62 -0.147442
2.63 -0.151756
2.64 -0.161917
2.65 -0.178834
2.66 -0.200949
2.67 -0.227771
2.68 -0.257729
2.69 -0.289253
2.7 -0.320602
2.71 -0.350245
2.72 -0.376368
2.73 -0.398018
2.74 -0.414281
2.75 -0.424466
2.76 -0.429216
2.77 -0.428153
2.78 -0.423023
2.79 -0.41466
2.8 -0.404746
2.81 -0.394811
2.82 -0.386675
2.83 -0.381476
2.84 -0.380884
2.85 -0.385365
2.86 -0.395424
2.87 -0.411219
2.88 -0.431689
2.89 -0.45652
2.9 -0.483738
2.91 -0.511973
2.92 -0.539293
2.93 -0.564107
2.94 -0.584243
2.95 -0.598993
2.96 -0.606545
2.97 -0.606951
2.98 -0.600014
2.99 -0.585986
3 -0.566493
3.01 -0.542266
3.02 -0.515787
3.03 -0.488834
3.04 -0.463682
3.05 -0.442097
3.06 -0.426517
3.07 -0.417492
3.08 -0.416895
3.09 -0.424377
3.1 -0.439907
3.11 -0.462921
3.12 -0.491455
3.13 -0.52442
3.14 -0.559111
3.15 -0.593504
3.16 -0.625233
3.17 -0.652583
3.18 -0.673183
3.19 -0.68683
3.2 -0.692004
3.21 -0.689557
3.22 -0.68005
3.23 -0.664744
3.24 -0.645958
3.25 -0.625752
3.26 -0.606852
3.27 -0.591895
3.28 -0.583357
3.29 -0.582792
3.3 -0.592774
3.31 -0.612657
3.32 -0.643778
3.33 -0.684317
3.34 -0.732969
3.35 -0.787519
3.36 -0.844802
3.37 -0.901606
3.38 -0.954674
3.39 -1.00049
3.4 -1.03613
3.41 -1.05996
3.42 -1.06894
3.43 -1.0645
3.44 -1.04529
3.45 -1.01414
3.46 -0.973055
3.47 -0.92521
3.48 -0.874697
3.49 -0.825733
3.5 -0.782116
3.51 -0.747945
3.52 -0.726194
3.53 -0.718075
3.54 -0.725879
3.55 -0.746717
3.56 -0.779758
3.57 -0.819737
3.58 -0.861556
3.59 -0.897656
3.6 -0.921579
3.61 -0.921576
3.62 -0.89255
3.63 -0.823755
3.64 -0.708183
3.65 -0.542518
3.66 -0.316307
3.67 -0.0356638
3.68 0.306154
3.69 0.700596
3.7 1.14321
3.71 1.62669
3.72 2.13718
3.73 2.66478
3.74 3.19299
3.75 3.70718
3.76 4.19121
3.77 4.63296
3.78 5.01188
3.79 5.32481
3.8 5.55248
3.81 5.69464
3.82 5.74555
3.83 5.69995
3.84 5.56959
3.85 5.34581
3.86 5.04972
3.87 4.68471
3.88 4.26535
3.89 3.80641
3.9 3.3195
3.91 2.82177
3.92 2.32629
3.93 1.8461
3.94 1.39206
3.95 0.975762
3.96 0.599786
3.97 0.276592
3.98 0.00117842
3.99 -0.221814
4 -0.395414
4.01 -0.525128
4.02 -0.611517
4.03 -0.665914
4.04 -0.690961
4.05 -0.696181
4.06 -0.687417
4.07 -0.670867
4.08 -0.65215
4.09 -0.63588
4.1 -0.624918
4.11 -0.621759
4.12 -0.62725
4.13 -0.640889
4.14 -0.662467
4.15 -0.689298
4.16 -0.719716
4.17 -0.750777
4.18 -0.78002
4.19 -0.804557
4.2 -0.822855
4.21 -0.831747
4.22 -0.831226
4.23 -0.819642
4.24 -0.796915
4.25 -0.763763
4.26 -0.719705
4.27 -0.667116
4.28 -0.606166
4.29 -0.538999
4.3 -0.466861
4.31 -0.391104
4.32 -0.313294
4.33 -0.234422
4.34 -0.155632
4.35 -0.0777398
4.36 -0.00145071
4.37 0.0728171
4.38 0.144305
4.39 0.212987
4.4 0.278047
4.41 0.339309
4.42 0.396205
4.43 0.447858
4.44 0.494195
4.45 0.53346
4.46 0.56587
4.47 0.590054
4.48 0.605408
4.49 0.611811
4.5 0.607715
4.51 0.594295
4.52 0.570327
4.53 0.536984
4.54 0.494626
4.55 0.443758
4.56 0.386223
4.57 0.322329
4.58 0.254368
4.59 0.183424
4.6 0.111173
4.61 0.0389935
4.62 -0.0315873
4.63 -0.0996815
4.64 -0.163957
4.65 -0.223981
4.66 -0.279238
4.67 -0.329248
4.68 -0.374556
4.69 -0.414583
4.7 -0.450419
4.71 -0.482136
4.72 -0.510375
4.73 -0.535792
4.74 -0.558635
4.75 -0.579664
4.76 -0.599018
4.77 -0.617106
4.78 -0.634056
4.79 -0.649887
4.8 -0.664707
4.81 -0.678268
4.82 -0.690647
4.83 -0.701642
4.84 -0.711196
4.85 -0.719347
4.86 -0.725959
4.87 -0.731323
4.88 -0.735444
4.89 -0.73865
4.9 -0.741177
4.91 -0.743321
4.92 -0.745389
4.93 -0.74769
4.94 -0.750434
4.95 -0.753842
4.96 -0.758035
4.97 -0.763023
4.98 -0.768881
4.99 -0.775422
5 -0.782612
5.01 -0.790245
5.02 -0.798184
5.03 -0.806291
5.04 -0.814447
5.05 -0.822581
5.06 -0.830672
5.07 -0.838725
5.08 -0.84678
5.09 -0.854865
5.1 -0.86299
5.11 -0.871086
5.12 -0.878974
5.13 -0.886348
5.14 -0.892747
5.15 -0.897377
5.16 -0.899636
5.17 -0.897911
5.18 -0.891518
5.19 -0.878702
5.2 -0.858013
5.21 -0.828526
5.22 -0.787623
5.23 -0.735688
5.24 -0.670288
5.25 -0.591919
5.26 -0.500253
5.27 -0.395063
5.28 -0.278597
5.29 -0.150654
5.3 -0.0148746
5.31 0.126909
5.32 0.271325
5.33 0.415175
5.34 0.554271
5.35 0.685734
5.36 0.804733
5.37 0.908683
5.38 0.994453
5.39 1.05826
5.4 1.10063
5.41 1.11649
5.42 1.10902
5.43 1.07648
5.44 1.02044
5.45 0.943725
5.46 0.846624
5.47 0.73468
5.48 0.609483
5.49 0.475898
5.5 0.337323
5.51 0.197652
5.52 0.0601695
5.53 -0.0711395
5.54 -0.194398
5.55 -0.306749
5.56 -0.406592
5.57 -0.493597
5.58 -0.56565
5.59 -0.624793
5.6 -0.669866
5.61 -0.702929
5.62 -0.724917
5.63 -0.736801
5.64 -0.740947
5.65 -0.737663
5.66 -0.729272
5.67 -0.716427
5.68 -0.700176
5.69 -0.681289
5.7 -0.659903
5.71 -0.636512
5.72 -0.610825
5.73 -0.582852
5.74 -0.552337
5.75 -0.518877
5.76 -0.482614
5.77 -0.443
5.78 -0.400601
5.79 -0.355483
5.8 -0.308266
5.81 -0.259747
5.82 -0.210866
5.83 -0.162751
5.84 -0.116819
5.85 -0.0742767
5.86 -0.0364075
5.87 -0.00483878
5.88 0.0200947
5.89 0.0362515
5.9 0.0441761
5.91 0.0427989
5.92 0.032178
5.93 0.0129934
5.94 -0.0152276
5.95 -0.0505562
5.96 -0.0929087
5.97 -0.140555
5.98 -0.192412
5.99 -0.247275
6 -0.303698
6.01 -0.360609
6.02 -0.416893
6.03 -0.471628
6.04 -0.524064
6.05 -0.573843
6.06 -0.620247
6.07 -0.663568
6.08 -0.703376
6.09 -0.740042
6.1 -0.773684
6.11 -0.80439
6.12 -0.83268
6.13 -0.858395
6.14 -0.882066
6.15 -0.90365
6.16 -0.923272
6.17 -0.941078
6.18 -0.956864
6.19 -0.970909
6.2 -0.98301
6.21 -0.993381
6.22 -1.00211
6.23 -1.0093
6.24 -1.01535
6.25 -1.0204
6.26 -1.02493
6.27 -1.02922
6.28 -1.03358
6.29 -1.03818
6.3 -1.04306
6.31 -1.04796
6.32 -1.05236
6.33 -1.05536
6.34 -1.05577
6.35 -1.05157
6.36 -1.04136
6.37 -1.02134
6.38 -0.99003
6.39 -0.943503
6.4 -0.878531
6.41 -0.793219
6.42 -0.681595
6.43 -0.544645
6.44 -0.376804
6.45 -0.178902
6.46 0.0500268
6.47 0.311237
6.48 0.600013
6.49 0.918026
6.5 1.25756
6.51 1.61563
6.52 1.98552
6.53 2.36038
6.54 2.73212
6.55 3.09344
6.56 3.43427
6.57 3.74747
6.58 4.02526
6.59 4.25753
6.6 4.44334
6.61 4.56906
6.62 4.63898
6.63 4.64633
6.64 4.59133
6.65 4.47842
6.66 4.30361
6.67 4.07945
6.68 3.80567
6.69 3.49349
6.7 3.15005
6.71 2.78344
6.72 2.40435
6.73 2.02101
6.74 1.64275
6.75 1.27791
6.76 0.934179
6.77 0.615988
6.78 0.332124
6.79 0.0812759
6.8 -0.130123
6.81 -0.30438
6.82 -0.441702
6.83 -0.54215
6.84 -0.612231
6.85 -0.651006
6.86 -0.666865
6.87 -0.662297
6.88 -0.642512
6.89 -0.612366
6.9 -0.575239
6.91 -0.535502
6.92 -0.495946
6.93 -0.459011
6.94 -0.426291
6.95 -0.399162
6.96 -0.377419
6.97 -0.361883
6.98 -0.351267
6.99 -0.345283
7 -0.342968
7.01 -0.343354
7.02 -0.345935
7.03 -0.349885
7.04 -0.355054
7.05 -0.361302
7.06 -0.368837
7.07 -0.378222
7.08 -0.389814
7.09 -0.404779
7.1 -0.423387
7.11 -0.446561
7.12 -0.474767
7.13 -0.507946
7.14 -0.54668
7.15 -0.589867
7.16 -0.637356
7.17 -0.687777
7.18 -0.73998
7.19 -0.792443
7.2 -0.843735
7.21 -0.89191
7.22 -0.935935
7.23 -0.974256
7.24 -1.00589
7.25 -1.03063
7.26 -1.04735
7.27 -1.05729
7.28 -1.06016
7.29 -1.05742
7.3 -1.05011
7.31 -1.03949
7.32 -1.02716
7.33 -1.01435
7.34 -1.00228
7.35 -0.991839
7.36 -0.983518
7.37 -0.977217
7.38 -0.972651
7.39 -0.968653
7.4 -0.963798
7.41 -0.956226
7.42 -0.943913
7.43 -0.924015
7.44 -0.895236
7.45 -0.853627
7.46 -0.798979
7.47 -0.728814
7.48 -0.642302
7.49 -0.540134
7.5 -0.42084
7.51 -0.287908
7.52 -0.141631
7.53 0.014226
7.54 0.176707
7.55 0.342028
7.56 0.506232
7.57 0.664438
7.58 0.81331
7.59 0.948314
7.6 1.06578
7.61 1.16401
7.62 1.23788
7.63 1.28918
7.64 1.3142
7.65 1.31491
7.66 1.29182
7.67 1.2453
7.68 1.17979
7.69 1.09514
7.7 0.996915
7.71 0.887183
7.72 0.769697
7.73 0.647906
7.74 0.52488
7.75 0.403562
7.76 0.286855
7.77 0.176738
7.78 0.0749558
7.79 -0.0164436
7.8 -0.0976654
7.81 -0.166313
7.82 -0.223729
7.83 -0.269003
7.84 -0.302479
7.85 -0.325207
7.86 -0.336451
7.87 -0.338444
7.88 -0.330859
7.89 -0.315374
7.9 -0.292908
7.91 -0.264356
7.92 -0.231532
7.93 -0.195295
7.94 -0.157589
7.95 -0.119837
7.96 -0.0838283
7.97 -0.0509757
7.98 -0.0235782
7.99 -0.00238565
8 0.0103384
8.01 0.0139542
8.02 0.00753992
8.03 -0.0101238
8.04 -0.0379838
8.05 -0.0774428
8.06 -0.126307
8.07 -0.184253
8.08 -0.249619
8.09 -0.320369
8.1 -0.394918
8.11 -0.470722
8.12 -0.545723
8.13 -0.617839
8.14 -0.685333
8.15 -0.746224
8.16 -0.800188
8.17 -0.845301
8.18 -0.882492
8.19 -0.911369
8.2 -0.932701
8.21 -0.94782
8.22 -0.957311
8.23 -0.96321
8.24 -0.96641
8.25 -0.968286
8.26 -0.969599
8.27 -0.970752
8.28 -0.971641
8.29 -0.971399
8.3 -0.968815
8.31 -0.961811
8.32 -0.947736
8.33 -0.924397
8.34 -0.88697
8.35 -0.83429
8.36 -0.761193
8.37 -0.666238
8.38 -0.547222
8.39 -0.401093
8.4 -0.230314
8.41 -0.0314451
8.42 0.190178
8.43 0.433548
8.44 0.694196
8.45 0.966591
8.46 1.24556
8.47 1.52398
8.48 1.79457
8.49 2.05043
8.5 2.28497
8.51 2.48959
8.52 2.66226
8.53 2.79227
8.54 2.88144
8.55 2.92435
8.56 2.92026
8.57 2.8724
8.58 2.77712
8.59 2.64393
8.6 2.47249
8.61 2.27105
8.62 2.04503
8.63 1.80021
8.64 1.54469
8.65 1.28413
8.66 1.02543
8.67 0.774275
8.68 0.536004
8.69 0.313558
8.7 0.112632
8.71 -0.0676862
8.72 -0.223606
8.73 -0.356632
8.74 -0.467245
8.75 -0.555616
8.76 -0.625932
8.77 -0.677886
8.78 -0.716459
8.79 -0.743252
8.8 -0.761226
8.81 -0.77317
8.82 -0.780842
8.83 -0.786639
8.84 -0.791906
8.85 -0.797891
8.86 -0.805332
8.87 -0.814832
8.88 -0.826326
8.89 -0.840075
8.9 -0.855568
8.91 -0.872621
8.92 -0.890822
8.93 -0.909763
8.94 -0.92916
8.95 -0.948687
8.96 -0.968152
8.97 -0.987418
8.98 -1.00641
8.99 -1.02508
9 -1.04344
9.01 -1.06141
9.02 -1.07897
9.03 -1.09598
9.04 -1.11223
9.05 -1.12753
9.06 -1.14135
9.07 -1.15348
9.08 -1.1632
9.09 -1.17012
9.1 -1.17371
9.11 -1.17314
9.12 -1.16841
9.13 -1.15832
9.14 -1.14319
9.15 -1.12237
9.16 -1.09571
9.17 -1.06356
9.18 -1.02528
9.19 -0.98194
9.2 -0.933278
9.21 -0.880171
9.22 -0.823163
9.23 -0.762805
9.24 -0.700187
9.25 -0.635919
9.26 -0.571147
9.27 -0.50678
9.28 -0.443903
9.29 -0.383335
9.3 -0.326526
9.31 -0.273872
9.32 -0.226821
9.33 -0.185837
9.34 -0.151588
9.35 -0.125116
9.36 -0.105923
9.37 -0.0954178
9.38 -0.0924942
9.39 -0.0975039
9.4 -0.109942
9.41 -0.128768
9.42 -0.153883
9.43 -0.183455
9.44 -0.216859
9.45 -0.252528
9.46 -0.289264
9.47 -0.325692
9.48 -0.360734
9.49 -0.392926
9.5 -0.421691
9.51 -0.446078
9.52 -0.465581
9.53 -0.480308
9.54 -0.48967
9.55 -0.494713
9.56 -0.495469
9.57 -0.493033
9.58 -0.488257
9.59 -0.482148
9.6 -0.475831
9.61 -0.470458
9.62 -0.466899
9.63 -0.466116
9.64 -0.468854
9.65 -0.47534
9.66 -0.486406
9.67 -0.501485
9.68 -0.520933
9.69 -0.54412
9.7 -0.570614
9.71 -0.599974
9.72 -0.631286
9.73 -0.664097
9.74 -0.697525
9.75 -0.730969
9.76 -0.763735
9.77 -0.795317
9.78 -0.82487
9.79 -0.852084
9.8 -0.875975
9.81 -0.895946
9.82 -0.911123
9.83 -0.919931
9.84 -0.921834
9.85 -0.913903
9.86 -0.895479
9.87 -0.863742
9.88 -0.816205
9.89 -0.751666
9.9 -0.664962
9.91 -0.556877
9.92 -0.422523
9.93 -0.261795
9.94 -0.0735027
9.95 0.144753
9.96 0.389427
9.97 0.663466
9.98 0.960998
9.99 1.28063
10 1.61773
10.01 1.96656
10.02 2.32191
10.03 2.67652
10.04 3.02297
10.05 3.35408
10.06 3.663
10.07 3.94036
10.08 4.18372
10.09 4.38123
10.1 4.53391
10.11 4.63522
10.12 4.68298
10.13 4.68001
10.14 4.62024
10.15 4.51365
10.16 4.35808
10.17 4.16174
10.18 3.92996
10.19 3.66773
10.2 3.38482
10.21 3.08598
10.22 2.78043
10.23 2.47434
10.24 2.17459
10.25 1.88582
10.26 1.61489
10.27 1.36283
10.28 1.13459
10.29 0.930172
10.3 0.749984
10.31 0.595035
10.32 0.461287
10.33 0.349875
10.34 0.255449
10.35 0.176428
10.36 0.10949
10.37 0.0511246
10.38 -0.000756755
10.39 -0.0495121
10.4 -0.0969966
10.41 -0.145127
10.42 -0.195091
10.43 -0.247911
10.44 -0.303596
10.45 -0.362552
10.46 -0.423981
10.47 -0.487419
10.48 -0.551949
10.49 -0.616638
10.5 -0.680367
10.51 -0.742335
10.52 -0.801394
10.53 -0.856887
10.54 -0.908187
10.55 -0.954399
10.56 -0.995712
10.57 -1.03101
10.58 -1.06084
10.59 -1.08472
10.6 -1.10259
10.61 -1.11485
10.62 -1.12076
10.63 -1.12126
10.64 -1.11577
10.65 -1.10483
10.66 -1.08861
10.67 -1.06703
10.68 -1.041
10.69 -1.01027
10.7 -0.975969
10.71 -0.938458
10.72 -0.898564
10.73 -0.857215
10.74 -0.815287
10.75 -0.773822
10.76 -0.733938
10.77 -0.696615
10.78 -0.66277
10.79 -0.633653
10.8 -0.609457
10.81 -0.591681
10.82 -0.579996
10.83 -0.575082
10.84 -0.577009
10.85 -0.585199
10.86 -0.600151
10.87 -0.620437
10.88 -0.64604
10.89 -0.675804
10.9 -0.708919
10.91 -0.744589
10.92 -0.781682
10.93 -0.819419
10.94 -0.856862
10.95 -0.893247
10.96 -0.927837
10.97 -0.960243
10.98 -0.989653
10.99 -1.01619
11 -1.03929
11.01 -1.05912
11.02 -1.07573
11.03 -1.08905
11.04 -1.09968
11.05 -1.10753
11.06 -1.11334
11.07 -1.11738
11.08 -1.12013
11.09 -1.1221
11.1 -1.12368
11.11 -1.12532
11.12 -1.12737
11.13 -1.13006
11.14 -1.13348
11.15 -1.13763
11.16 -1.14221
11.17 -1.1468
11.18 -1.1507
11.19 -1.15297
11.2 -1.15232
11.21 -1.14769
11.22 -1.13666
11.23 -1.11842
11.24 -1.09013
11.25 -1.05039
11.26 -0.997486
11.27 -0.928542
11.28 -0.84398
11.29 -0.740013
11.3 -0.618266
11.31 -0.477334
11.32 -0.317596
11.33 -0.141234
11.34 0.0521854
11.35 0.25802
11.36 0.474735
11.37 0.697904
11.38 0.92375
11.39 1.1475
11.4 1.36515
11.41 1.5705
11.42 1.7604
11.43 1.92962
11.44 2.07384
11.45 2.19176
11.46 2.27661
11.47 2.33128
11.48 2.35111
11.49 2.33824
11.5 2.2936
11.51 2.21695
11.52 2.11423
11.53 1.9849
11.54 1.83601
11.55 1.67027
11.56 1.49245
11.57 1.30739
11.58 1.11903
11.59 0.931723
11.6 0.749337
11.61 0.574868
11.62 0.410645
11.63 0.259516
11.64 0.121131
11.65 -0.00184895
11.66 -0.111318
11.67 -0.206932
11.68 -0.289755
11.69 -0.361886
11.7 -0.423609
11.71 -0.478012
11.72 -0.525939
11.73 -0.569472
11.74 -0.609946
11.75 -0.648455
11.76 -0.686005
11.77 -0.723018
11.78 -0.759719
11.79 -0.795909
11.8 -0.831038
11.81 -0.864476
11.82 -0.894809
11.83 -0.921325
11.84 -0.942222
11.85 -0.956415
11.86 -0.962691
11.87 -0.959076
11.88 -0.945659
11.89 -0.919855
11.9 -0.882444
11.91 -0.832246
11.92 -0.769061
11.93 -0.693945
11.94 -0.605745
11.95 -0.507096
11.96 -0.397902
11.97 -0.280341
11.98 -0.15608
11.99 -0.0268977
12 0.104611
12.01 0.236164
12.02 0.365225
12.03 0.48918
12.04 0.605259
12.05 0.711838
12.06 0.804972
12.07 0.884649
12.08 0.947549
12.09 0.993357
12.1 1.02141
12.11 1.03006
12.12 1.02168
12.13 0.994336
12.14 0.951499
12.15 0.893736
12.16 0.82319
12.17 0.742851
12.18 0.654218
12.19 0.56101
12.2 0.465369
12.21 0.370114
12.22 0.27739
12.23 0.189632
12.24 0.10775
12.25 0.033945
12.26 -0.0320777
12.27 -0.0896598
12.28 -0.139096
12.29 -0.181619
12.3 -0.217475
12.31 -0.248914
12.32 -0.276954
12.33 -0.303456
12.34 -0.329828
12.35 -0.35756
12.36 -0.387468
12.37 -0.420666
12.38 -0.457045
