# xPDFsuite Configuration #
[PDF]
wavelength = 0.1432
dataformat = twotheta
inputfile = 1_1Pd_CeO2_cycle-00445.chi
backgroundfile = background-00000.chi
mode = xray
bgscale = 1.007
composition = CeO2
outputtype = gr
qmaxinst = 28.8974762299
qmin = 0.5
qmax = 27.9
rmax = 50.0
rmin = 0.0
rstep = 0.01
rpoly = 1.8657

[Misc]
inputdir = G:/SankarDec16/1Pd/Chi
savedir = D:/DATA/APS_CeO2/1Pd
backgroundfilefull = G:/SankarDec16/Background/background-00000.chi

#### start data
#S 1
#L r($\AA$)  G($\AA^{-2}$)
0 0
0.01 -0.00651911
0.02 -0.0125494
0.03 -0.0175874
0.04 -0.0212535
0.05 -0.0233359
0.06 -0.0234937
0.07 -0.0219514
0.08 -0.0185972
0.09 -0.0138605
0.1 -0.00803735
0.11 -0.00158235
0.12 0.00500598
0.13 0.011171
0.14 0.0165134
0.15 0.020547
0.16 0.0229837
0.17 0.0237057
0.18 0.0224757
0.19 0.0196211
0.2 0.0151476
0.21 0.00955454
0.22 0.00320921
0.23 -0.00337877
0.24 -0.00973795
0.25 -0.0152685
0.26 -0.0196779
0.27 -0.0225194
0.28 -0.023609
0.29 -0.0229283
0.3 -0.0203544
0.31 -0.0163033
0.32 -0.0108985
0.33 -0.00468726
0.34 0.00190813
0.35 0.00834497
0.36 0.0142
0.37 0.0188566
0.38 0.0221422
0.39 0.0236694
0.4 0.0233667
0.41 0.0213163
0.42 0.0175155
0.43 0.0124509
0.44 0.0063584
0.45 -0.00019026
0.46 -0.00673676
0.47 -0.0127289
0.48 -0.0178106
0.49 -0.021376
0.5 -0.0233802
0.51 -0.0235129
0.52 -0.0218186
0.53 -0.018477
0.54 -0.0136063
0.55 -0.00774264
0.56 -0.00122408
0.57 0.00537812
0.58 0.01159
0.59 0.0168739
0.6 0.0209574
0.61 0.0232723
0.62 0.0239041
0.63 0.0226334
0.64 0.0196198
0.65 0.0151329
0.66 0.00940725
0.67 0.00300487
0.68 -0.00364848
0.69 -0.0100072
0.7 -0.0156028
0.71 -0.019936
0.72 -0.0228305
0.73 -0.0237809
0.74 -0.0229998
0.75 -0.0203685
0.76 -0.0161545
0.77 -0.0107048
0.78 -0.00435966
0.79 0.00231891
0.8 0.00883819
0.81 0.0147034
0.82 0.0194745
0.83 0.0227149
0.84 0.0243532
0.85 0.023973
0.86 0.0219036
0.87 0.0181345
0.88 0.0130281
0.89 0.00699166
0.9 0.000453952
0.91 -0.00605363
0.92 -0.0119996
0.93 -0.0169703
0.94 -0.0205837
0.95 -0.0224992
0.96 -0.0227624
0.97 -0.0210891
0.98 -0.0179159
0.99 -0.0133638
1 -0.00788814
1.01 -0.00194667
1.02 0.00393606
1.03 0.00929312
1.04 0.0135545
1.05 0.0164208
1.06 0.0175874
1.07 0.0168346
1.08 0.0143547
1.09 0.0100246
1.1 0.0044185
1.11 -0.00217501
1.12 -0.00917054
1.13 -0.0160276
1.14 -0.0220608
1.15 -0.026849
1.16 -0.0296972
1.17 -0.0303913
1.18 -0.0286406
1.19 -0.024268
1.2 -0.0176114
1.21 -0.0085674
1.22 0.00209912
1.23 0.014017
1.24 0.0264628
1.25 0.0387808
1.26 0.0501524
1.27 0.0600648
1.28 0.0676762
1.29 0.0726935
1.3 0.0747139
1.31 0.073422
1.32 0.0691305
1.33 0.0614884
1.34 0.0513
1.35 0.0387439
1.36 0.0244761
1.37 0.00912483
1.38 -0.00668749
1.39 -0.0222973
1.4 -0.0370328
1.41 -0.0504191
1.42 -0.0619971
1.43 -0.0713241
1.44 -0.0784215
1.45 -0.0827692
1.46 -0.0847695
1.47 -0.08427
1.48 -0.0815116
1.49 -0.0767745
1.5 -0.0701239
1.51 -0.0620481
1.52 -0.0526253
1.53 -0.0422365
1.54 -0.0310767
1.55 -0.0193621
1.56 -0.00733547
1.57 0.00482025
1.58 0.0168766
1.59 0.0286003
1.6 0.0397317
1.61 0.0500403
1.62 0.0590897
1.63 0.0667326
1.64 0.0724131
1.65 0.0759637
1.66 0.0770348
1.67 0.0752502
1.68 0.0707338
1.69 0.0629188
1.7 0.0523384
1.71 0.0388957
1.72 0.0230206
1.73 0.00523285
1.74 -0.0140001
1.75 -0.033838
1.76 -0.0535475
1.77 -0.0723134
1.78 -0.0893685
1.79 -0.103849
1.8 -0.115466
1.81 -0.123201
1.82 -0.12737
1.83 -0.127581
1.84 -0.124145
1.85 -0.117579
1.86 -0.108246
1.87 -0.0972399
1.88 -0.085301
1.89 -0.0735271
1.9 -0.0628523
1.91 -0.0543393
1.92 -0.0484806
1.93 -0.0464307
1.94 -0.0479844
1.95 -0.0535832
1.96 -0.0629025
1.97 -0.075352
1.98 -0.0904203
1.99 -0.106853
2 -0.123621
2.01 -0.139399
2.02 -0.152951
2.03 -0.162825
2.04 -0.168397
2.05 -0.167869
2.06 -0.161484
2.07 -0.1483
2.08 -0.128432
2.09 -0.102371
2.1 -0.0700459
2.11 -0.0329976
2.12 0.00838638
2.13 0.0525734
2.14 0.0985374
2.15 0.145073
2.16 0.191172
2.17 0.23571
2.18 0.278209
2.19 0.317989
2.2 0.354847
2.21 0.38887
2.22 0.419927
2.23 0.448689
2.24 0.475262
2.25 0.500274
2.26 0.52404
2.27 0.546807
2.28 0.568769
2.29 0.589672
2.3 0.609342
2.31 0.627104
2.32 0.642186
2.33 0.653847
2.34 0.660529
2.35 0.661867
2.36 0.656052
2.37 0.642809
2.38 0.621337
2.39 0.590914
2.4 0.552437
2.41 0.504953
2.42 0.450558
2.43 0.389727
2.44 0.324243
2.45 0.255911
2.46 0.186632
2.47 0.118424
2.48 0.0535276
2.49 -0.00646707
2.5 -0.0599679
2.51 -0.105377
2.52 -0.142808
2.53 -0.17052
2.54 -0.190106
2.55 -0.201412
2.56 -0.205786
2.57 -0.204796
2.58 -0.199716
2.59 -0.192743
2.6 -0.185506
2.61 -0.179755
2.62 -0.176894
2.63 -0.178295
2.64 -0.184199
2.65 -0.195747
2.66 -0.211988
2.67 -0.232831
2.68 -0.257181
2.69 -0.283798
2.7 -0.31136
2.71 -0.338375
2.72 -0.363278
2.73 -0.38496
2.74 -0.402409
2.75 -0.414726
2.76 -0.422192
2.77 -0.424142
2.78 -0.42193
2.79 -0.41606
2.8 -0.40792
2.81 -0.398881
2.82 -0.390527
2.83 -0.384124
2.84 -0.381298
2.85 -0.38279
2.86 -0.389335
2.87 -0.401424
2.88 -0.418332
2.89 -0.440176
2.9 -0.465222
2.91 -0.492443
2.92 -0.520082
2.93 -0.546574
2.94 -0.569882
2.95 -0.58898
2.96 -0.60197
2.97 -0.608477
2.98 -0.607953
2.99 -0.600191
3 -0.586446
3.01 -0.566898
3.02 -0.543844
3.03 -0.51869
3.04 -0.493593
3.05 -0.470367
3.06 -0.451371
3.07 -0.437591
3.08 -0.431063
3.09 -0.431961
3.1 -0.440679
3.11 -0.457176
3.12 -0.479879
3.13 -0.508296
3.14 -0.539864
3.15 -0.572912
3.16 -0.605135
3.17 -0.634703
3.18 -0.65924
3.19 -0.678039
3.2 -0.689323
3.21 -0.693371
3.22 -0.690272
3.23 -0.680715
3.24 -0.666662
3.25 -0.649545
3.26 -0.632042
3.27 -0.616476
3.28 -0.605357
3.29 -0.600448
3.3 -0.604434
3.31 -0.61726
3.32 -0.640633
3.33 -0.673366
3.34 -0.714685
3.35 -0.762999
3.36 -0.815462
3.37 -0.869534
3.38 -0.921899
3.39 -0.969313
3.4 -1.00872
3.41 -1.03817
3.42 -1.05441
3.43 -1.05815
3.44 -1.04758
3.45 -1.02479
3.46 -0.991209
3.47 -0.949286
3.48 -0.902824
3.49 -0.855287
3.5 -0.810631
3.51 -0.772684
3.52 -0.744633
3.53 -0.728092
3.54 -0.725653
3.55 -0.735237
3.56 -0.75661
3.57 -0.785315
3.58 -0.816954
3.59 -0.84478
3.6 -0.862666
3.61 -0.85976
3.62 -0.830795
3.63 -0.765388
3.64 -0.65635
3.65 -0.499968
3.66 -0.285592
3.67 -0.0184508
3.68 0.308688
3.69 0.688133
3.7 1.11612
3.71 1.58612
3.72 2.08473
3.73 2.60285
3.74 3.12401
3.75 3.63393
3.76 4.11646
3.77 4.55919
3.78 4.94156
3.79 5.25971
3.8 5.4941
3.81 5.64383
3.82 5.70271
3.83 5.66498
3.84 5.54205
3.85 5.32482
3.86 5.03438
3.87 4.67395
3.88 4.2582
3.89 3.80207
3.9 3.31734
3.91 2.82151
3.92 2.32792
3.93 1.84989
3.94 1.39852
3.95 0.985563
3.96 0.613597
3.97 0.295142
3.98 0.024939
3.99 -0.192569
4 -0.360767
4.01 -0.485494
4.02 -0.567804
4.03 -0.619261
4.04 -0.642995
4.05 -0.648631
4.06 -0.642162
4.07 -0.629857
4.08 -0.617003
4.09 -0.608169
4.1 -0.605592
4.11 -0.611368
4.12 -0.625728
4.13 -0.647647
4.14 -0.676213
4.15 -0.708447
4.16 -0.742065
4.17 -0.774056
4.18 -0.801838
4.19 -0.822523
4.2 -0.835067
4.21 -0.836473
4.22 -0.827543
4.23 -0.807193
4.24 -0.776118
4.25 -0.735661
4.26 -0.68621
4.27 -0.630404
4.28 -0.569114
4.29 -0.504461
4.3 -0.437742
4.31 -0.370199
4.32 -0.302729
4.33 -0.235991
4.34 -0.170129
4.35 -0.105203
4.36 -0.0409685
4.37 0.02289
4.38 0.0866771
4.39 0.15059
4.4 0.214645
4.41 0.278544
4.42 0.341725
4.43 0.403125
4.44 0.46181
4.45 0.515597
4.46 0.563484
4.47 0.603195
4.48 0.633006
4.49 0.651943
4.5 0.657237
4.51 0.649822
4.52 0.627541
4.53 0.591728
4.54 0.542761
4.55 0.481382
4.56 0.41042
4.57 0.330685
4.58 0.245841
4.59 0.157992
4.6 0.0700599
4.61 -0.0156377
4.62 -0.0962228
4.63 -0.170558
4.64 -0.23629
4.65 -0.293174
4.66 -0.340715
4.67 -0.37869
4.68 -0.40872
4.69 -0.430744
4.7 -0.447336
4.71 -0.459638
4.72 -0.469615
4.73 -0.478916
4.74 -0.489191
4.75 -0.501483
4.76 -0.516983
4.77 -0.535924
4.78 -0.558418
4.79 -0.584243
4.8 -0.612419
4.81 -0.642211
4.82 -0.672207
4.83 -0.701172
4.84 -0.727761
4.85 -0.751053
4.86 -0.769596
4.87 -0.783416
4.88 -0.791573
4.89 -0.794594
4.9 -0.792787
4.91 -0.786745
4.92 -0.777814
4.93 -0.766866
4.94 -0.755469
4.95 -0.74485
4.96 -0.736299
4.97 -0.730654
4.98 -0.729162
4.99 -0.731738
5 -0.739096
5.01 -0.750684
5.02 -0.766137
5.03 -0.784835
5.04 -0.805606
5.05 -0.827596
5.06 -0.84953
5.07 -0.87034
5.08 -0.888969
5.09 -0.904746
5.1 -0.916561
5.11 -0.924493
5.12 -0.927736
5.13 -0.926558
5.14 -0.920908
5.15 -0.910677
5.16 -0.896447
5.17 -0.877611
5.18 -0.85476
5.19 -0.827344
5.2 -0.795036
5.21 -0.757569
5.22 -0.713493
5.23 -0.66288
5.24 -0.603913
5.25 -0.536353
5.26 -0.459364
5.27 -0.371919
5.28 -0.27496
5.29 -0.167184
5.3 -0.0508667
5.31 0.0734327
5.32 0.203515
5.33 0.336862
5.34 0.470495
5.35 0.601196
5.36 0.724773
5.37 0.837886
5.38 0.936894
5.39 1.01723
5.4 1.07809
5.41 1.11337
5.42 1.12487
5.43 1.10963
5.44 1.0681
5.45 1.00244
5.46 0.911806
5.47 0.802053
5.48 0.674199
5.49 0.533809
5.5 0.38477
5.51 0.231712
5.52 0.0791289
5.53 -0.0680309
5.54 -0.206667
5.55 -0.332843
5.56 -0.443972
5.57 -0.539185
5.58 -0.615429
5.59 -0.675072
5.6 -0.716543
5.61 -0.742582
5.62 -0.754624
5.63 -0.754365
5.64 -0.745225
5.65 -0.728434
5.66 -0.707313
5.67 -0.683448
5.68 -0.658668
5.69 -0.634114
5.7 -0.610641
5.71 -0.588326
5.72 -0.567103
5.73 -0.546286
5.74 -0.525086
5.75 -0.502374
5.76 -0.477389
5.77 -0.448713
5.78 -0.416163
5.79 -0.379044
5.8 -0.337441
5.81 -0.29198
5.82 -0.243175
5.83 -0.192672
5.84 -0.141924
5.85 -0.0928748
5.86 -0.0474061
5.87 -0.00792035
5.88 0.0245224
5.89 0.046892
5.9 0.0592936
5.91 0.0600574
5.92 0.0489838
5.93 0.026837
5.94 -0.00697065
5.95 -0.0497953
5.96 -0.101208
5.97 -0.158613
5.98 -0.220188
5.99 -0.283802
6 -0.347401
6.01 -0.408872
6.02 -0.466935
6.03 -0.52012
6.04 -0.567631
6.05 -0.609425
6.06 -0.644859
6.07 -0.6752
6.08 -0.700576
6.09 -0.722413
6.1 -0.741727
6.11 -0.75969
6.12 -0.777438
6.13 -0.795997
6.14 -0.815956
6.15 -0.837833
6.16 -0.861712
6.17 -0.887305
6.18 -0.914268
6.19 -0.94174
6.2 -0.968878
6.21 -0.994725
6.22 -1.01839
6.23 -1.03883
6.24 -1.0558
6.25 -1.06821
6.26 -1.07651
6.27 -1.08043
6.28 -1.08036
6.29 -1.07694
6.3 -1.07038
6.31 -1.06161
6.32 -1.05076
6.33 -1.03813
6.34 -1.0235
6.35 -1.00599
6.36 -0.984833
6.37 -0.957411
6.38 -0.922254
6.39 -0.875961
6.4 -0.815206
6.41 -0.737619
6.42 -0.637061
6.43 -0.513384
6.44 -0.360408
6.45 -0.177861
6.46 0.0361066
6.47 0.283762
6.48 0.560934
6.49 0.870289
6.5 1.20409
6.51 1.55972
6.52 1.93033
6.53 2.30859
6.54 2.68614
6.55 3.05472
6.56 3.40363
6.57 3.72485
6.58 4.00985
6.59 4.24773
6.6 4.43723
6.61 4.564
6.62 4.63258
6.63 4.6361
6.64 4.57517
6.65 4.45482
6.66 4.27165
6.67 4.03912
6.68 3.75781
6.69 3.43974
6.7 3.09277
6.71 2.7258
6.72 2.34955
6.73 1.97299
6.74 1.60484
6.75 1.25341
6.76 0.925752
6.77 0.62545
6.78 0.360473
6.79 0.128408
6.8 -0.065421
6.81 -0.224286
6.82 -0.349271
6.83 -0.441433
6.84 -0.507326
6.85 -0.547007
6.86 -0.568182
6.87 -0.573437
6.88 -0.567354
6.89 -0.553893
6.9 -0.535752
6.91 -0.515991
6.92 -0.496388
6.93 -0.478251
6.94 -0.462225
6.95 -0.448611
6.96 -0.436942
6.97 -0.426976
6.98 -0.417856
6.99 -0.409039
7 -0.39997
7.01 -0.390394
7.02 -0.380228
7.03 -0.36984
7.04 -0.35984
7.05 -0.351134
7.06 -0.344771
7.07 -0.342264
7.08 -0.344341
7.09 -0.353096
7.1 -0.368623
7.11 -0.39215
7.12 -0.423943
7.13 -0.463464
7.14 -0.511084
7.15 -0.564781
7.16 -0.623908
7.17 -0.686271
7.18 -0.750076
7.19 -0.813076
7.2 -0.873467
7.21 -0.928596
7.22 -0.97744
7.23 -1.01815
7.24 -1.04978
7.25 -1.0724
7.26 -1.08491
7.27 -1.08915
7.28 -1.08508
7.29 -1.07471
7.3 -1.05948
7.31 -1.04109
7.32 -1.02147
7.33 -1.00226
7.34 -0.98479
7.35 -0.970174
7.36 -0.958967
7.37 -0.950999
7.38 -0.946072
7.39 -0.942743
7.4 -0.939573
7.41 -0.934461
7.42 -0.925234
7.43 -0.9089
7.44 -0.883973
7.45 -0.846397
7.46 -0.795818
7.47 -0.729658
7.48 -0.646991
7.49 -0.54844
7.5 -0.432423
7.51 -0.302406
7.52 -0.158564
7.53 -0.00462632
7.54 0.156511
7.55 0.321155
7.56 0.485312
7.57 0.644221
7.58 0.794434
7.59 0.931425
7.6 1.05143
7.61 1.1526
7.62 1.2297
7.63 1.28429
7.64 1.31248
7.65 1.31599
7.66 1.29517
7.67 1.25013
7.68 1.18528
7.69 1.10024
7.7 1.00068
7.71 0.888646
7.72 0.768058
7.73 0.642593
7.74 0.515559
7.75 0.390251
7.76 0.269944
7.77 0.156958
7.78 0.0533599
7.79 -0.0384221
7.8 -0.118556
7.81 -0.184276
7.82 -0.237169
7.83 -0.276316
7.84 -0.302346
7.85 -0.31671
7.86 -0.319074
7.87 -0.312245
7.88 -0.296489
7.89 -0.274028
7.9 -0.246284
7.91 -0.214752
7.92 -0.181301
7.93 -0.147391
7.94 -0.114604
7.95 -0.0844171
7.96 -0.0582433
7.97 -0.0369256
7.98 -0.0222733
7.99 -0.0141842
8 -0.0141611
8.01 -0.0220531
8.02 -0.0380816
8.03 -0.0626362
8.04 -0.0945018
8.05 -0.134244
8.06 -0.180041
8.07 -0.231414
8.08 -0.287078
8.09 -0.345656
8.1 -0.406039
8.11 -0.466747
8.12 -0.526541
8.13 -0.58432
8.14 -0.639183
8.15 -0.69013
8.16 -0.737122
8.17 -0.779214
8.18 -0.817025
8.19 -0.850404
8.2 -0.87978
8.21 -0.905812
8.22 -0.928649
8.23 -0.949177
8.24 -0.967465
8.25 -0.983827
8.26 -0.998138
8.27 -1.00977
8.28 -1.01827
8.29 -1.02177
8.3 -1.01932
8.31 -1.0086
8.32 -0.98729
8.33 -0.953887
8.34 -0.904024
8.35 -0.837707
8.36 -0.750637
8.37 -0.64246
8.38 -0.511889
8.39 -0.356943
8.4 -0.180427
8.41 0.0200459
8.42 0.239444
8.43 0.476497
8.44 0.727095
8.45 0.986419
8.46 1.24977
8.47 1.51126
8.48 1.76448
8.49 2.00369
8.5 2.22326
8.51 2.41572
8.52 2.57941
8.53 2.70477
8.54 2.79335
8.55 2.84007
8.56 2.84392
8.57 2.80745
8.58 2.72668
8.59 2.60988
8.6 2.45598
8.61 2.27208
8.62 2.06273
8.63 1.83267
8.64 1.58953
8.65 1.33796
8.66 1.08499
8.67 0.835972
8.68 0.596419
8.69 0.369802
8.7 0.162051
8.71 -0.0267359
8.72 -0.192192
8.73 -0.334923
8.74 -0.454709
8.75 -0.55094
8.76 -0.627461
8.77 -0.683286
8.78 -0.723526
8.79 -0.74964
8.8 -0.764843
8.81 -0.772394
8.82 -0.774429
8.83 -0.774096
8.84 -0.773346
8.85 -0.774079
8.86 -0.77757
8.87 -0.785013
8.88 -0.796421
8.89 -0.812533
8.9 -0.832476
8.91 -0.856006
8.92 -0.882273
8.93 -0.910301
8.94 -0.939231
8.95 -0.968038
8.96 -0.995807
8.97 -1.02183
8.98 -1.04554
8.99 -1.06633
9 -1.08432
9.01 -1.099
9.02 -1.11088
9.03 -1.11998
9.04 -1.12666
9.05 -1.13138
9.06 -1.13427
9.07 -1.13586
9.08 -1.13622
9.09 -1.13551
9.1 -1.1337
9.11 -1.13051
9.12 -1.12577
9.13 -1.11872
9.14 -1.10907
9.15 -1.09599
9.16 -1.07877
9.17 -1.05705
9.18 -1.02955
9.19 -0.9966
9.2 -0.957193
9.21 -0.911653
9.22 -0.860072
9.23 -0.802502
9.24 -0.740184
9.25 -0.673359
9.26 -0.603749
9.27 -0.532453
9.28 -0.461115
9.29 -0.391188
9.3 -0.324749
9.31 -0.262861
9.32 -0.207658
9.33 -0.160092
9.34 -0.121228
9.35 -0.0925403
9.36 -0.0733705
9.37 -0.0654327
9.38 -0.067084
9.39 -0.0784824
9.4 -0.0986094
9.41 -0.125853
9.42 -0.159548
9.43 -0.197286
9.44 -0.23784
9.45 -0.279235
9.46 -0.319946
9.47 -0.358248
9.48 -0.393223
9.49 -0.423174
9.5 -0.448005
9.51 -0.466952
9.52 -0.479963
9.53 -0.487632
9.54 -0.489862
9.55 -0.488165
9.56 -0.483075
9.57 -0.476002
9.58 -0.468049
9.59 -0.460488
9.6 -0.454283
9.61 -0.450747
9.62 -0.45034
9.63 -0.453848
9.64 -0.461634
9.65 -0.47353
9.66 -0.489965
9.67 -0.510013
9.68 -0.533636
9.69 -0.559971
9.7 -0.588404
9.71 -0.618298
9.72 -0.64888
9.73 -0.679574
9.74 -0.70982
9.75 -0.73914
9.76 -0.767115
9.77 -0.793526
9.78 -0.817786
9.79 -0.839847
9.8 -0.858968
9.81 -0.874715
9.82 -0.886333
9.83 -0.892373
9.84 -0.892237
9.85 -0.883096
9.86 -0.864141
9.87 -0.832538
9.88 -0.785725
9.89 -0.722406
9.9 -0.637436
9.91 -0.531508
9.92 -0.399797
9.93 -0.242203
9.94 -0.0575854
9.95 0.156344
9.96 0.396052
9.97 0.664326
9.98 0.955374
9.99 1.26777
10 1.59696
10.01 1.93739
10.02 2.28398
10.03 2.62978
10.04 2.96768
10.05 3.29084
10.06 3.59277
10.07 3.86456
10.08 4.10392
10.09 4.29957
10.1 4.45252
10.11 4.55648
10.12 4.60929
10.13 4.61356
10.14 4.56327
10.15 4.46782
10.16 4.32483
10.17 4.14192
10.18 3.92393
10.19 3.67526
10.2 3.40521
10.21 3.11787
10.22 2.8222
10.23 2.5239
10.24 2.22964
10.25 1.94409
10.26 1.67383
10.27 1.42038
10.28 1.1887
10.29 0.979297
10.3 0.79296
10.31 0.63114
10.32 0.49031
10.33 0.372072
10.34 0.27145
10.35 0.187227
10.36 0.116337
10.37 0.0553153
10.38 0.00228311
10.39 -0.0464008
10.4 -0.092618
10.41 -0.138628
10.42 -0.185907
10.43 -0.235823
10.44 -0.288728
10.45 -0.345413
10.46 -0.405298
10.47 -0.468182
10.48 -0.533295
10.49 -0.599673
10.5 -0.666299
10.51 -0.732078
10.52 -0.795757
10.53 -0.856343
10.54 -0.912916
10.55 -0.964223
10.56 -1.01017
10.57 -1.04924
10.58 -1.08184
10.59 -1.10723
10.6 -1.12524
10.61 -1.13634
10.62 -1.13967
10.63 -1.1365
10.64 -1.12635
10.65 -1.11009
10.66 -1.08817
10.67 -1.06086
10.68 -1.02934
10.69 -0.993752
10.7 -0.955382
10.71 -0.914855
10.72 -0.873145
10.73 -0.831162
10.74 -0.789947
10.75 -0.750289
10.76 -0.713311
10.77 -0.679736
10.78 -0.650283
10.79 -0.625984
10.8 -0.606765
10.81 -0.593886
10.82 -0.586815
10.83 -0.58603
10.84 -0.591436
10.85 -0.602402
10.86 -0.619248
10.87 -0.640645
10.88 -0.666495
10.89 -0.695744
10.9 -0.727654
10.91 -0.76149
10.92 -0.796292
10.93 -0.831342
10.94 -0.865875
10.95 -0.899228
10.96 -0.930793
10.97 -0.960282
10.98 -0.987013
10.99 -1.01116
11 -1.03229
11.01 -1.0506
11.02 -1.06618
11.03 -1.07906
11.04 -1.08976
11.05 -1.0983
11.06 -1.10529
11.07 -1.11099
11.08 -1.1158
11.09 -1.1201
11.1 -1.12418
11.11 -1.12832
11.12 -1.13269
11.13 -1.13736
11.14 -1.14227
11.15 -1.14722
11.16 -1.15185
11.17 -1.15554
11.18 -1.15765
11.19 -1.1572
11.2 -1.15297
11.21 -1.14408
11.22 -1.12824
11.23 -1.10494
11.24 -1.07162
11.25 -1.02722
11.26 -0.970326
11.27 -0.898466
11.28 -0.812208
11.29 -0.708222
11.3 -0.588097
11.31 -0.450612
11.32 -0.296126
11.33 -0.126589
11.34 0.0584695
11.35 0.254932
11.36 0.461554
11.37 0.674443
11.38 0.890288
11.39 1.10491
11.4 1.31464
11.41 1.51396
11.42 1.69982
11.43 1.86738
11.44 2.01244
11.45 2.13353
11.46 2.22403
11.47 2.2862
11.48 2.31522
11.49 2.3126
11.5 2.27877
11.51 2.21288
11.52 2.12035
11.53 1.99997
11.54 1.85849
11.55 1.69819
11.56 1.52361
11.57 1.33966
11.58 1.15008
11.59 0.95975
11.6 0.772665
11.61 0.592386
11.62 0.42172
11.63 0.26408
11.64 0.119614
11.65 -0.00839896
11.66 -0.121561
11.67 -0.21914
11.68 -0.302002
11.69 -0.37234
11.7 -0.430296
11.71 -0.479472
11.72 -0.5209
11.73 -0.557218
11.74 -0.590243
11.75 -0.621651
11.76 -0.652884
11.77 -0.684999
11.78 -0.718427
11.79 -0.753318
11.8 -0.789259
11.81 -0.825449
11.82 -0.860561
11.83 -0.893306
11.84 -0.921639
11.85 -0.943887
11.86 -0.958339
11.87 -0.96243
11.88 -0.955848
11.89 -0.935404
11.9 -0.90174
11.91 -0.853399
11.92 -0.790139
11.93 -0.713252
11.94 -0.621637
11.95 -0.518527
11.96 -0.404185
11.97 -0.281392
11.98 -0.152327
11.99 -0.0193869
12 0.114535
12.01 0.246559
12.02 0.37417
12.03 0.494581
12.04 0.605138
12.05 0.704605
12.06 0.789295
12.07 0.859912
12.08 0.913706
12.09 0.951074
12.1 0.971966
12.11 0.975515
12.12 0.964316
12.13 0.937211
12.14 0.897487
12.15 0.845898
12.16 0.784377
12.17 0.715365
12.18 0.640052
12.19 0.561204
12.2 0.480288
12.21 0.399224
12.22 0.319405
12.23 0.242329
12.24 0.168579
12.25 0.099438
12.26 0.034748
12.27 -0.0251018
12.28 -0.0802476
12.29 -0.131346
12.3 -0.178423
12.31 -0.222671
12.32 -0.264473
12.33 -0.304723
12.34 -0.344035
12.35 -0.382948
12.36 -0.421854
12.37 -0.460956
12.38 -0.500186
12.39 -0.539282
12.4 -0.577683
