# xPDFsuite Configuration #
[PDF]
wavelength = 0.1432
dataformat = twotheta
inputfile = 1_1Pd_CeO2_cycle-00382.chi
backgroundfile = background-00000.chi
mode = xray
bgscale = 1.007
composition = CeO2
outputtype = gr
qmaxinst = 28.8974762299
qmin = 0.5
qmax = 27.9
rmax = 50.0
rmin = 0.0
rstep = 0.01
rpoly = 1.8657

[Misc]
inputdir = G:/SankarDec16/1Pd/Chi
savedir = D:/DATA/APS_CeO2/1Pd
backgroundfilefull = G:/SankarDec16/Background/background-00000.chi

#### start data
#S 1
#L r($\AA$)  G($\AA^{-2}$)
0 0
0.01 -0.00447398
0.02 -0.00860967
0.03 -0.0120588
0.04 -0.0145594
0.05 -0.0159659
0.06 -0.0160445
0.07 -0.0149523
0.08 -0.0126155
0.09 -0.00933312
0.1 -0.00531286
0.11 -0.000871733
0.12 0.00364601
0.13 0.00785277
0.14 0.0114766
0.15 0.0141832
0.16 0.0157784
0.17 0.0161865
0.18 0.0152509
0.19 0.0132041
0.2 0.0100591
0.21 0.00616549
0.22 0.00178249
0.23 -0.00273363
0.24 -0.00706015
0.25 -0.0107797
0.26 -0.0137006
0.27 -0.0155191
0.28 -0.0161193
0.29 -0.015499
0.3 -0.0135871
0.31 -0.0106797
0.32 -0.0068764
0.33 -0.00255986
0.34 0.00197234
0.35 0.00634235
0.36 0.0102654
0.37 0.0133156
0.38 0.0153909
0.39 0.0162342
0.4 0.0158134
0.41 0.0142005
0.42 0.0114135
0.43 0.00779755
0.44 0.00353392
0.45 -0.000980765
0.46 -0.00542565
0.47 -0.00942018
0.48 -0.0127323
0.49 -0.0149489
0.5 -0.0160635
0.51 -0.0158784
0.52 -0.0144477
0.53 -0.011914
0.54 -0.00838399
0.55 -0.00423469
0.56 0.000280115
0.57 0.00476964
0.58 0.00890613
0.59 0.0123254
0.6 0.0148602
0.61 0.0161317
0.62 0.0162289
0.63 0.0150247
0.64 0.0126565
0.65 0.00933058
0.66 0.00523762
0.67 0.000767241
0.68 -0.00376682
0.69 -0.00799932
0.7 -0.0116124
0.71 -0.0142766
0.72 -0.0158982
0.73 -0.0161515
0.74 -0.0152171
0.75 -0.0130439
0.76 -0.00984571
0.77 -0.00588135
0.78 -0.00141445
0.79 0.00317317
0.8 0.00752612
0.81 0.0113241
0.82 0.0142776
0.83 0.0161104
0.84 0.0168078
0.85 0.0161172
0.86 0.0142997
0.87 0.0113842
0.88 0.00764822
0.89 0.00338712
0.9 -0.00107918
0.91 -0.00540252
0.92 -0.00921187
0.93 -0.012257
0.94 -0.0143024
0.95 -0.0151547
0.96 -0.0148868
0.97 -0.0133587
0.98 -0.0109025
0.99 -0.00764932
1 -0.00393851
1.01 -9.41743e-05
1.02 0.00349903
1.03 0.00655731
1.04 0.00869224
1.05 0.00975488
1.06 0.00958177
1.07 0.00808712
1.08 0.00546289
1.09 0.00171349
1.1 -0.00272374
1.11 -0.00757339
1.12 -0.0123895
1.13 -0.0167811
1.14 -0.0202217
1.15 -0.0224708
1.16 -0.0230236
1.17 -0.0218032
1.18 -0.0186502
1.19 -0.0135067
1.2 -0.00669092
1.21 0.00179074
1.22 0.0113244
1.23 0.0215652
1.24 0.0319341
1.25 0.0419228
1.26 0.0508655
1.27 0.0584124
1.28 0.0638899
1.29 0.0671158
1.3 0.0677898
1.31 0.0656804
1.32 0.0610662
1.33 0.0536598
1.34 0.0441242
1.35 0.032591
1.36 0.0195831
1.37 0.00560402
1.38 -0.00885895
1.39 -0.0232521
1.4 -0.0370295
1.41 -0.049769
1.42 -0.0610586
1.43 -0.0704743
1.44 -0.077973
1.45 -0.0830171
1.46 -0.0858774
1.47 -0.0863138
1.48 -0.0844446
1.49 -0.0804527
1.5 -0.0742814
1.51 -0.0663878
1.52 -0.0567687
1.53 -0.0458373
1.54 -0.0338121
1.55 -0.0209751
1.56 -0.00768264
1.57 0.00576928
1.58 0.0190198
1.59 0.0317004
1.6 0.0434383
1.61 0.0539391
1.62 0.0626672
1.63 0.0695389
1.64 0.0739843
1.65 0.075975
1.66 0.0752823
1.67 0.0717128
1.68 0.0655661
1.69 0.0565335
1.7 0.0452754
1.71 0.0319086
1.72 0.0169692
1.73 0.000999189
1.74 -0.015447
1.75 -0.0317303
1.76 -0.0471776
1.77 -0.0612708
1.78 -0.0734994
1.79 -0.0833531
1.8 -0.0908318
1.81 -0.0953925
1.82 -0.0975194
1.83 -0.0971845
1.84 -0.0948522
1.85 -0.0910569
1.86 -0.0863197
1.87 -0.081379
1.88 -0.0769193
1.89 -0.0735559
1.9 -0.0718435
1.91 -0.0723241
1.92 -0.075023
1.93 -0.0804238
1.94 -0.0880103
1.95 -0.0976818
1.96 -0.108834
1.97 -0.120797
1.98 -0.132756
1.99 -0.143895
2 -0.153154
2.01 -0.159814
2.02 -0.163081
2.03 -0.162122
2.04 -0.156951
2.05 -0.146544
2.06 -0.13164
2.07 -0.111975
2.08 -0.0880856
2.09 -0.060638
2.1 -0.0300004
2.11 0.0027247
2.12 0.0370287
2.13 0.0720372
2.14 0.107185
2.15 0.14194
2.16 0.176051
2.17 0.209241
2.18 0.241677
2.19 0.273475
2.2 0.304983
2.21 0.336563
2.22 0.36867
2.23 0.401562
2.24 0.435592
2.25 0.470717
2.26 0.506813
2.27 0.54346
2.28 0.580001
2.29 0.615344
2.3 0.648512
2.31 0.677978
2.32 0.702286
2.33 0.720312
2.34 0.729778
2.35 0.73064
2.36 0.720696
2.37 0.70027
2.38 0.668904
2.39 0.626443
2.4 0.574648
2.41 0.513253
2.42 0.445243
2.43 0.371883
2.44 0.29567
2.45 0.21885
2.46 0.144031
2.47 0.0730526
2.48 0.00855523
2.49 -0.0483308
2.5 -0.096278
2.51 -0.134148
2.52 -0.162802
2.53 -0.18107
2.54 -0.191334
2.55 -0.194106
2.56 -0.191354
2.57 -0.185017
2.58 -0.176942
2.59 -0.169169
2.6 -0.163604
2.61 -0.161581
2.62 -0.164223
2.63 -0.172447
2.64 -0.18585
2.65 -0.204986
2.66 -0.228281
2.67 -0.255037
2.68 -0.283664
2.69 -0.312666
2.7 -0.340268
2.71 -0.365241
2.72 -0.385865
2.73 -0.401521
2.74 -0.411551
2.75 -0.415588
2.76 -0.414534
2.77 -0.408396
2.78 -0.399057
2.79 -0.387637
2.8 -0.375944
2.81 -0.365528
2.82 -0.358365
2.83 -0.355351
2.84 -0.358188
2.85 -0.367043
2.86 -0.382222
2.87 -0.403616
2.88 -0.429856
2.89 -0.46032
2.9 -0.492773
2.91 -0.525558
2.92 -0.556526
2.93 -0.583979
2.94 -0.605513
2.95 -0.620547
2.96 -0.627148
2.97 -0.625574
2.98 -0.615747
2.99 -0.598107
3 -0.574566
3.01 -0.54608
3.02 -0.515427
3.03 -0.484648
3.04 -0.456263
3.05 -0.432193
3.06 -0.415131
3.07 -0.405583
3.08 -0.405582
3.09 -0.414642
3.1 -0.432663
3.11 -0.458942
3.12 -0.491254
3.13 -0.528325
3.14 -0.567142
3.15 -0.605424
3.16 -0.640535
3.17 -0.670576
3.18 -0.692882
3.19 -0.707255
3.2 -0.711965
3.21 -0.70796
3.22 -0.695839
3.23 -0.67696
3.24 -0.653909
3.25 -0.628894
3.26 -0.604985
3.27 -0.585081
3.28 -0.571964
3.29 -0.567417
3.3 -0.574347
3.31 -0.59216
3.32 -0.622456
3.33 -0.663363
3.34 -0.713583
3.35 -0.770846
3.36 -0.831729
3.37 -0.892918
3.38 -0.950786
3.39 -1.00157
3.4 -1.04202
3.41 -1.07025
3.42 -1.08288
3.43 -1.08123
3.44 -1.06371
3.45 -1.03315
3.46 -0.991553
3.47 -0.942132
3.48 -0.889237
3.49 -0.837206
3.5 -0.790208
3.51 -0.752612
3.52 -0.727732
3.53 -0.717042
3.54 -0.723194
3.55 -0.743377
3.56 -0.77703
3.57 -0.818828
3.58 -0.863648
3.59 -0.90382
3.6 -0.932565
3.61 -0.937901
3.62 -0.914287
3.63 -0.850579
3.64 -0.739318
3.65 -0.576857
3.66 -0.352201
3.67 -0.0714072
3.68 0.272703
3.69 0.671485
3.7 1.12049
3.71 1.61233
3.72 2.13268
3.73 2.67145
3.74 3.21149
3.75 3.73767
3.76 4.23323
3.77 4.68556
3.78 5.07336
3.79 5.39325
3.8 5.62531
3.81 5.76923
3.82 5.8191
3.83 5.76958
3.84 5.63286
3.85 5.4002
3.86 5.09352
3.87 4.71653
3.88 4.28449
3.89 3.81274
3.9 3.31358
3.91 2.8046
3.92 2.29953
3.93 1.81166
3.94 1.35214
3.95 0.932786
3.96 0.555915
3.97 0.23418
3.98 -0.0380303
3.99 -0.25628
4 -0.424112
4.01 -0.547518
4.02 -0.627555
4.03 -0.675992
4.04 -0.695942
4.05 -0.697178
4.06 -0.685759
4.07 -0.668037
4.08 -0.649452
4.09 -0.634672
4.1 -0.626121
4.11 -0.626061
4.12 -0.634918
4.13 -0.651819
4.14 -0.676109
4.15 -0.704856
4.16 -0.736007
4.17 -0.76654
4.18 -0.793909
4.19 -0.815229
4.2 -0.829254
4.21 -0.832949
4.22 -0.826794
4.23 -0.809507
4.24 -0.78149
4.25 -0.743841
4.26 -0.69663
4.27 -0.642368
4.28 -0.581665
4.29 -0.516621
4.3 -0.4485
4.31 -0.378568
4.32 -0.307945
4.33 -0.237399
4.34 -0.167426
4.35 -0.0983429
4.36 -0.0302356
4.37 0.0369606
4.38 0.1032
4.39 0.168618
4.4 0.232985
4.41 0.296082
4.42 0.357401
4.43 0.41602
4.44 0.471332
4.45 0.521426
4.46 0.565712
4.47 0.6023
4.48 0.629854
4.49 0.647656
4.5 0.653348
4.51 0.647799
4.52 0.629071
4.53 0.598249
4.54 0.555511
4.55 0.501255
4.56 0.437803
4.57 0.365416
4.58 0.287209
4.59 0.204659
4.6 0.120144
4.61 0.0356642
4.62 -0.0465279
4.63 -0.125082
4.64 -0.197983
4.65 -0.264543
4.66 -0.323961
4.67 -0.375513
4.68 -0.420032
4.69 -0.456725
4.7 -0.487314
4.71 -0.512073
4.72 -0.53216
4.73 -0.548739
4.74 -0.562551
4.75 -0.574844
4.76 -0.586258
4.77 -0.597526
4.78 -0.609068
4.79 -0.621191
4.8 -0.633913
4.81 -0.647259
4.82 -0.66096
4.83 -0.674789
4.84 -0.688423
4.85 -0.701605
4.86 -0.713986
4.87 -0.72549
4.88 -0.735877
4.89 -0.745206
4.9 -0.753502
4.91 -0.760837
4.92 -0.767449
4.93 -0.773417
4.94 -0.778998
4.95 -0.7843
4.96 -0.789436
4.97 -0.79446
4.98 -0.799351
4.99 -0.804075
5 -0.808519
5.01 -0.812599
5.02 -0.816226
5.03 -0.819316
5.04 -0.821926
5.05 -0.824055
5.06 -0.82592
5.07 -0.827715
5.08 -0.829741
5.09 -0.832259
5.1 -0.835654
5.11 -0.840016
5.12 -0.845578
5.13 -0.852161
5.14 -0.859499
5.15 -0.866996
5.16 -0.873866
5.17 -0.878692
5.18 -0.880327
5.19 -0.876852
5.2 -0.866358
5.21 -0.847438
5.22 -0.816889
5.23 -0.77457
5.24 -0.71734
5.25 -0.645235
5.26 -0.557447
5.27 -0.453218
5.28 -0.334883
5.29 -0.201677
5.3 -0.0578043
5.31 0.0948808
5.32 0.252479
5.33 0.411139
5.34 0.566051
5.35 0.713446
5.36 0.847627
5.37 0.96521
5.38 1.06232
5.39 1.13433
5.4 1.18164
5.41 1.19828
5.42 1.18789
5.43 1.14855
5.44 1.08225
5.45 0.992493
5.46 0.880039
5.47 0.751535
5.48 0.609375
5.49 0.459429
5.5 0.305947
5.51 0.153789
5.52 0.00657619
5.53 -0.130716
5.54 -0.256485
5.55 -0.367568
5.56 -0.462666
5.57 -0.542027
5.58 -0.603898
5.59 -0.651384
5.6 -0.684029
5.61 -0.70487
5.62 -0.715647
5.63 -0.718227
5.64 -0.715331
5.65 -0.708132
5.66 -0.69873
5.67 -0.688008
5.68 -0.676695
5.69 -0.665005
5.7 -0.652638
5.71 -0.639129
5.72 -0.623443
5.73 -0.604719
5.74 -0.581963
5.75 -0.553961
5.76 -0.520648
5.77 -0.480727
5.78 -0.435149
5.79 -0.383906
5.8 -0.328095
5.81 -0.269182
5.82 -0.208745
5.83 -0.148874
5.84 -0.0918954
5.85 -0.0398563
5.86 0.00521425
5.87 0.0408848
5.88 0.0667719
5.89 0.0800066
5.9 0.0817476
5.91 0.0709792
5.92 0.0484315
5.93 0.0156194
5.94 -0.0270846
5.95 -0.0766822
5.96 -0.131996
5.97 -0.190401
5.98 -0.250008
5.99 -0.308755
6 -0.365247
6.01 -0.41765
6.02 -0.465655
6.03 -0.508473
6.04 -0.54619
6.05 -0.579436
6.06 -0.6085
6.07 -0.634873
6.08 -0.659373
6.09 -0.683344
6.1 -0.707778
6.11 -0.733685
6.12 -0.76147
6.13 -0.791776
6.14 -0.824192
6.15 -0.858482
6.16 -0.893817
6.17 -0.929234
6.18 -0.963402
6.19 -0.995304
6.2 -1.02338
6.21 -1.04682
6.22 -1.0648
6.23 -1.0765
6.24 -1.08247
6.25 -1.0821
6.26 -1.07692
6.27 -1.06751
6.28 -1.05527
6.29 -1.0416
6.3 -1.02784
6.31 -1.0151
6.32 -1.00436
6.33 -0.995791
6.34 -0.989136
6.35 -0.983364
6.36 -0.976776
6.37 -0.966352
6.38 -0.94934
6.39 -0.921404
6.4 -0.878012
6.41 -0.815854
6.42 -0.727385
6.43 -0.612073
6.44 -0.462533
6.45 -0.2784
6.46 -0.0575762
6.47 0.202398
6.48 0.496461
6.49 0.827366
6.5 1.18592
6.51 1.56882
6.52 1.96795
6.53 2.37484
6.54 2.77979
6.55 3.17362
6.56 3.54429
6.57 3.88313
6.58 4.18094
6.59 4.42607
6.6 4.61767
6.61 4.74055
6.62 4.80034
6.63 4.79021
6.64 4.71154
6.65 4.57028
6.66 4.36361
6.67 4.1062
6.68 3.79941
6.69 3.45619
6.7 3.08512
6.71 2.69593
6.72 2.29962
6.73 1.90596
6.74 1.52354
6.75 1.161
6.76 0.825322
6.77 0.519832
6.78 0.252604
6.79 0.0205742
6.8 -0.170958
6.81 -0.325774
6.82 -0.445234
6.83 -0.530648
6.84 -0.588939
6.85 -0.620276
6.86 -0.632648
6.87 -0.628748
6.88 -0.613288
6.89 -0.590331
6.9 -0.56266
6.91 -0.533428
6.92 -0.504521
6.93 -0.477363
6.94 -0.452731
6.95 -0.43113
6.96 -0.412192
6.97 -0.39601
6.98 -0.381776
6.99 -0.369213
7 -0.357915
7.01 -0.347644
7.02 -0.338579
7.03 -0.330838
7.04 -0.325151
7.05 -0.322136
7.06 -0.322648
7.07 -0.327934
7.08 -0.338313
7.09 -0.355528
7.1 -0.379249
7.11 -0.410294
7.12 -0.448533
7.13 -0.493194
7.14 -0.544188
7.15 -0.59957
7.16 -0.6584
7.17 -0.718667
7.18 -0.778684
7.19 -0.836376
7.2 -0.890393
7.21 -0.938343
7.22 -0.979748
7.23 -1.01318
7.24 -1.03818
7.25 -1.05516
7.26 -1.06354
7.27 -1.06524
7.28 -1.06058
7.29 -1.05149
7.3 -1.03939
7.31 -1.02588
7.32 -1.01246
7.33 -1.0006
7.34 -0.991029
7.35 -0.984462
7.36 -0.980929
7.37 -0.979858
7.38 -0.980473
7.39 -0.98118
7.4 -0.980079
7.41 -0.975054
7.42 -0.963882
7.43 -0.943548
7.44 -0.912959
7.45 -0.868113
7.46 -0.80924
7.47 -0.734097
7.48 -0.642259
7.49 -0.534774
7.5 -0.410579
7.51 -0.273395
7.52 -0.123835
7.53 0.034265
7.54 0.197904
7.55 0.363303
7.56 0.526758
7.57 0.6835
7.58 0.830559
7.59 0.963657
7.6 1.07944
7.61 1.17641
7.62 1.24971
7.63 1.30116
7.64 1.32714
7.65 1.32946
7.66 1.30851
7.67 1.26437
7.68 1.2012
7.69 1.11847
7.7 1.02143
7.71 0.911826
7.72 0.793152
7.73 0.668793
7.74 0.541586
7.75 0.414759
7.76 0.291245
7.77 0.173431
7.78 0.0634277
7.79 -0.0362281
7.8 -0.125283
7.81 -0.200706
7.82 -0.263514
7.83 -0.312307
7.84 -0.347137
7.85 -0.369035
7.86 -0.376965
7.87 -0.373631
7.88 -0.358737
7.89 -0.334537
7.9 -0.302416
7.91 -0.263865
7.92 -0.221284
7.93 -0.176238
7.94 -0.131084
7.95 -0.0877751
7.96 -0.0484228
7.97 -0.014459
7.98 0.011527
7.99 0.0292847
8 0.0366189
8.01 0.033495
8.02 0.0194856
8.03 -0.00601281
8.04 -0.0413705
8.05 -0.0872906
8.06 -0.14122
8.07 -0.202359
8.08 -0.268808
8.09 -0.338589
8.1 -0.409962
8.11 -0.480936
8.12 -0.549667
8.13 -0.614729
8.14 -0.674947
8.15 -0.729039
8.16 -0.777194
8.17 -0.818285
8.18 -0.853457
8.19 -0.882779
8.2 -0.90715
8.21 -0.927715
8.22 -0.945117
8.23 -0.960679
8.24 -0.974951
8.25 -0.988523
8.26 -1.00148
8.27 -1.01341
8.28 -1.02364
8.29 -1.03039
8.3 -1.03224
8.31 -1.0266
8.32 -1.01069
8.33 -0.982528
8.34 -0.937177
8.35 -0.874289
8.36 -0.788986
8.37 -0.680671
8.38 -0.547817
8.39 -0.388173
8.4 -0.204807
8.41 0.00487121
8.42 0.235266
8.43 0.484888
8.44 0.749113
8.45 1.02259
8.46 1.30003
8.47 1.57499
8.48 1.84044
8.49 2.09017
8.5 2.31814
8.51 2.51635
8.52 2.68322
8.53 2.80863
8.54 2.89453
8.55 2.93572
8.56 2.93146
8.57 2.88471
8.58 2.79164
8.59 2.66121
8.6 2.49266
8.61 2.29365
8.62 2.06917
8.63 1.82444
8.64 1.56744
8.65 1.30332
8.66 1.03926
8.67 0.780911
8.68 0.533984
8.69 0.301915
8.7 0.0909322
8.71 -0.0991913
8.72 -0.263925
8.73 -0.404148
8.74 -0.519787
8.75 -0.61036
8.76 -0.68009
8.77 -0.728098
8.78 -0.759908
8.79 -0.777219
8.8 -0.783573
8.81 -0.782508
8.82 -0.776523
8.83 -0.768951
8.84 -0.762101
8.85 -0.758019
8.86 -0.758144
8.87 -0.763887
8.88 -0.775124
8.89 -0.792828
8.9 -0.81581
8.91 -0.843776
8.92 -0.875622
8.93 -0.910043
8.94 -0.945903
8.95 -0.981749
8.96 -1.01628
8.97 -1.04842
8.98 -1.07725
8.99 -1.10178
9 -1.12204
9.01 -1.13711
9.02 -1.14769
9.03 -1.15371
9.04 -1.15567
9.05 -1.15436
9.06 -1.15011
9.07 -1.14398
9.08 -1.1364
9.09 -1.12805
9.1 -1.11931
9.11 -1.1104
9.12 -1.10136
9.13 -1.09192
9.14 -1.08172
9.15 -1.0701
9.16 -1.05623
9.17 -1.03945
9.18 -1.01833
9.19 -0.992604
9.2 -0.96088
9.21 -0.922911
9.22 -0.878308
9.23 -0.826538
9.24 -0.768589
9.25 -0.704096
9.26 -0.634829
9.27 -0.56166
9.28 -0.486306
9.29 -0.410526
9.3 -0.336516
9.31 -0.265981
9.32 -0.201444
9.33 -0.144481
9.34 -0.0966821
9.35 -0.0601494
9.36 -0.0345365
9.37 -0.0222082
9.38 -0.0215191
9.39 -0.0328937
9.4 -0.055276
9.41 -0.0867616
9.42 -0.12661
9.43 -0.171756
9.44 -0.220623
9.45 -0.270604
9.46 -0.31966
9.47 -0.365462
9.48 -0.406767
9.49 -0.44128
9.5 -0.468885
9.51 -0.488587
9.52 -0.500382
9.53 -0.50515
9.54 -0.502908
9.55 -0.495772
9.56 -0.484646
9.57 -0.471515
9.58 -0.457957
9.59 -0.445791
9.6 -0.43623
9.61 -0.431101
9.62 -0.430796
9.63 -0.436238
9.64 -0.447646
9.65 -0.464513
9.66 -0.487032
9.67 -0.513689
9.68 -0.544001
9.69 -0.576567
9.7 -0.610332
9.71 -0.64415
9.72 -0.677137
9.73 -0.708284
9.74 -0.737264
9.75 -0.76361
9.76 -0.787218
9.77 -0.808328
9.78 -0.826812
9.79 -0.843232
9.8 -0.857468
9.81 -0.869618
9.82 -0.879372
9.83 -0.885793
9.84 -0.888215
9.85 -0.884181
9.86 -0.872378
9.87 -0.849756
9.88 -0.813145
9.89 -0.760537
9.9 -0.685923
9.91 -0.589213
9.92 -0.464536
9.93 -0.311085
9.94 -0.127064
9.95 0.0906343
9.96 0.338278
9.97 0.619396
9.98 0.927373
9.99 1.26061
10 1.61379
10.01 1.98027
10.02 2.35402
10.03 2.72675
10.04 3.09004
10.05 3.43586
10.06 3.75663
10.07 4.04213
10.08 4.28996
10.09 4.48746
10.1 4.63626
10.11 4.72981
10.12 4.76643
10.13 4.74972
10.14 4.6741
10.15 4.55065
10.16 4.37793
10.17 4.16505
10.18 3.91801
10.19 3.64258
10.2 3.34874
10.21 3.04194
10.22 2.73115
10.23 2.42267
10.24 2.12316
10.25 1.83675
10.26 1.57008
10.27 1.32342
10.28 1.10132
10.29 0.903151
10.3 0.728899
10.31 0.579105
10.32 0.449559
10.33 0.341058
10.34 0.248372
10.35 0.169915
10.36 0.102559
10.37 0.0430931
10.38 -0.01031
10.39 -0.0606331
10.4 -0.109409
10.41 -0.158283
10.42 -0.208247
10.43 -0.260141
10.44 -0.314052
10.45 -0.370343
10.46 -0.428502
10.47 -0.488278
10.48 -0.549098
10.49 -0.610354
10.5 -0.671371
10.51 -0.731564
10.52 -0.790174
10.53 -0.846655
10.54 -0.900449
10.55 -0.950723
10.56 -0.997345
10.57 -1.03909
10.58 -1.07599
10.59 -1.10716
10.6 -1.132
10.61 -1.15046
10.62 -1.16112
10.63 -1.16471
10.64 -1.16011
10.65 -1.14774
10.66 -1.12771
10.67 -1.09987
10.68 -1.0656
10.69 -1.02474
10.7 -0.979158
10.71 -0.92971
10.72 -0.877932
10.73 -0.825357
10.74 -0.773698
10.75 -0.724352
10.76 -0.679158
10.77 -0.639294
10.78 -0.605843
10.79 -0.580263
10.8 -0.562242
10.81 -0.553318
10.82 -0.552338
10.83 -0.559515
10.84 -0.57416
10.85 -0.594992
10.86 -0.62166
10.87 -0.652217
10.88 -0.685877
10.89 -0.721156
10.9 -0.756987
10.91 -0.792266
10.92 -0.826288
10.93 -0.85814
10.94 -0.887666
10.95 -0.914509
10.96 -0.938655
10.97 -0.960423
10.98 -0.979803
10.99 -0.997483
11 -1.01367
11.01 -1.02889
11.02 -1.04346
11.03 -1.05766
11.04 -1.07171
11.05 -1.08566
11.06 -1.0995
11.07 -1.1131
11.08 -1.12624
11.09 -1.13873
11.1 -1.15014
11.11 -1.16036
11.12 -1.16897
11.13 -1.17581
11.14 -1.1807
11.15 -1.18328
11.16 -1.18365
11.17 -1.18122
11.18 -1.17606
11.19 -1.16762
11.2 -1.15536
11.21 -1.13893
11.22 -1.11674
11.23 -1.08857
11.24 -1.05239
11.25 -1.0072
11.26 -0.951578
11.27 -0.883017
11.28 -0.801544
11.29 -0.70353
11.3 -0.589815
11.31 -0.458566
11.32 -0.309395
11.33 -0.143727
11.34 0.0397692
11.35 0.237072
11.36 0.44751
11.37 0.667082
11.38 0.892348
11.39 1.11893
11.4 1.34241
11.41 1.55676
11.42 1.75797
11.43 1.94036
11.44 2.09876
11.45 2.23103
11.46 2.32937
11.47 2.39596
11.48 2.42513
11.49 2.41848
11.5 2.37649
11.51 2.29837
11.52 2.19047
11.53 2.05185
11.54 1.89047
11.55 1.70943
11.56 1.51433
11.57 1.31094
11.58 1.10414
11.59 0.899219
11.6 0.701067
11.61 0.513393
11.62 0.339103
11.63 0.181754
11.64 0.0407564
11.65 -0.080676
11.66 -0.185193
11.67 -0.272665
11.68 -0.344841
11.69 -0.40468
11.7 -0.453204
11.71 -0.494469
11.72 -0.530182
11.73 -0.563161
11.74 -0.59531
11.75 -0.628376
11.76 -0.663263
11.77 -0.700862
11.78 -0.740818
11.79 -0.782737
11.8 -0.825476
11.81 -0.867664
11.82 -0.907186
11.83 -0.942519
11.84 -0.971051
11.85 -0.991071
11.86 -1.00088
11.87 -0.99793
11.88 -0.98248
11.89 -0.951558
11.9 -0.906563
11.91 -0.84657
11.92 -0.772019
11.93 -0.684713
11.94 -0.584281
11.95 -0.47413
11.96 -0.355028
11.97 -0.229762
11.98 -0.100483
11.99 0.0304372
12 0.160632
12.01 0.287397
12.02 0.408888
12.03 0.522755
12.04 0.626905
12.05 0.720516
12.06 0.800441
12.07 0.867514
12.08 0.919314
12.09 0.956191
12.1 0.978006
12.11 0.983766
12.12 0.975636
12.13 0.952169
12.14 0.916153
12.15 0.867922
12.16 0.808959
12.17 0.741436
12.18 0.666075
12.19 0.585698
12.2 0.501541
12.21 0.415701
12.22 0.329753
12.23 0.245423
12.24 0.16376
12.25 0.0864128
12.26 0.0137135
12.27 -0.0535124
12.28 -0.114959
12.29 -0.171055
12.3 -0.221351
12.31 -0.267153
12.32 -0.30861
12.33 -0.346813
12.34 -0.382557
12.35 -0.416575
12.36 -0.44972
12.37 -0.482478
12.38 -0.515248
