# xPDFsuite Configuration #
[PDF]
wavelength = 0.1432
dataformat = twotheta
inputfile = 1_1Pd_CeO2_cycle-00389.chi
backgroundfile = background-00000.chi
mode = xray
bgscale = 1.007
composition = CeO2
outputtype = gr
qmaxinst = 28.8974762299
qmin = 0.5
qmax = 27.9
rmax = 50.0
rmin = 0.0
rstep = 0.01
rpoly = 1.8657

[Misc]
inputdir = G:/SankarDec16/1Pd/Chi
savedir = D:/DATA/APS_CeO2/1Pd
backgroundfilefull = G:/SankarDec16/Background/background-00000.chi

#### start data
#S 1
#L r($\AA$)  G($\AA^{-2}$)
0 0
0.01 -0.00642754
0.02 -0.0123714
0.03 -0.0173334
0.04 -0.0209384
0.05 -0.0229773
0.06 -0.0231143
0.07 -0.0215724
0.08 -0.0182432
0.09 -0.0135527
0.1 -0.00779564
0.11 -0.00142329
0.12 0.00507144
0.13 0.0111362
0.14 0.0163785
0.15 0.0203184
0.16 0.0226741
0.17 0.0233322
0.18 0.0220626
0.19 0.0191928
0.2 0.0147339
0.21 0.00918262
0.22 0.00290541
0.23 -0.00359109
0.24 -0.00984235
0.25 -0.0152533
0.26 -0.0195406
0.27 -0.0222654
0.28 -0.0232524
0.29 -0.0224895
0.3 -0.0198633
0.31 -0.0157906
0.32 -0.0104019
0.33 -0.00424158
0.34 0.00226927
0.35 0.00859193
0.36 0.0143122
0.37 0.0188199
0.38 0.0219546
0.39 0.023339
0.4 0.0229128
0.41 0.0207662
0.42 0.0169083
0.43 0.0118259
0.44 0.00576328
0.45 -0.000712816
0.46 -0.00714627
0.47 -0.0129911
0.48 -0.0179032
0.49 -0.021286
0.5 -0.0231095
0.51 -0.0230765
0.52 -0.0212448
0.53 -0.017803
0.54 -0.012883
0.55 -0.00701936
0.56 -0.000558762
0.57 0.00593556
0.58 0.0119941
0.59 0.0170889
0.6 0.0209625
0.61 0.0230601
0.62 0.0234844
0.63 0.0220323
0.64 0.0188778
0.65 0.0142998
0.66 0.0085475
0.67 0.00217834
0.68 -0.0043743
0.69 -0.0105769
0.7 -0.0159686
0.71 -0.0200639
0.72 -0.0227047
0.73 -0.0234039
0.74 -0.0223923
0.75 -0.0195705
0.76 -0.0152208
0.77 -0.00969887
0.78 -0.00335929
0.79 0.00324426
0.8 0.00961343
0.81 0.0152698
0.82 0.0197843
0.83 0.0227378
0.84 0.0240793
0.85 0.0234142
0.86 0.021089
0.87 0.0171132
0.88 0.0118619
0.89 0.00574796
0.9 -0.000789351
0.91 -0.00723124
0.92 -0.0130462
0.93 -0.0178404
0.94 -0.0212468
0.95 -0.0229452
0.96 -0.023
0.97 -0.02115
0.98 -0.0178421
0.99 -0.0132118
1 -0.00771699
1.01 -0.00181077
1.02 0.00398815
1.03 0.00923513
1.04 0.0133812
1.05 0.0161559
1.06 0.0172839
1.07 0.0165803
1.08 0.014253
1.09 0.0102223
1.1 0.00505374
1.11 -0.000946618
1.12 -0.00720673
1.13 -0.0132102
1.14 -0.0182968
1.15 -0.0220991
1.16 -0.0239751
1.17 -0.0237735
1.18 -0.0212684
1.19 -0.0163616
1.2 -0.00942517
1.21 -0.000463248
1.22 0.00977132
1.23 0.0208456
1.24 0.032039
1.25 0.0427221
1.26 0.052073
1.27 0.0596787
1.28 0.0647359
1.29 0.0670674
1.3 0.0663644
1.31 0.0624349
1.32 0.055686
1.33 0.045929
1.34 0.0340206
1.35 0.020269
1.36 0.00539262
1.37 -0.00995745
1.38 -0.0250676
1.39 -0.0393691
1.4 -0.0521432
1.41 -0.0630407
1.42 -0.0716729
1.43 -0.0777069
1.44 -0.0813169
1.45 -0.0821164
1.46 -0.0806672
1.47 -0.0769757
1.48 -0.0714303
1.49 -0.064414
1.5 -0.05617
1.51 -0.0471751
1.52 -0.0376542
1.53 -0.0279277
1.54 -0.0181903
1.55 -0.00861852
1.56 0.000703368
1.57 0.00964476
1.58 0.0182104
1.59 0.0263178
1.6 0.0339217
1.61 0.0409723
1.62 0.0472871
1.63 0.0528249
1.64 0.0572874
1.65 0.0605584
1.66 0.0623962
1.67 0.0625063
1.68 0.0608883
1.69 0.0570706
1.7 0.0513
1.71 0.0433859
1.72 0.0334967
1.73 0.0218942
1.74 0.00873676
1.75 -0.00540811
1.76 -0.0201846
1.77 -0.0350085
1.78 -0.0493841
1.79 -0.0627304
1.8 -0.0747409
1.81 -0.0847537
1.82 -0.0928073
1.83 -0.0985825
1.84 -0.102158
1.85 -0.103766
1.86 -0.103523
1.87 -0.102047
1.88 -0.0996849
1.89 -0.0970689
1.9 -0.0947004
1.91 -0.0931432
1.92 -0.0926921
1.93 -0.0938869
1.94 -0.0966361
1.95 -0.10108
1.96 -0.106974
1.97 -0.113941
1.98 -0.121534
1.99 -0.129092
2 -0.135873
2.01 -0.141191
2.02 -0.144332
2.03 -0.144484
2.04 -0.141455
2.05 -0.134217
2.06 -0.123149
2.07 -0.107808
2.08 -0.0884269
2.09 -0.0654141
2.1 -0.038833
2.11 -0.00961614
2.12 0.0220062
2.13 0.0552309
2.14 0.0895947
2.15 0.12463
2.16 0.159949
2.17 0.195334
2.18 0.230678
2.19 0.265996
2.2 0.301417
2.21 0.337095
2.22 0.373277
2.23 0.410039
2.24 0.44752
2.25 0.485565
2.26 0.523928
2.27 0.562074
2.28 0.599383
2.29 0.634627
2.3 0.666978
2.31 0.694884
2.32 0.716988
2.33 0.732271
2.34 0.73851
2.35 0.735825
2.36 0.722091
2.37 0.697773
2.38 0.662518
2.39 0.6163
2.4 0.560966
2.41 0.496416
2.42 0.425682
2.43 0.350169
2.44 0.272459
2.45 0.194845
2.46 0.120083
2.47 0.0499492
2.48 -0.0127872
2.49 -0.0670849
2.5 -0.111635
2.51 -0.145353
2.52 -0.169281
2.53 -0.182323
2.54 -0.18712
2.55 -0.184376
2.56 -0.176315
2.57 -0.165097
2.58 -0.152896
2.59 -0.141876
2.6 -0.134283
2.61 -0.131512
2.62 -0.134823
2.63 -0.14524
2.64 -0.162188
2.65 -0.18634
2.66 -0.215738
2.67 -0.249552
2.68 -0.285848
2.69 -0.322789
2.7 -0.358211
2.71 -0.39054
2.72 -0.417605
2.73 -0.438519
2.74 -0.45233
2.75 -0.458372
2.76 -0.457609
2.77 -0.449705
2.78 -0.436902
2.79 -0.420303
2.8 -0.402013
2.81 -0.383927
2.82 -0.368319
2.83 -0.356567
2.84 -0.350773
2.85 -0.351516
2.86 -0.35947
2.87 -0.374918
2.88 -0.396588
2.89 -0.424285
2.9 -0.455585
2.91 -0.488967
2.92 -0.52212
2.93 -0.553103
2.94 -0.579373
2.95 -0.599901
2.96 -0.612504
2.97 -0.617043
2.98 -0.61313
2.99 -0.60087
3 -0.582006
3.01 -0.557166
3.02 -0.529163
3.03 -0.499907
3.04 -0.471982
3.05 -0.44744
3.06 -0.429039
3.07 -0.417573
3.08 -0.41522
3.09 -0.421752
3.1 -0.437256
3.11 -0.461228
3.12 -0.491548
3.13 -0.527106
3.14 -0.564864
3.15 -0.60258
3.16 -0.637554
3.17 -0.667792
3.18 -0.690543
3.19 -0.705462
3.2 -0.710707
3.21 -0.707118
3.22 -0.695215
3.23 -0.676299
3.24 -0.652972
3.25 -0.627444
3.26 -0.60289
3.27 -0.5823
3.28 -0.568592
3.29 -0.563666
3.3 -0.570601
3.31 -0.588857
3.32 -0.620174
3.33 -0.662667
3.34 -0.715031
3.35 -0.774943
3.36 -0.838813
3.37 -0.903185
3.38 -0.964192
3.39 -1.01783
3.4 -1.0606
3.41 -1.09041
3.42 -1.10359
3.43 -1.10143
3.44 -1.08211
3.45 -1.04854
3.46 -1.00278
3.47 -0.948149
3.48 -0.889316
3.49 -0.830832
3.5 -0.777287
3.51 -0.733413
3.52 -0.702935
3.53 -0.687631
3.54 -0.690637
3.55 -0.70919
3.56 -0.743113
3.57 -0.786985
3.58 -0.835682
3.59 -0.881439
3.6 -0.917066
3.61 -0.930403
3.62 -0.915324
3.63 -0.860271
3.64 -0.757258
3.65 -0.602218
3.66 -0.383569
3.67 -0.10721
3.68 0.234529
3.69 0.632985
3.7 1.08378
3.71 1.57949
3.72 2.10538
3.73 2.65128
3.74 3.19937
3.75 3.73414
3.76 4.23826
3.77 4.69863
3.78 5.09337
3.79 5.41884
3.8 5.65458
3.81 5.80026
3.82 5.84983
3.83 5.79793
3.84 5.65711
3.85 5.41869
3.86 5.10522
3.87 4.72076
3.88 4.28114
3.89 3.80216
3.9 3.2967
3.91 2.78265
3.92 2.27423
3.93 1.78483
3.94 1.32572
3.95 0.908778
3.96 0.53597
3.97 0.219919
3.98 -0.0455828
3.99 -0.256441
4 -0.416733
4.01 -0.532908
4.02 -0.606594
4.03 -0.649836
4.04 -0.666255
4.05 -0.665722
4.06 -0.654436
4.07 -0.638826
4.08 -0.624009
4.09 -0.614657
4.1 -0.612625
4.11 -0.619872
4.12 -0.636324
4.13 -0.660673
4.14 -0.691737
4.15 -0.726298
4.16 -0.761832
4.17 -0.795193
4.18 -0.823685
4.19 -0.844326
4.2 -0.856136
4.21 -0.85604
4.22 -0.845014
4.23 -0.822012
4.24 -0.787861
4.25 -0.744037
4.26 -0.691034
4.27 -0.631631
4.28 -0.566818
4.29 -0.498817
4.3 -0.429019
4.31 -0.358774
4.32 -0.289003
4.33 -0.220506
4.34 -0.153401
4.35 -0.0878297
4.36 -0.02356
4.37 0.0397461
4.38 0.10234
4.39 0.164538
4.4 0.226352
4.41 0.287619
4.42 0.347883
4.43 0.406225
4.44 0.461877
4.45 0.512868
4.46 0.558353
4.47 0.596276
4.48 0.625087
4.49 0.643911
4.5 0.650201
4.51 0.644797
4.52 0.625668
4.53 0.593976
4.54 0.549977
4.55 0.494213
4.56 0.429199
4.57 0.355429
4.58 0.276208
4.59 0.193248
4.6 0.109096
4.61 0.0258256
4.62 -0.0541522
4.63 -0.129641
4.64 -0.19862
4.65 -0.26066
4.66 -0.315182
4.67 -0.361781
4.68 -0.401599
4.69 -0.434283
4.7 -0.461792
4.71 -0.48477
4.72 -0.504603
4.73 -0.522516
4.74 -0.539497
4.75 -0.556496
4.76 -0.57418
4.77 -0.592869
4.78 -0.612658
4.79 -0.633401
4.8 -0.65464
4.81 -0.675807
4.82 -0.696241
4.83 -0.715183
4.84 -0.731943
4.85 -0.746116
4.86 -0.756933
4.87 -0.764646
4.88 -0.768857
4.89 -0.770095
4.9 -0.768715
4.91 -0.765264
4.92 -0.760604
4.93 -0.755419
4.94 -0.750561
4.95 -0.746764
4.96 -0.744671
4.97 -0.744618
4.98 -0.747171
4.99 -0.752071
5 -0.759525
5.01 -0.76905
5.02 -0.780307
5.03 -0.79283
5.04 -0.806004
5.05 -0.819332
5.06 -0.832308
5.07 -0.844502
5.08 -0.855594
5.09 -0.865451
5.1 -0.873798
5.11 -0.880796
5.12 -0.88625
5.13 -0.890249
5.14 -0.892667
5.15 -0.893166
5.16 -0.891578
5.17 -0.886852
5.18 -0.878579
5.19 -0.865403
5.2 -0.846048
5.21 -0.819547
5.22 -0.78336
5.23 -0.737401
5.24 -0.678999
5.25 -0.608047
5.26 -0.523692
5.27 -0.425031
5.28 -0.313868
5.29 -0.189199
5.3 -0.0545322
5.31 0.0887544
5.32 0.237355
5.33 0.387867
5.34 0.536093
5.35 0.67841
5.36 0.809593
5.37 0.926216
5.38 1.02443
5.39 1.09957
5.4 1.15159
5.41 1.17441
5.42 1.17107
5.43 1.13926
5.44 1.08048
5.45 0.997804
5.46 0.891499
5.47 0.768018
5.48 0.629357
5.49 0.481366
5.5 0.328249
5.51 0.174877
5.52 0.0252004
5.53 -0.115714
5.54 -0.245774
5.55 -0.361515
5.56 -0.46122
5.57 -0.544803
5.58 -0.610092
5.59 -0.660045
5.6 -0.693888
5.61 -0.714662
5.62 -0.72409
5.63 -0.72409
5.64 -0.71768
5.65 -0.706179
5.66 -0.692113
5.67 -0.67668
5.68 -0.661002
5.69 -0.645587
5.7 -0.630561
5.71 -0.615547
5.72 -0.599827
5.73 -0.582496
5.74 -0.562555
5.75 -0.538721
5.76 -0.510595
5.77 -0.476721
5.78 -0.437584
5.79 -0.392836
5.8 -0.343146
5.81 -0.289654
5.82 -0.233463
5.83 -0.176558
5.84 -0.120888
5.85 -0.0685219
5.86 -0.0214631
5.87 0.0178321
5.88 0.0486322
5.89 0.0679671
5.9 0.0764853
5.91 0.0728439
5.92 0.0573164
5.93 0.0310474
5.94 -0.00608918
5.95 -0.05128
5.96 -0.103771
5.97 -0.160991
5.98 -0.22114
5.99 -0.282209
6 -0.342499
6.01 -0.400164
6.02 -0.454395
6.03 -0.504132
6.04 -0.549018
6.05 -0.589296
6.06 -0.624787
6.07 -0.65672
6.08 -0.685486
6.09 -0.712296
6.1 -0.737999
6.11 -0.763481
6.12 -0.789379
6.13 -0.816264
6.14 -0.844169
6.15 -0.873055
6.16 -0.90248
6.17 -0.93184
6.18 -0.960202
6.19 -0.986837
6.2 -1.01056
6.21 -1.03074
6.22 -1.04669
6.23 -1.05773
6.24 -1.06425
6.25 -1.0657
6.26 -1.06324
6.27 -1.05728
6.28 -1.0489
6.29 -1.03915
6.3 -1.02903
6.31 -1.01939
6.32 -1.01087
6.33 -1.0035
6.34 -0.996894
6.35 -0.989924
6.36 -0.981074
6.37 -0.967306
6.38 -0.946239
6.39 -0.91376
6.4 -0.865711
6.41 -0.799115
6.42 -0.706874
6.43 -0.58869
6.44 -0.437605
6.45 -0.253387
6.46 -0.0340935
6.47 0.222602
6.48 0.511873
6.49 0.836405
6.5 1.18748
6.51 1.56203
6.52 1.95239
6.53 2.35054
6.54 2.7473
6.55 3.13386
6.56 3.49874
6.57 3.83354
6.58 4.12933
6.59 4.37477
6.6 4.56881
6.61 4.69656
6.62 4.76313
6.63 4.76159
6.64 4.69286
6.65 4.56241
6.66 4.36697
6.67 4.12063
6.68 3.82419
6.69 3.49016
6.7 3.1267
6.71 2.74306
6.72 2.35025
6.73 1.95757
6.74 1.57393
6.75 1.2079
6.76 0.866768
6.77 0.554238
6.78 0.278659
6.79 0.0375791
6.8 -0.163279
6.81 -0.327164
6.82 -0.454997
6.83 -0.547585
6.84 -0.611669
6.85 -0.646905
6.86 -0.661388
6.87 -0.657628
6.88 -0.640437
6.89 -0.614134
6.9 -0.581598
6.91 -0.546504
6.92 -0.511011
6.93 -0.477029
6.94 -0.445726
6.95 -0.418064
6.96 -0.39393
6.97 -0.373897
6.98 -0.357195
6.99 -0.343785
7 -0.333279
7.01 -0.325299
7.02 -0.320047
7.03 -0.317223
7.04 -0.317402
7.05 -0.320783
7.06 -0.327889
7.07 -0.339571
7.08 -0.355853
7.09 -0.378038
7.1 -0.405657
7.11 -0.439248
7.12 -0.47856
7.13 -0.52286
7.14 -0.571915
7.15 -0.624097
7.16 -0.678488
7.17 -0.733413
7.18 -0.78744
7.19 -0.838797
7.2 -0.886455
7.21 -0.92837
7.22 -0.964303
7.23 -0.993113
7.24 -1.01455
7.25 -1.02909
7.26 -1.03639
7.27 -1.03819
7.28 -1.03491
7.29 -1.02828
7.3 -1.01956
7.31 -1.01017
7.32 -1.00134
7.33 -0.99431
7.34 -0.989534
7.35 -0.987478
7.36 -0.98794
7.37 -0.990208
7.38 -0.993254
7.39 -0.99552
7.4 -0.994944
7.41 -0.989502
7.42 -0.977019
7.43 -0.954553
7.44 -0.921235
7.45 -0.873171
7.46 -0.810858
7.47 -0.732245
7.48 -0.637137
7.49 -0.526754
7.5 -0.400282
7.51 -0.261497
7.52 -0.111207
7.53 0.0467562
7.54 0.209373
7.55 0.372862
7.56 0.533691
7.57 0.687124
7.58 0.830449
7.59 0.959546
7.6 1.07129
7.61 1.1644
7.62 1.23427
7.63 1.28286
7.64 1.30679
7.65 1.30795
7.66 1.28682
7.67 1.24357
7.68 1.18223
7.69 1.10232
7.7 1.00887
7.71 0.903482
7.72 0.789433
7.73 0.669869
7.74 0.547366
7.75 0.424929
7.76 0.305208
7.77 0.19042
7.78 0.0825105
7.79 -0.0161654
7.8 -0.105289
7.81 -0.181999
7.82 -0.247087
7.83 -0.299111
7.84 -0.337918
7.85 -0.364295
7.86 -0.37698
7.87 -0.378381
7.88 -0.367915
7.89 -0.347584
7.9 -0.318555
7.91 -0.282064
7.92 -0.240501
7.93 -0.195184
7.94 -0.148638
7.95 -0.102795
7.96 -0.059922
7.97 -0.021681
7.98 0.00916489
7.99 0.0320281
8 0.0444475
8.01 0.0460911
8.02 0.036279
8.03 0.0141142
8.04 -0.0188472
8.05 -0.0636009
8.06 -0.117487
8.07 -0.17978
8.08 -0.248474
8.09 -0.321394
8.1 -0.396684
8.11 -0.472014
8.12 -0.545318
8.13 -0.614866
8.14 -0.679234
8.15 -0.736858
8.16 -0.787819
8.17 -0.830716
8.18 -0.866756
8.19 -0.895929
8.2 -0.919219
8.21 -0.937939
8.22 -0.95284
8.23 -0.965544
8.24 -0.976812
8.25 -0.987504
8.26 -0.997932
8.27 -1.00792
8.28 -1.0169
8.29 -1.0233
8.3 -1.02564
8.31 -1.02135
8.32 -1.00752
8.33 -0.981999
8.34 -0.93968
8.35 -0.879928
8.36 -0.797613
8.37 -0.691878
8.38 -0.560976
8.39 -0.402407
8.4 -0.21921
8.41 -0.00857392
8.42 0.223748
8.43 0.476256
8.44 0.744141
8.45 1.0218
8.46 1.3037
8.47 1.58308
8.48 1.85256
8.49 2.10565
8.5 2.33604
8.51 2.53545
8.52 2.70231
8.53 2.82623
8.54 2.9094
8.55 2.94665
8.56 2.93747
8.57 2.88515
8.58 2.78617
8.59 2.6499
8.6 2.47598
8.61 2.27242
8.62 2.04452
8.63 1.79785
8.64 1.54037
8.65 1.27755
8.66 1.01628
8.67 0.762183
8.68 0.520666
8.69 0.294786
8.7 0.090408
8.71 -0.09318
8.72 -0.251926
8.73 -0.387122
8.74 -0.49905
8.75 -0.587637
8.76 -0.657088
8.77 -0.706878
8.78 -0.742198
8.79 -0.764689
8.8 -0.77754
8.81 -0.783831
8.82 -0.785611
8.83 -0.78564
8.84 -0.785635
8.85 -0.787146
8.86 -0.791174
8.87 -0.798619
8.88 -0.809375
8.89 -0.823952
8.9 -0.841558
8.91 -0.861943
8.92 -0.884408
8.93 -0.908199
8.94 -0.932691
8.95 -0.957157
8.96 -0.980998
8.97 -1.00377
8.98 -1.02514
8.99 -1.04477
9 -1.06276
9.01 -1.07882
9.02 -1.09328
9.03 -1.1061
9.04 -1.11742
9.05 -1.12742
9.06 -1.13598
9.07 -1.14327
9.08 -1.14902
9.09 -1.15309
9.1 -1.1552
9.11 -1.15475
9.12 -1.15159
9.13 -1.14467
9.14 -1.13388
9.15 -1.11838
9.16 -1.09761
9.17 -1.0715
9.18 -1.03892
9.19 -1.00056
9.2 -0.955673
9.21 -0.904886
9.22 -0.848532
9.23 -0.786938
9.24 -0.72142
9.25 -0.652477
9.26 -0.581747
9.27 -0.510394
9.28 -0.439987
9.29 -0.371814
9.3 -0.307885
9.31 -0.248986
9.32 -0.197109
9.33 -0.152973
9.34 -0.117464
9.35 -0.0918586
9.36 -0.0753991
9.37 -0.0696155
9.38 -0.072863
9.39 -0.0852256
9.4 -0.10569
9.41 -0.132713
9.42 -0.165627
9.43 -0.20218
9.44 -0.241195
9.45 -0.280831
9.46 -0.319661
9.47 -0.356066
9.48 -0.389215
9.49 -0.417511
9.5 -0.440902
9.51 -0.458687
9.52 -0.470847
9.53 -0.477976
9.54 -0.480023
9.55 -0.478445
9.56 -0.473793
9.57 -0.467428
9.58 -0.460422
9.59 -0.454015
9.6 -0.449106
9.61 -0.446975
9.62 -0.448014
9.63 -0.452959
9.64 -0.462113
9.65 -0.475265
9.66 -0.492773
9.67 -0.513698
9.68 -0.537949
9.69 -0.564665
9.7 -0.593236
9.71 -0.623037
9.72 -0.653365
9.73 -0.683693
9.74 -0.713568
9.75 -0.742617
9.76 -0.770555
9.77 -0.797263
9.78 -0.822344
9.79 -0.845788
9.8 -0.867019
9.81 -0.885614
9.82 -0.900834
9.83 -0.91124
9.84 -0.916063
9.85 -0.912399
9.86 -0.899155
9.87 -0.873252
9.88 -0.831778
9.89 -0.77314
9.9 -0.69167
9.91 -0.587864
9.92 -0.456355
9.93 -0.296836
9.94 -0.107929
9.95 0.113
9.96 0.362181
9.97 0.642753
9.98 0.9484
9.99 1.27757
10 1.62528
10.01 1.98538
10.02 2.35224
10.03 2.71817
10.04 3.07531
10.05 3.41611
10.06 3.73339
10.07 4.01736
10.08 4.26558
10.09 4.4657
10.1 4.61896
10.11 4.71864
10.12 4.7626
10.13 4.75391
10.14 4.68639
10.15 4.57052
10.16 4.40419
10.17 4.19602
10.18 3.95161
10.19 3.67627
10.2 3.38015
10.21 3.06837
10.22 2.75049
10.23 2.43303
10.24 2.12326
10.25 1.82599
10.26 1.54861
10.27 1.29207
10.28 1.06176
10.29 0.857624
10.3 0.680088
10.31 0.530252
10.32 0.40367
10.33 0.30154
10.34 0.21792
10.35 0.150945
10.36 0.0967733
10.37 0.0513779
10.38 0.012062
10.39 -0.0250125
10.4 -0.0623645
10.41 -0.102327
10.42 -0.146475
10.43 -0.196348
10.44 -0.251817
10.45 -0.3138
10.46 -0.381015
10.47 -0.452976
10.48 -0.528365
10.49 -0.605659
10.5 -0.6833
10.51 -0.759666
10.52 -0.832939
10.53 -0.901721
10.54 -0.964746
10.55 -1.02032
10.56 -1.06844
10.57 -1.10713
10.58 -1.13715
10.59 -1.15773
10.6 -1.16895
10.61 -1.17168
10.62 -1.1653
10.63 -1.15167
10.64 -1.1307
10.65 -1.10378
10.66 -1.0718
10.67 -1.03555
10.68 -0.996446
10.69 -0.95517
10.7 -0.913003
10.71 -0.870815
10.72 -0.829599
10.73 -0.790045
10.74 -0.753254
10.75 -0.719474
10.76 -0.689647
10.77 -0.66399
10.78 -0.642813
10.79 -0.626666
10.8 -0.615093
10.81 -0.608833
10.82 -0.607143
10.83 -0.610171
10.84 -0.617647
10.85 -0.629001
10.86 -0.644373
10.87 -0.662837
10.88 -0.68436
10.89 -0.708316
10.9 -0.734318
10.91 -0.762046
10.92 -0.790943
10.93 -0.820766
10.94 -0.851019
10.95 -0.881378
10.96 -0.911449
10.97 -0.940932
10.98 -0.969346
10.99 -0.996518
11 -1.02197
11.01 -1.04549
11.02 -1.06684
11.03 -1.08564
11.04 -1.10203
11.05 -1.11553
11.06 -1.12651
11.07 -1.13487
11.08 -1.14082
11.09 -1.14476
11.1 -1.14681
11.11 -1.14762
11.12 -1.14746
11.13 -1.14682
11.14 -1.14603
11.15 -1.14533
11.16 -1.14481
11.17 -1.14437
11.18 -1.14362
11.19 -1.14193
11.2 -1.13828
11.21 -1.13171
11.22 -1.12006
11.23 -1.10237
11.24 -1.07588
11.25 -1.03898
11.26 -0.989747
11.27 -0.925086
11.28 -0.845072
11.29 -0.745603
11.3 -0.62798
11.31 -0.49047
11.32 -0.333151
11.33 -0.158065
11.34 0.0355716
11.35 0.242992
11.36 0.46284
11.37 0.690515
11.38 0.922093
11.39 1.15263
11.4 1.37775
11.41 1.59097
11.42 1.78871
11.43 1.96539
11.44 2.11627
11.45 2.23979
11.46 2.32866
11.47 2.38575
11.48 2.40603
11.49 2.39167
11.5 2.3436
11.51 2.26155
11.52 2.15185
11.53 2.014
11.54 1.85556
11.55 1.67957
11.56 1.49126
11.57 1.29588
11.58 1.09789
11.59 0.901953
11.6 0.712422
11.61 0.532509
11.62 0.36473
11.63 0.212192
11.64 0.0743137
11.65 -0.0460447
11.66 -0.151231
11.67 -0.241063
11.68 -0.316998
11.69 -0.381585
11.7 -0.435531
11.71 -0.4824
11.72 -0.523517
11.73 -0.561341
11.74 -0.597515
11.75 -0.633509
11.76 -0.670266
11.77 -0.708517
11.78 -0.748164
11.79 -0.788936
11.8 -0.829968
11.81 -0.8702
11.82 -0.907842
11.83 -0.941648
11.84 -0.969315
11.85 -0.989299
11.86 -1
11.87 -0.998967
11.88 -0.986268
11.89 -0.95888
11.9 -0.917853
11.91 -0.861994
11.92 -0.791359
11.93 -0.707443
11.94 -0.609405
11.95 -0.500508
11.96 -0.381153
11.97 -0.254081
11.98 -0.121426
11.99 0.0144548
12 0.150833
12.01 0.284869
12.02 0.414199
12.03 0.536085
12.04 0.647919
12.05 0.748478
12.06 0.834006
12.07 0.90517
12.08 0.959077
12.09 0.996018
12.1 1.01582
12.11 1.01745
12.12 1.0035
12.13 0.972625
12.14 0.928231
12.15 0.871066
12.16 0.80319
12.17 0.727256
12.18 0.644632
12.19 0.558399
12.2 0.470312
12.21 0.382595
12.22 0.296899
12.23 0.215059
12.24 0.137712
12.25 0.0664634
12.26 0.00102538
12.27 -0.0581641
12.28 -0.11137
12.29 -0.159522
12.3 -0.202804
12.31 -0.242837
12.32 -0.280302
12.33 -0.316466
12.34 -0.352245
12.35 -0.388533
12.36 -0.425818
12.37 -0.464606
12.38 -0.504713
12.39 -0.545896
12.4 -0.587432
12.41 -0.628423
12.42 -0.667371
