# xPDFsuite Configuration #
[PDF]
wavelength = 0.1432
dataformat = twotheta
inputfile = 1_1Pd_CeO2_cycle-00426.chi
backgroundfile = background-00000.chi
mode = xray
bgscale = 1.007
composition = CeO2
outputtype = gr
qmaxinst = 28.8974762299
qmin = 0.5
qmax = 27.9
rmax = 50.0
rmin = 0.0
rstep = 0.01
rpoly = 1.8657

[Misc]
inputdir = G:/SankarDec16/1Pd/Chi
savedir = D:/DATA/APS_CeO2/1Pd
backgroundfilefull = G:/SankarDec16/Background/background-00000.chi

#### start data
#S 1
#L r($\AA$)  G($\AA^{-2}$)
0 0
0.01 -0.00541784
0.02 -0.0104281
0.03 -0.0146111
0.04 -0.0176505
0.05 -0.0193703
0.06 -0.0194872
0.07 -0.018189
0.08 -0.0153841
0.09 -0.0114314
0.1 -0.00657897
0.11 -0.00120697
0.12 0.00426923
0.13 0.00938438
0.14 0.0138074
0.15 0.0171337
0.16 0.0191254
0.17 0.0196866
0.18 0.0186227
0.19 0.0162092
0.2 0.0124549
0.21 0.00777801
0.22 0.00248687
0.23 -0.00299182
0.24 -0.00826634
0.25 -0.0128353
0.26 -0.0164593
0.27 -0.0187679
0.28 -0.0196124
0.29 -0.0189819
0.3 -0.0167795
0.31 -0.0133559
0.32 -0.0088197
0.33 -0.00362937
0.34 0.00186072
0.35 0.00719685
0.36 0.0120292
0.37 0.0158438
0.38 0.0185037
0.39 0.0196903
0.4 0.019351
0.41 0.0175606
0.42 0.014325
0.43 0.0100535
0.44 0.00495037
0.45 -0.000507054
0.46 -0.00593488
0.47 -0.010873
0.48 -0.0150303
0.49 -0.0179037
0.5 -0.0194657
0.51 -0.0194644
0.52 -0.0179463
0.53 -0.0150687
0.54 -0.0109404
0.55 -0.00601092
0.56 -0.000570431
0.57 0.00490634
0.58 0.010024
0.59 0.0143373
0.6 0.0176274
0.61 0.0194261
0.62 0.0198167
0.63 0.0186261
0.64 0.0159984
0.65 0.0121663
0.66 0.00733709
0.67 0.00197986
0.68 -0.00354238
0.69 -0.00877933
0.7 -0.0133425
0.71 -0.0168217
0.72 -0.0190811
0.73 -0.0197083
0.74 -0.0188942
0.75 -0.016552
0.76 -0.0129164
0.77 -0.00828446
0.78 -0.00295151
0.79 0.00261594
0.8 0.00800051
0.81 0.0127974
0.82 0.0166445
0.83 0.0191865
0.84 0.0203766
0.85 0.0198789
0.86 0.0179809
0.87 0.0146855
0.88 0.0103042
0.89 0.00518117
0.9 -0.00031939
0.91 -0.0057606
0.92 -0.0106998
0.93 -0.0148039
0.94 -0.0177644
0.95 -0.0193109
0.96 -0.0194932
0.97 -0.0180912
0.98 -0.0154743
0.99 -0.0117531
1 -0.00730753
1.01 -0.002514
1.02 0.00219739
1.03 0.0064567
1.04 0.0098098
1.05 0.0120333
1.06 0.0129018
1.07 0.0122678
1.08 0.0103081
1.09 0.00697015
1.1 0.00272799
1.11 -0.00214903
1.12 -0.00717508
1.13 -0.0119135
1.14 -0.0157964
1.15 -0.0185231
1.16 -0.0195429
1.17 -0.0187394
1.18 -0.0159262
1.19 -0.0110295
1.2 -0.00438164
1.21 0.00399934
1.22 0.0134522
1.23 0.023585
1.24 0.0337584
1.25 0.0434133
1.26 0.0518075
1.27 0.0585774
1.28 0.0629881
1.29 0.0648777
1.3 0.0639551
1.31 0.0600279
1.32 0.0534583
1.33 0.0440403
1.34 0.0325538
1.35 0.0192556
1.36 0.00479669
1.37 -0.0102227
1.38 -0.0251523
1.39 -0.0394352
1.4 -0.0523915
1.41 -0.0636494
1.42 -0.0728028
1.43 -0.0794782
1.44 -0.0837874
1.45 -0.0852774
1.46 -0.0844405
1.47 -0.0812062
1.48 -0.0759008
1.49 -0.0688706
1.5 -0.0602966
1.51 -0.050688
1.52 -0.0402459
1.53 -0.0293591
1.54 -0.0182728
1.55 -0.00724453
1.56 0.00354851
1.57 0.0138641
1.58 0.0236237
1.59 0.0326375
1.6 0.0407858
1.61 0.0479818
1.62 0.0539646
1.63 0.0587514
1.64 0.0620141
1.65 0.0637337
1.66 0.0637338
1.67 0.0618199
1.68 0.0581114
1.69 0.052263
1.7 0.044629
1.71 0.0351419
1.72 0.0240604
1.73 0.0116945
1.74 -0.00170341
1.75 -0.0156214
1.76 -0.0296586
1.77 -0.0433255
1.78 -0.0561835
1.79 -0.0677401
1.8 -0.0778109
1.81 -0.0858372
1.82 -0.0919744
1.83 -0.0960115
1.84 -0.0981178
1.85 -0.0985766
1.86 -0.0975921
1.87 -0.0957487
1.88 -0.0934404
1.89 -0.0912312
1.9 -0.0895861
1.91 -0.0890088
1.92 -0.0897007
1.93 -0.0921369
1.94 -0.0961315
1.95 -0.101751
1.96 -0.108682
1.97 -0.116504
1.98 -0.124701
1.99 -0.132623
2 -0.13948
2.01 -0.144612
2.02 -0.147304
2.03 -0.146755
2.04 -0.142812
2.05 -0.134437
2.06 -0.122063
2.07 -0.105252
2.08 -0.084263
2.09 -0.059533
2.1 -0.0311427
2.11 -6.73374e-05
2.12 0.0334257
2.13 0.0684773
2.14 0.104561
2.15 0.141118
2.16 0.177699
2.17 0.213924
2.18 0.249642
2.19 0.284722
2.2 0.319203
2.21 0.353199
2.22 0.386813
2.23 0.420219
2.24 0.453479
2.25 0.486587
2.26 0.519401
2.27 0.551559
2.28 0.582685
2.29 0.61182
2.3 0.638418
2.31 0.661265
2.32 0.679312
2.33 0.69176
2.34 0.6968
2.35 0.694514
2.36 0.683115
2.37 0.662918
2.38 0.633547
2.39 0.594853
2.4 0.548275
2.41 0.493516
2.42 0.433031
2.43 0.367793
2.44 0.299838
2.45 0.231014
2.46 0.163431
2.47 0.0986789
2.48 0.0389334
2.49 -0.0147787
2.5 -0.0612934
2.51 -0.0995744
2.52 -0.130234
2.53 -0.152183
2.54 -0.167304
2.55 -0.175909
2.56 -0.17954
2.57 -0.179756
2.58 -0.177978
2.59 -0.175935
2.6 -0.175126
2.61 -0.176713
2.62 -0.181639
2.63 -0.190684
2.64 -0.203614
2.65 -0.220884
2.66 -0.241314
2.67 -0.264361
2.68 -0.288785
2.69 -0.313407
2.7 -0.336813
2.71 -0.358039
2.72 -0.375711
2.73 -0.389353
2.74 -0.398461
2.75 -0.402771
2.76 -0.403041
2.77 -0.399334
2.78 -0.393198
2.79 -0.385592
2.8 -0.378015
2.81 -0.371735
2.82 -0.368398
2.83 -0.368687
2.84 -0.37399
2.85 -0.384373
2.86 -0.400022
2.87 -0.420758
2.88 -0.445371
2.89 -0.473212
2.9 -0.502375
2.91 -0.531373
2.92 -0.558357
2.93 -0.581891
2.94 -0.599894
2.95 -0.611964
2.96 -0.616459
2.97 -0.613713
2.98 -0.60374
2.99 -0.587023
3 -0.565303
3.01 -0.539533
3.02 -0.512164
3.03 -0.485056
3.04 -0.460433
3.05 -0.439963
3.06 -0.426022
3.07 -0.418963
3.08 -0.420539
3.09 -0.430217
3.1 -0.447822
3.11 -0.472628
3.12 -0.502597
3.13 -0.536478
3.14 -0.571587
3.15 -0.60583
3.16 -0.636867
3.17 -0.663043
3.18 -0.682003
3.19 -0.693684
3.2 -0.696623
3.21 -0.691798
3.22 -0.679867
3.23 -0.662198
3.24 -0.641184
3.25 -0.619
3.26 -0.598401
3.27 -0.582103
3.28 -0.572614
3.29 -0.571494
3.3 -0.581379
3.31 -0.601565
3.32 -0.633436
3.33 -0.675119
3.34 -0.725296
3.35 -0.781732
3.36 -0.841192
3.37 -0.900455
3.38 -0.956168
3.39 -1.00477
3.4 -1.04323
3.41 -1.06987
3.42 -1.08152
3.43 -1.07952
3.44 -1.06242
3.45 -1.03294
3.46 -0.993026
3.47 -0.945719
3.48 -0.895125
3.49 -0.845308
3.5 -0.800162
3.51 -0.763736
3.52 -0.739068
3.53 -0.72747
3.54 -0.731288
3.55 -0.747825
3.56 -0.776369
3.57 -0.81185
3.58 -0.849336
3.59 -0.881478
3.6 -0.901933
3.61 -0.899215
3.62 -0.868251
3.63 -0.798469
3.64 -0.682912
3.65 -0.518248
3.66 -0.294126
3.67 -0.0164707
3.68 0.321428
3.69 0.711224
3.7 1.14859
3.71 1.62638
3.72 2.13095
3.73 2.65259
3.74 3.17501
3.75 3.68375
3.76 4.16287
3.77 4.60038
3.78 4.97596
3.79 5.28643
3.8 5.51275
3.81 5.65463
3.82 5.70636
3.83 5.66274
3.84 5.53537
3.85 5.31566
3.86 5.02449
3.87 4.66517
3.88 4.25211
3.89 3.79989
3.9 3.31992
3.91 2.82912
3.92 2.34032
3.93 1.86634
3.94 1.41783
3.95 1.00609
3.96 0.633629
3.97 0.312552
3.98 0.0379353
3.99 -0.185769
4 -0.36157
4.01 -0.494859
4.02 -0.586222
4.03 -0.646639
4.04 -0.678635
4.05 -0.691348
4.06 -0.690313
4.07 -0.68133
4.08 -0.669696
4.09 -0.659521
4.1 -0.653471
4.11 -0.65365
4.12 -0.660697
4.13 -0.674068
4.14 -0.693292
4.15 -0.716016
4.16 -0.740512
4.17 -0.764264
4.18 -0.785118
4.19 -0.800619
4.2 -0.809728
4.21 -0.809836
4.22 -0.801379
4.23 -0.783243
4.24 -0.755765
4.25 -0.719872
4.26 -0.675563
4.27 -0.624969
4.28 -0.568511
4.29 -0.507937
4.3 -0.44424
4.31 -0.378384
4.32 -0.311319
4.33 -0.243522
4.34 -0.175489
4.35 -0.107418
4.36 -0.0394342
4.37 0.0284079
4.38 0.0959941
4.39 0.163191
4.4 0.229603
4.41 0.29475
4.42 0.357908
4.43 0.417909
4.44 0.474035
4.45 0.524124
4.46 0.567624
4.47 0.602557
4.48 0.627652
4.49 0.642323
4.5 0.644314
4.51 0.634758
4.52 0.611928
4.53 0.577177
4.54 0.530928
4.55 0.473868
4.56 0.408437
4.57 0.33523
4.58 0.257313
4.59 0.176313
4.6 0.0945652
4.61 0.0139366
4.62 -0.0633649
4.63 -0.136322
4.64 -0.203096
4.65 -0.263345
4.66 -0.316553
4.67 -0.362349
4.68 -0.401782
4.69 -0.434471
4.7 -0.462197
4.71 -0.48548
4.72 -0.505538
4.73 -0.523464
4.74 -0.540072
4.75 -0.556272
4.76 -0.572616
4.77 -0.589457
4.78 -0.606923
4.79 -0.624942
4.8 -0.643213
4.81 -0.661314
4.82 -0.678778
4.83 -0.695042
4.84 -0.709609
4.85 -0.722199
4.86 -0.732268
4.87 -0.740042
4.88 -0.745275
4.89 -0.748407
4.9 -0.749753
4.91 -0.749776
4.92 -0.749129
4.93 -0.748385
4.94 -0.748138
4.95 -0.74894
4.96 -0.75122
4.97 -0.755162
4.98 -0.761113
4.99 -0.768779
5 -0.778203
5.01 -0.788926
5.02 -0.800598
5.03 -0.812757
5.04 -0.824931
5.05 -0.836616
5.06 -0.847498
5.07 -0.857213
5.08 -0.865564
5.09 -0.872518
5.1 -0.877878
5.11 -0.881879
5.12 -0.884381
5.13 -0.885508
5.14 -0.885161
5.15 -0.883028
5.16 -0.87895
5.17 -0.871924
5.18 -0.861552
5.19 -0.846542
5.2 -0.82568
5.21 -0.798053
5.22 -0.761265
5.23 -0.715246
5.24 -0.65749
5.25 -0.587917
5.26 -0.505737
5.27 -0.410121
5.28 -0.30277
5.29 -0.182752
5.3 -0.0533542
5.31 0.0841387
5.32 0.226645
5.33 0.370991
5.34 0.513278
5.35 0.650121
5.36 0.776654
5.37 0.889668
5.38 0.985551
5.39 1.0599
5.4 1.11264
5.41 1.13798
5.42 1.13867
5.43 1.11241
5.44 1.06046
5.45 0.985579
5.46 0.887749
5.47 0.772966
5.48 0.642823
5.49 0.50275
5.5 0.356574
5.51 0.208724
5.52 0.0630439
5.53 -0.0758852
5.54 -0.2058
5.55 -0.323394
5.56 -0.426806
5.57 -0.515675
5.58 -0.587686
5.59 -0.645266
5.6 -0.687322
5.61 -0.716391
5.62 -0.733781
5.63 -0.74092
5.64 -0.740578
5.65 -0.733546
5.66 -0.722355
5.67 -0.707947
5.68 -0.691453
5.69 -0.673555
5.7 -0.654377
5.71 -0.634015
5.72 -0.611936
5.73 -0.587705
5.74 -0.560683
5.75 -0.530019
5.76 -0.495619
5.77 -0.456486
5.78 -0.413222
5.79 -0.365753
5.8 -0.314832
5.81 -0.261533
5.82 -0.207053
5.83 -0.153035
5.84 -0.101367
5.85 -0.0537664
5.86 -0.0119836
5.87 0.0218233
5.88 0.0471994
5.89 0.0614751
5.9 0.0654636
5.91 0.058028
5.92 0.0395493
5.93 0.0111756
5.94 -0.0271182
5.95 -0.0726947
5.96 -0.124794
5.97 -0.18103
5.98 -0.239721
5.99 -0.298987
6 -0.35728
6.01 -0.412848
6.02 -0.464975
6.03 -0.512652
6.04 -0.555543
6.05 -0.593884
6.06 -0.627467
6.07 -0.657476
6.08 -0.684249
6.09 -0.708957
6.1 -0.73242
6.11 -0.755512
6.12 -0.778908
6.13 -0.803227
6.14 -0.828597
6.15 -0.855103
6.16 -0.882451
6.17 -0.910159
6.18 -0.937521
6.19 -0.963853
6.2 -0.988175
6.21 -1.00985
6.22 -1.02822
6.23 -1.0426
6.24 -1.05318
6.25 -1.05934
6.26 -1.06192
6.27 -1.06108
6.28 -1.05755
6.29 -1.05211
6.3 -1.04532
6.31 -1.03788
6.32 -1.03002
6.33 -1.02172
6.34 -1.01248
6.35 -1.00109
6.36 -0.986348
6.37 -0.965204
6.38 -0.935807
6.39 -0.894361
6.4 -0.837235
6.41 -0.761931
6.42 -0.662009
6.43 -0.537531
6.44 -0.382214
6.45 -0.196089
6.46 0.0224791
6.47 0.275477
6.48 0.558357
6.49 0.873472
6.5 1.21276
6.51 1.57334
6.52 1.94813
6.53 2.32971
6.54 2.70957
6.55 3.07961
6.56 3.42911
6.57 3.75029
6.58 4.03478
6.59 4.27192
6.6 4.46066
6.61 4.58686
6.62 4.6552
6.63 4.65891
6.64 4.59861
6.65 4.47925
6.66 4.29734
6.67 4.06609
6.68 3.78584
6.69 3.46834
6.7 3.12115
6.71 2.75286
6.72 2.37409
6.73 1.99344
6.74 1.61978
6.75 1.26134
6.76 0.925335
6.77 0.615671
6.78 0.340589
6.79 0.098195
6.8 -0.105693
6.81 -0.273813
6.82 -0.406741
6.83 -0.50491
6.84 -0.574694
6.85 -0.61543
6.86 -0.635006
6.87 -0.635741
6.88 -0.622362
6.89 -0.599215
6.9 -0.569161
6.91 -0.53607
6.92 -0.502199
6.93 -0.469667
6.94 -0.439807
6.95 -0.41376
6.96 -0.391514
6.97 -0.373786
6.98 -0.359783
6.99 -0.34947
7 -0.342368
7.01 -0.337957
7.02 -0.336255
7.03 -0.336763
7.04 -0.339795
7.05 -0.345353
7.06 -0.353762
7.07 -0.365641
7.08 -0.381026
7.09 -0.400981
7.1 -0.425231
7.11 -0.454307
7.12 -0.488142
7.13 -0.526255
7.14 -0.568632
7.15 -0.614003
7.16 -0.661769
7.17 -0.710582
7.18 -0.7593
7.19 -0.806494
7.2 -0.851207
7.21 -0.891764
7.22 -0.927787
7.23 -0.958243
7.24 -0.982769
7.25 -1.00162
7.26 -1.01435
7.27 -1.02227
7.28 -1.02559
7.29 -1.02564
7.3 -1.02339
7.31 -1.01989
7.32 -1.01618
7.33 -1.01312
7.34 -1.01116
7.35 -1.01058
7.36 -1.01117
7.37 -1.01233
7.38 -1.01301
7.39 -1.01198
7.4 -1.00728
7.41 -0.997206
7.42 -0.979831
7.43 -0.952493
7.44 -0.914553
7.45 -0.862415
7.46 -0.796699
7.47 -0.71555
7.48 -0.618875
7.49 -0.507881
7.5 -0.381877
7.51 -0.244446
7.52 -0.0964165
7.53 0.0585741
7.54 0.21764
7.55 0.377149
7.56 0.533773
7.57 0.682926
7.58 0.822067
7.59 0.947224
7.6 1.05541
7.61 1.1454
7.62 1.21277
7.63 1.25942
7.64 1.28211
7.65 1.28268
7.66 1.26162
7.67 1.21913
7.68 1.15913
7.69 1.08121
7.7 0.990246
7.71 0.887854
7.72 0.777222
7.73 0.66141
7.74 0.542941
7.75 0.424696
7.76 0.309239
7.77 0.198666
7.78 0.0948133
7.79 -0.000109591
7.8 -0.0858625
7.81 -0.159781
7.82 -0.22269
7.83 -0.273285
7.84 -0.311488
7.85 -0.338079
7.86 -0.351921
7.87 -0.355274
7.88 -0.347599
7.89 -0.330743
7.9 -0.305758
7.91 -0.273741
7.92 -0.236876
7.93 -0.1963
7.94 -0.154339
7.95 -0.112729
7.96 -0.0735545
7.97 -0.0383773
7.98 -0.00975434
7.99 0.0116746
8 0.0235679
8.01 0.0254957
8.02 0.0167119
8.03 -0.00377057
8.04 -0.0346054
8.05 -0.0769144
8.06 -0.128268
8.07 -0.188115
8.08 -0.254633
8.09 -0.32576
8.1 -0.399806
8.11 -0.474419
8.12 -0.547597
8.13 -0.617508
8.14 -0.682627
8.15 -0.741234
8.16 -0.793208
8.17 -0.836904
8.18 -0.873327
8.19 -0.902223
8.2 -0.92437
8.21 -0.940996
8.22 -0.952623
8.23 -0.961015
8.24 -0.966857
8.25 -0.971238
8.26 -0.974664
8.27 -0.977243
8.28 -0.978765
8.29 -0.978088
8.3 -0.97409
8.31 -0.964657
8.32 -0.947293
8.33 -0.920052
8.34 -0.87836
8.35 -0.821429
8.36 -0.744475
8.37 -0.646416
8.38 -0.525365
8.39 -0.378646
8.4 -0.20874
8.41 -0.0125505
8.42 0.204846
8.43 0.442461
8.44 0.696114
8.45 0.960666
8.46 1.23133
8.47 1.5015
8.48 1.76441
8.49 2.01364
8.5 2.243
8.51 2.44438
8.52 2.61573
8.53 2.7468
8.54 2.83908
8.55 2.88714
8.56 2.88992
8.57 2.85018
8.58 2.76388
8.59 2.63991
8.6 2.47741
8.61 2.28407
8.62 2.06493
8.63 1.82526
8.64 1.57313
8.65 1.31378
8.66 1.05444
8.67 0.800814
8.68 0.558581
8.69 0.331132
8.7 0.124568
8.71 -0.0614514
8.72 -0.222619
8.73 -0.359985
8.74 -0.473665
8.75 -0.563437
8.76 -0.633532
8.77 -0.683371
8.78 -0.718314
8.79 -0.740113
8.8 -0.752158
8.81 -0.757722
8.82 -0.759103
8.83 -0.759202
8.84 -0.759962
8.85 -0.763008
8.86 -0.769399
8.87 -0.780084
8.88 -0.7948
8.89 -0.814026
8.9 -0.8367
8.91 -0.86238
8.92 -0.890088
8.93 -0.918833
8.94 -0.94765
8.95 -0.975675
8.96 -1.00201
8.97 -1.02612
8.98 -1.04762
8.99 -1.06607
9 -1.08177
9.01 -1.09441
9.02 -1.10464
9.03 -1.11261
9.04 -1.11875
9.05 -1.12354
9.06 -1.12718
9.07 -1.13006
9.08 -1.13223
9.09 -1.13369
9.1 -1.13428
9.11 -1.13356
9.12 -1.13122
9.13 -1.1263
9.14 -1.11841
9.15 -1.1066
9.16 -1.09006
9.17 -1.06843
9.18 -1.04032
9.19 -1.0062
9.2 -0.965035
9.21 -0.917281
9.22 -0.863134
9.23 -0.802767
9.24 -0.737575
9.25 -0.667941
9.26 -0.595719
9.27 -0.52214
9.28 -0.448961
9.29 -0.377683
9.3 -0.310511
9.31 -0.248448
9.32 -0.193693
9.33 -0.147121
9.34 -0.109742
9.35 -0.0829663
9.36 -0.0659961
9.37 -0.060463
9.38 -0.0645753
9.39 -0.0783764
9.4 -0.100722
9.41 -0.129916
9.42 -0.165158
9.43 -0.204034
9.44 -0.245225
9.45 -0.286779
9.46 -0.327186
9.47 -0.364742
9.48 -0.398642
9.49 -0.427238
9.5 -0.450578
9.51 -0.468002
9.52 -0.479586
9.53 -0.486024
9.54 -0.48736
9.55 -0.485139
9.56 -0.479994
9.57 -0.473329
9.58 -0.46624
9.59 -0.45997
9.6 -0.455366
9.61 -0.453662
9.62 -0.455149
9.63 -0.460468
9.64 -0.469805
9.65 -0.482863
9.66 -0.499851
9.67 -0.519813
9.68 -0.542545
9.69 -0.567198
9.7 -0.593173
9.71 -0.61986
9.72 -0.646686
9.73 -0.673184
9.74 -0.699079
9.75 -0.724135
9.76 -0.748238
9.77 -0.771404
9.78 -0.793447
9.79 -0.814411
9.8 -0.833896
9.81 -0.851506
9.82 -0.866536
9.83 -0.877599
9.84 -0.883801
9.85 -0.882282
9.86 -0.871761
9.87 -0.849097
9.88 -0.81125
9.89 -0.756495
9.9 -0.679076
9.91 -0.579379
9.92 -0.45197
9.93 -0.2965
9.94 -0.111578
9.95 0.10542
9.96 0.350685
9.97 0.627296
9.98 0.928875
9.99 1.2538
10 1.59702
10.01 1.95235
10.02 2.31414
10.03 2.67475
10.04 3.02635
10.05 3.36153
10.06 3.67324
10.07 3.95193
10.08 4.19532
10.09 4.39142
10.1 4.54162
10.11 4.63953
10.12 4.68327
10.13 4.67597
10.14 4.61185
10.15 4.5012
10.16 4.34212
10.17 4.14301
10.18 3.90934
10.19 3.64623
10.2 3.36335
10.21 3.06556
10.22 2.76185
10.23 2.45831
10.24 2.16166
10.25 1.87632
10.26 1.60903
10.27 1.36062
10.28 1.13592
10.29 0.934828
10.3 0.75769
10.31 0.605457
10.32 0.474126
10.33 0.364805
10.34 0.272225
10.35 0.194827
10.36 0.129332
10.37 0.0722693
10.38 0.0215393
10.39 -0.0262089
10.4 -0.0728898
10.41 -0.120475
10.42 -0.170231
10.43 -0.223312
10.44 -0.279766
10.45 -0.340185
10.46 -0.403759
10.47 -0.470117
10.48 -0.538347
10.49 -0.607428
10.5 -0.676236
10.51 -0.743738
10.52 -0.808648
10.53 -0.870049
10.54 -0.927069
10.55 -0.978495
10.56 -1.02432
10.57 -1.06302
10.58 -1.09505
10.59 -1.11967
10.6 -1.13671
10.61 -1.14661
10.62 -1.14847
10.63 -1.14356
10.64 -1.13136
10.65 -1.11276
10.66 -1.08822
10.67 -1.05804
10.68 -1.02352
10.69 -0.984862
10.7 -0.943509
10.71 -0.90022
10.72 -0.856131
10.73 -0.812261
10.74 -0.769872
10.75 -0.729755
10.76 -0.693194
10.77 -0.660887
10.78 -0.63353
10.79 -0.61213
10.8 -0.596408
10.81 -0.587536
10.82 -0.584709
10.83 -0.588201
10.84 -0.597657
10.85 -0.612249
10.86 -0.631994
10.87 -0.655494
10.88 -0.682422
10.89 -0.711719
10.9 -0.742645
10.91 -0.774465
10.92 -0.806451
10.93 -0.837961
10.94 -0.86855
10.95 -0.897779
10.96 -0.925335
10.97 -0.951161
10.98 -0.974904
10.99 -0.996834
11 -1.01677
11.01 -1.03491
11.02 -1.05137
11.03 -1.06617
11.04 -1.07961
11.05 -1.09161
11.06 -1.10246
11.07 -1.11219
11.08 -1.1209
11.09 -1.12876
11.1 -1.13573
11.11 -1.142
11.12 -1.14754
11.13 -1.15241
11.14 -1.15656
11.15 -1.15983
11.16 -1.16214
11.17 -1.16295
11.18 -1.16197
11.19 -1.15844
11.2 -1.15145
11.21 -1.14031
11.22 -1.12304
11.23 -1.09914
11.24 -1.06624
11.25 -1.0232
11.26 -0.968524
11.27 -0.899612
11.28 -0.816742
11.29 -0.716344
11.3 -0.599669
11.31 -0.46518
11.32 -0.312906
11.33 -0.14461
11.34 0.0405531
11.35 0.2384
11.36 0.447884
11.37 0.664964
11.38 0.886185
11.39 1.10718
11.4 1.3239
11.41 1.53049
11.42 1.72348
11.43 1.89762
11.44 2.0483
11.45 2.17378
11.46 2.26695
11.47 2.33016
11.48 2.35826
11.49 2.35291
11.5 2.31467
11.51 2.2428
11.52 2.14319
11.53 2.01486
11.54 1.86508
11.55 1.69652
11.56 1.51419
11.57 1.32329
11.58 1.12804
11.59 0.933387
11.6 0.743625
11.61 0.562262
11.62 0.392047
11.63 0.236334
11.64 0.0948923
11.65 -0.0291488
11.66 -0.137844
11.67 -0.230767
11.68 -0.309156
11.69 -0.375473
11.7 -0.430221
11.71 -0.477068
11.72 -0.517267
11.73 -0.553415
11.74 -0.587272
11.75 -0.620435
11.76 -0.654066
11.77 -0.689058
11.78 -0.725519
11.79 -0.763353
11.8 -0.801875
11.81 -0.84012
11.82 -0.876503
11.83 -0.909755
11.84 -0.937712
11.85 -0.958802
11.86 -0.971419
11.87 -0.973127
11.88 -0.963858
11.89 -0.940612
11.9 -0.904264
11.91 -0.85355
11.92 -0.788401
11.93 -0.710172
11.94 -0.617891
11.95 -0.514675
11.96 -0.400765
11.97 -0.278758
11.98 -0.150654
11.99 -0.0186211
12 0.11465
12.01 0.246554
12.02 0.374693
12.03 0.496442
12.04 0.609213
12.05 0.711689
12.06 0.800179
12.07 0.875097
12.08 0.933492
12.09 0.975412
12.1 1.00048
12.11 1.00741
12.12 0.998563
12.13 0.97229
12.14 0.93183
12.15 0.877701
12.16 0.811795
12.17 0.736756
12.18 0.653767
12.19 0.56613
12.2 0.475593
12.21 0.384635
12.22 0.29514
12.23 0.209231
12.24 0.127868
12.25 0.0530374
12.26 -0.015274
12.27 -0.0762994
12.28 -0.130034
12.29 -0.177344
12.3 -0.21811
12.31 -0.254195
12.32 -0.286212
12.33 -0.315731
12.34 -0.34394
12.35 -0.372077
12.36 -0.401077
12.37 -0.431922
12.38 -0.464847
12.39 -0.500068
