# xPDFsuite Configuration #
[PDF]
wavelength = 0.1432
dataformat = twotheta
inputfile = 1_1Pd_CeO2_cycle-00299.chi
backgroundfile = background-00000.chi
mode = xray
bgscale = 1.007
composition = CeO2
outputtype = gr
qmaxinst = 28.8974762299
qmin = 0.5
qmax = 27.9
rmax = 50.0
rmin = 0.0
rstep = 0.01
rpoly = 1.8657

[Misc]
inputdir = G:/SankarDec16/1Pd/Chi
savedir = D:/DATA/APS_CeO2/1Pd
backgroundfilefull = G:/SankarDec16/Background/background-00000.chi

#### start data
#S 1
#L r($\AA$)  G($\AA^{-2}$)
0 0
0.01 -0.00756677
0.02 -0.0145644
0.03 -0.0204068
0.04 -0.0246524
0.05 -0.0270552
0.06 -0.0272197
0.07 -0.0254084
0.08 -0.0214931
0.09 -0.0159752
0.1 -0.00920099
0.11 -0.00170132
0.12 0.00594384
0.13 0.0130849
0.14 0.0192596
0.15 0.0239031
0.16 0.0266834
0.17 0.0274668
0.18 0.0259816
0.19 0.0226126
0.2 0.0173722
0.21 0.0108442
0.22 0.00345929
0.23 -0.00418694
0.24 -0.0115477
0.25 -0.0179232
0.26 -0.0229794
0.27 -0.0261995
0.28 -0.0273762
0.29 -0.0264944
0.3 -0.0234195
0.31 -0.0186408
0.32 -0.0123106
0.33 -0.00506855
0.34 0.00259059
0.35 0.0100336
0.36 0.0167727
0.37 0.0220905
0.38 0.0257966
0.39 0.0274467
0.4 0.026968
0.41 0.0244652
0.42 0.0199471
0.43 0.0139853
0.44 0.00686498
0.45 -0.00074771
0.46 -0.00831717
0.47 -0.0152017
0.48 -0.0209954
0.49 -0.0249971
0.5 -0.0271691
0.51 -0.0271604
0.52 -0.025037
0.53 -0.0210186
0.54 -0.0152577
0.55 -0.0083817
0.56 -0.000795689
0.57 0.00683841
0.58 0.0139693
0.59 0.0199764
0.6 0.0245554
0.61 0.0270538
0.62 0.027589
0.63 0.0259204
0.64 0.0222498
0.65 0.0169022
0.66 0.0101675
0.67 0.00269949
0.68 -0.00499542
0.69 -0.0122902
0.7 -0.0186439
0.71 -0.0234858
0.72 -0.0266279
0.73 -0.0274969
0.74 -0.0263602
0.75 -0.0230985
0.76 -0.0180401
0.77 -0.0115996
0.78 -0.00418996
0.79 0.00353984
0.8 0.0110079
0.81 0.0176521
0.82 0.0229697
0.83 0.0264683
0.84 0.028086
0.85 0.0273596
0.86 0.0246924
0.87 0.0200944
0.88 0.0140039
0.89 0.00690389
0.9 -0.000691077
0.91 -0.00817283
0.92 -0.0149174
0.93 -0.0204622
0.94 -0.0243758
0.95 -0.0262813
0.96 -0.026254
0.97 -0.0239866
0.98 -0.020005
0.99 -0.0144698
1 -0.00792253
1.01 -0.00089951
1.02 0.00598144
1.03 0.012192
1.04 0.0170733
1.05 0.0202989
1.06 0.021532
1.07 0.0205395
1.08 0.0175622
1.09 0.0124808
1.1 0.00596756
1.11 -0.00163136
1.12 -0.00963989
1.13 -0.0174417
1.14 -0.0242571
1.15 -0.0296252
1.16 -0.0327732
1.17 -0.033487
1.18 -0.0314667
1.19 -0.0265505
1.2 -0.0191443
1.21 -0.00918366
1.22 0.00246277
1.23 0.0153438
1.24 0.0286409
1.25 0.0416267
1.26 0.0533827
1.27 0.0633839
1.28 0.0707171
1.29 0.0751205
1.3 0.0762051
1.31 0.0737003
1.32 0.0680116
1.33 0.0588615
1.34 0.0471725
1.35 0.03323
1.36 0.0177984
1.37 0.00158309
1.38 -0.0146757
1.39 -0.0303191
1.4 -0.0445923
1.41 -0.0570725
1.42 -0.0673223
1.43 -0.0749558
1.44 -0.0801105
1.45 -0.0823481
1.46 -0.0822155
1.47 -0.0796813
1.48 -0.0751148
1.49 -0.0688887
1.5 -0.0612077
1.51 -0.0525653
1.52 -0.0431459
1.53 -0.0332866
1.54 -0.0231743
1.55 -0.0129839
1.56 -0.00283693
1.57 0.00714263
1.58 0.0168912
1.59 0.0262923
1.6 0.035232
1.61 0.0435938
1.62 0.0511028
1.63 0.0576546
1.64 0.0628382
1.65 0.0664843
1.66 0.0682796
1.67 0.0678601
1.68 0.06525
1.69 0.0598968
1.7 0.0521563
1.71 0.0418534
1.72 0.0292633
1.73 0.0147654
1.74 -0.00134779
1.75 -0.0183588
1.76 -0.0357317
1.77 -0.0527465
1.78 -0.068762
1.79 -0.0830427
1.8 -0.0952724
1.81 -0.104604
1.82 -0.111202
1.83 -0.114706
1.84 -0.115304
1.85 -0.113367
1.86 -0.10913
1.87 -0.103441
1.88 -0.0968293
1.89 -0.0901381
1.9 -0.0840574
1.91 -0.0793566
1.92 -0.0764002
1.93 -0.0759544
1.94 -0.077852
1.95 -0.0823131
1.96 -0.0890186
1.97 -0.0974753
1.98 -0.107158
1.99 -0.11718
2 -0.12666
2.01 -0.134705
2.02 -0.14044
2.03 -0.142885
2.04 -0.141771
2.05 -0.135926
2.06 -0.12578
2.07 -0.110869
2.08 -0.091517
2.09 -0.0682511
2.1 -0.041266
2.11 -0.011665
2.12 0.020144
2.13 0.0532166
2.14 0.0869607
2.15 0.120793
2.16 0.15435
2.17 0.187338
2.18 0.219824
2.19 0.251915
2.2 0.283953
2.21 0.316314
2.22 0.349541
2.23 0.383918
2.24 0.419934
2.25 0.457586
2.26 0.496824
2.27 0.53729
2.28 0.57825
2.29 0.618649
2.3 0.6573
2.31 0.692545
2.32 0.722674
2.33 0.746312
2.34 0.760814
2.35 0.765914
2.36 0.758979
2.37 0.740162
2.38 0.708764
2.39 0.664409
2.4 0.608998
2.41 0.542028
2.42 0.466926
2.43 0.385069
2.44 0.299376
2.45 0.212527
2.46 0.127622
2.47 0.0469919
2.48 -0.0261283
2.49 -0.0902135
2.5 -0.143522
2.51 -0.184503
2.52 -0.214075
2.53 -0.23062
2.54 -0.236988
2.55 -0.233696
2.56 -0.223133
2.57 -0.207719
2.58 -0.189751
2.59 -0.171909
2.6 -0.156679
2.61 -0.145925
2.62 -0.141245
2.63 -0.14404
2.64 -0.153958
2.65 -0.172038
2.66 -0.196339
2.67 -0.226206
2.68 -0.259694
2.69 -0.294872
2.7 -0.329578
2.71 -0.361976
2.72 -0.389832
2.73 -0.412027
2.74 -0.427476
2.75 -0.435382
2.76 -0.436598
2.77 -0.430739
2.78 -0.420015
2.79 -0.405547
2.8 -0.389488
2.81 -0.373784
2.82 -0.360803
2.83 -0.351947
2.84 -0.349399
2.85 -0.353716
2.86 -0.365546
2.87 -0.3851
2.88 -0.41097
2.89 -0.442786
2.9 -0.477938
2.91 -0.514662
2.92 -0.550415
2.93 -0.583092
2.94 -0.609837
2.95 -0.629653
2.96 -0.640115
2.97 -0.641206
2.98 -0.632587
2.99 -0.614484
3 -0.588971
3.01 -0.556877
3.02 -0.521452
3.03 -0.484959
3.04 -0.450389
3.05 -0.420099
3.06 -0.397309
3.07 -0.382872
3.08 -0.37933
3.09 -0.38637
3.1 -0.404079
3.11 -0.43186
3.12 -0.467215
3.13 -0.508866
3.14 -0.553239
3.15 -0.597722
3.16 -0.639143
3.17 -0.675144
3.18 -0.70248
3.19 -0.720685
3.2 -0.727535
3.21 -0.723925
3.22 -0.71037
3.23 -0.688257
3.24 -0.66057
3.25 -0.629701
3.26 -0.599361
3.27 -0.572918
3.28 -0.553762
3.29 -0.544141
3.3 -0.547615
3.31 -0.563726
3.32 -0.594555
3.33 -0.638108
3.34 -0.693034
3.35 -0.756843
3.36 -0.825535
3.37 -0.895369
3.38 -0.961948
3.39 -1.02083
3.4 -1.06804
3.41 -1.10119
3.42 -1.11611
3.43 -1.11412
3.44 -1.09312
3.45 -1.05628
3.46 -1.0058
3.47 -0.945348
3.48 -0.8801
3.49 -0.815126
3.5 -0.755599
3.51 -0.706869
3.52 -0.673215
3.53 -0.656754
3.54 -0.661234
3.55 -0.683718
3.56 -0.724366
3.57 -0.777331
3.58 -0.837194
3.59 -0.895684
3.6 -0.944841
3.61 -0.971736
3.62 -0.969393
3.63 -0.925332
3.64 -0.830718
3.65 -0.680938
3.66 -0.463384
3.67 -0.184126
3.68 0.165234
3.69 0.575567
3.7 1.0423
3.71 1.55757
3.72 2.10563
3.73 2.67564
3.74 3.24847
3.75 3.80753
3.76 4.33427
3.77 4.81465
3.78 5.22533
3.79 5.56242
3.8 5.8042
3.81 5.95038
3.82 5.9947
3.83 5.93167
3.84 5.77482
3.85 5.51535
3.86 5.17735
3.87 4.76558
3.88 4.29709
3.89 3.78885
3.9 3.25499
3.91 2.71432
3.92 2.18233
3.93 1.67299
3.94 1.19824
3.95 0.770591
3.96 0.391668
3.97 0.0748278
3.98 -0.187147
3.99 -0.390195
4 -0.53912
4.01 -0.641173
4.02 -0.698541
4.03 -0.724312
4.04 -0.722773
4.05 -0.704598
4.06 -0.676604
4.07 -0.645866
4.08 -0.617721
4.09 -0.597481
4.1 -0.586816
4.11 -0.587929
4.12 -0.600621
4.13 -0.623329
4.14 -0.654859
4.15 -0.691455
4.16 -0.730485
4.17 -0.768361
4.18 -0.802125
4.19 -0.828515
4.2 -0.846278
4.21 -0.852124
4.22 -0.846852
4.23 -0.829249
4.24 -0.800017
4.25 -0.76056
4.26 -0.711205
4.27 -0.65475
4.28 -0.59201
4.29 -0.525206
4.3 -0.455648
4.31 -0.384575
4.32 -0.312975
4.33 -0.241447
4.34 -0.170279
4.35 -0.0995529
4.36 -0.0291444
4.37 0.0411251
4.38 0.111404
4.39 0.181704
4.4 0.251812
4.41 0.321239
4.42 0.389219
4.43 0.454444
4.44 0.515942
4.45 0.571229
4.46 0.619429
4.47 0.658156
4.48 0.685776
4.49 0.701477
4.5 0.702556
4.51 0.690267
4.52 0.662606
4.53 0.621192
4.54 0.566613
4.55 0.499836
4.56 0.423816
4.57 0.339548
4.58 0.250681
4.59 0.159362
4.6 0.0684461
4.61 -0.0198637
4.62 -0.102796
4.63 -0.17939
4.64 -0.247436
4.65 -0.30682
4.66 -0.357141
4.67 -0.398244
4.68 -0.431703
4.69 -0.45743
4.7 -0.477829
4.71 -0.493871
4.72 -0.507277
4.73 -0.519489
4.74 -0.531812
4.75 -0.545183
4.76 -0.560469
4.77 -0.577879
4.78 -0.597455
4.79 -0.618956
4.8 -0.641664
4.81 -0.664902
4.82 -0.687707
4.83 -0.709138
4.84 -0.728283
4.85 -0.744584
4.86 -0.757083
4.87 -0.765998
4.88 -0.770813
4.89 -0.772096
4.9 -0.770225
4.91 -0.765792
4.92 -0.759797
4.93 -0.752993
4.94 -0.746393
4.95 -0.740842
4.96 -0.737111
4.97 -0.735624
4.98 -0.737074
4.99 -0.741219
5 -0.748363
5.01 -0.758013
5.02 -0.769844
5.03 -0.783405
5.04 -0.798011
5.05 -0.813201
5.06 -0.828371
5.07 -0.843081
5.08 -0.856958
5.09 -0.869811
5.1 -0.881331
5.11 -0.891597
5.12 -0.900358
5.13 -0.907616
5.14 -0.913159
5.15 -0.916524
5.16 -0.917466
5.17 -0.914731
5.18 -0.907852
5.19 -0.895287
5.2 -0.875634
5.21 -0.847868
5.22 -0.809228
5.23 -0.759731
5.24 -0.696543
5.25 -0.619693
5.26 -0.528386
5.27 -0.421826
5.28 -0.30209
5.29 -0.168343
5.3 -0.024449
5.31 0.127911
5.32 0.285066
5.33 0.443324
5.34 0.598015
5.35 0.745401
5.36 0.879803
5.37 0.997748
5.38 1.09525
5.39 1.16748
5.4 1.2147
5.41 1.23064
5.42 1.21885
5.43 1.17716
5.44 1.10748
5.45 1.01328
5.46 0.895231
5.47 0.760196
5.48 0.610612
5.49 0.452653
5.5 0.290821
5.51 0.130314
5.52 -0.0249371
5.53 -0.169512
5.54 -0.301584
5.55 -0.417621
5.56 -0.516089
5.57 -0.597163
5.58 -0.658785
5.59 -0.704316
5.6 -0.733159
5.61 -0.748668
5.62 -0.752778
5.63 -0.747618
5.64 -0.736325
5.65 -0.720374
5.66 -0.702278
5.67 -0.683269
5.68 -0.664415
5.69 -0.64614
5.7 -0.628502
5.71 -0.610998
5.72 -0.592829
5.73 -0.573012
5.74 -0.550499
5.75 -0.523992
5.76 -0.493122
5.77 -0.456492
5.78 -0.414685
5.79 -0.367479
5.8 -0.315692
5.81 -0.260574
5.82 -0.203446
5.83 -0.146307
5.84 -0.0912858
5.85 -0.0404248
5.86 0.00427121
5.87 0.0403734
5.88 0.0673432
5.89 0.0822916
5.9 0.0861494
5.91 0.0777799
5.92 0.0577272
5.93 0.0273501
5.94 -0.0131654
5.95 -0.0609202
5.96 -0.114904
5.97 -0.172543
5.98 -0.232013
5.99 -0.291315
6 -0.348982
6.01 -0.40325
6.02 -0.453664
6.03 -0.499409
6.04 -0.540465
6.05 -0.577347
6.06 -0.610255
6.07 -0.64054
6.08 -0.668907
6.09 -0.696581
6.1 -0.724446
6.11 -0.753379
6.12 -0.783736
6.13 -0.815985
6.14 -0.849723
6.15 -0.8846
6.16 -0.919748
6.17 -0.954222
6.18 -0.986594
6.19 -1.01598
6.2 -1.04078
6.21 -1.06033
6.22 -1.07391
6.23 -1.08081
6.24 -1.08181
6.25 -1.07647
6.26 -1.06654
6.27 -1.05286
6.28 -1.03708
6.29 -1.02076
6.3 -1.0056
6.31 -0.992707
6.32 -0.983359
6.33 -0.977687
6.34 -0.975459
6.35 -0.975641
6.36 -0.976234
6.37 -0.974151
6.38 -0.966165
6.39 -0.947612
6.4 -0.913467
6.41 -0.859976
6.42 -0.778932
6.43 -0.669477
6.44 -0.523516
6.45 -0.340408
6.46 -0.1177
6.47 0.147492
6.48 0.449853
6.49 0.792611
6.5 1.16591
6.51 1.56633
6.52 1.9852
6.53 2.41334
6.54 2.84038
6.55 3.25624
6.56 3.64792
6.57 4.00589
6.58 4.3201
6.59 4.57787
6.6 4.77808
6.61 4.90431
6.62 4.96252
6.63 4.94531
6.64 4.85422
6.65 4.69575
6.66 4.46707
6.67 4.18414
6.68 3.84879
6.69 3.47526
6.7 3.07313
6.71 2.65333
6.72 2.22785
6.73 1.80786
6.74 1.40249
6.75 1.02142
6.76 0.672186
6.77 0.35816
6.78 0.0881858
6.79 -0.141693
6.8 -0.325896
6.81 -0.469166
6.82 -0.573482
6.83 -0.640897
6.84 -0.679471
6.85 -0.690159
6.86 -0.682003
6.87 -0.658539
6.88 -0.625279
6.89 -0.586735
6.9 -0.546465
6.91 -0.507455
6.92 -0.47202
6.93 -0.441217
6.94 -0.415601
6.95 -0.395372
6.96 -0.379463
6.97 -0.367624
6.98 -0.358312
6.99 -0.350781
7 -0.344118
7.01 -0.337769
7.02 -0.331528
7.03 -0.325539
7.04 -0.320396
7.05 -0.316936
7.06 -0.316218
7.07 -0.31979
7.08 -0.328346
7.09 -0.344028
7.1 -0.366819
7.11 -0.397874
7.12 -0.437286
7.13 -0.484323
7.14 -0.539045
7.15 -0.599209
7.16 -0.663761
7.17 -0.730268
7.18 -0.796665
7.19 -0.860373
7.2 -0.919658
7.21 -0.971511
7.22 -1.01526
7.23 -1.04907
7.24 -1.07234
7.25 -1.08557
7.26 -1.08807
7.27 -1.08229
7.28 -1.06877
7.29 -1.05007
7.3 -1.02815
7.31 -1.00527
7.32 -0.983447
7.33 -0.964937
7.34 -0.95072
7.35 -0.941998
7.36 -0.938989
7.37 -0.940994
7.38 -0.947385
7.39 -0.955895
7.4 -0.964381
7.41 -0.969961
7.42 -0.969766
7.43 -0.959973
7.44 -0.938866
7.45 -0.901497
7.46 -0.847778
7.47 -0.774849
7.48 -0.682023
7.49 -0.570459
7.5 -0.43884
7.51 -0.291649
7.52 -0.129689
7.53 0.0423424
7.54 0.220741
7.55 0.400848
7.56 0.578202
7.57 0.746998
7.58 0.903799
7.59 1.04359
7.6 1.16259
7.61 1.25934
7.62 1.32851
7.63 1.37263
7.64 1.3881
7.65 1.37754
7.66 1.34194
7.67 1.28214
7.68 1.20313
7.69 1.10522
7.7 0.994314
7.71 0.872829
7.72 0.744755
7.73 0.613613
7.74 0.48273
7.75 0.354872
7.76 0.233097
7.77 0.119229
7.78 0.0149702
7.79 -0.0776245
7.8 -0.158948
7.81 -0.22647
7.82 -0.281725
7.83 -0.32374
7.84 -0.35289
7.85 -0.370312
7.86 -0.375193
7.87 -0.369982
7.88 -0.354362
7.89 -0.330237
7.9 -0.298718
7.91 -0.260962
7.92 -0.219067
7.93 -0.174282
7.94 -0.12882
7.95 -0.0844902
7.96 -0.0434009
7.97 -0.00710997
7.98 0.0216585
7.99 0.0423438
8 0.0524474
8.01 0.0516013
8.02 0.039078
8.03 0.0139244
8.04 -0.0222851
8.05 -0.0705595
8.06 -0.128129
8.07 -0.194161
8.08 -0.266462
8.09 -0.342676
8.1 -0.420638
8.11 -0.497875
8.12 -0.571994
8.13 -0.641155
8.14 -0.703812
8.15 -0.758283
8.16 -0.804858
8.17 -0.842114
8.18 -0.871689
8.19 -0.893862
8.2 -0.910091
8.21 -0.922136
8.22 -0.931381
8.23 -0.939778
8.24 -0.948715
8.25 -0.959277
8.26 -0.972002
8.27 -0.986943
8.28 -1.00316
8.29 -1.01916
8.3 -1.03271
8.31 -1.04078
8.32 -1.03969
8.33 -1.02653
8.34 -0.995165
8.35 -0.944362
8.36 -0.867933
8.37 -0.764561
8.38 -0.632022
8.39 -0.467265
8.4 -0.273783
8.41 -0.0483199
8.42 0.202325
8.43 0.476253
8.44 0.767673
8.45 1.06991
8.46 1.37627
8.47 1.67887
8.48 1.96897
8.49 2.23916
8.5 2.48227
8.51 2.68898
8.52 2.85788
8.53 2.97754
8.54 3.05109
8.55 3.07335
8.56 3.04454
8.57 2.96905
8.58 2.84408
8.59 2.68048
8.6 2.47898
8.61 2.24884
8.62 1.99639
8.63 1.72837
8.64 1.45307
8.65 1.17713
8.66 0.907094
8.67 0.648935
8.68 0.407781
8.69 0.186026
8.7 -0.0106742
8.71 -0.184228
8.72 -0.331133
8.73 -0.453685
8.74 -0.552909
8.75 -0.629533
8.76 -0.688217
8.77 -0.729121
8.78 -0.757453
8.79 -0.775078
8.8 -0.785078
8.81 -0.790204
8.82 -0.792331
8.83 -0.793603
8.84 -0.795372
8.85 -0.798667
8.86 -0.804104
8.87 -0.812179
8.88 -0.822662
8.89 -0.835785
8.9 -0.850926
8.91 -0.867891
8.92 -0.886247
8.93 -0.905575
8.94 -0.925626
8.95 -0.946044
8.96 -0.966658
8.97 -0.987294
8.98 -1.00785
8.99 -1.02821
9 -1.0483
9.01 -1.06797
9.02 -1.08709
9.03 -1.10543
9.04 -1.12267
9.05 -1.13858
9.06 -1.15253
9.07 -1.16434
9.08 -1.17328
9.09 -1.17901
9.1 -1.18108
9.11 -1.17877
9.12 -1.17218
9.13 -1.16025
9.14 -1.1434
9.15 -1.12109
9.16 -1.09325
9.17 -1.06023
9.18 -1.02145
9.19 -0.977875
9.2 -0.929192
9.21 -0.876134
9.22 -0.819112
9.23 -0.758491
9.24 -0.695245
9.25 -0.629764
9.26 -0.563161
9.27 -0.496233
9.28 -0.430063
9.29 -0.365565
9.3 -0.304244
9.31 -0.246757
9.32 -0.194765
9.33 -0.149042
9.34 -0.110551
9.35 -0.0807294
9.36 -0.0592577
9.37 -0.0480174
9.38 -0.0459112
9.39 -0.053525
9.4 -0.0703768
9.41 -0.0952464
9.42 -0.128048
9.43 -0.166451
9.44 -0.20959
9.45 -0.25537
9.46 -0.302135
9.47 -0.347932
9.48 -0.391301
9.49 -0.430103
9.5 -0.463592
9.51 -0.490408
9.52 -0.509875
9.53 -0.522225
9.54 -0.526674
9.55 -0.524841
9.56 -0.516888
9.57 -0.504512
9.58 -0.489063
9.59 -0.472144
9.6 -0.455425
9.61 -0.44074
9.62 -0.42931
9.63 -0.422585
9.64 -0.421601
9.65 -0.426579
9.66 -0.438663
9.67 -0.456808
9.68 -0.481369
9.69 -0.511202
9.7 -0.545476
9.71 -0.583287
9.72 -0.623208
9.73 -0.664302
9.74 -0.705332
9.75 -0.745352
9.76 -0.783455
9.77 -0.819144
9.78 -0.851452
9.79 -0.880409
9.8 -0.905159
9.81 -0.925501
9.82 -0.940888
9.83 -0.950129
9.84 -0.952944
9.85 -0.946743
9.86 -0.930885
9.87 -0.9026
9.88 -0.859227
9.89 -0.799243
9.9 -0.717028
9.91 -0.612836
9.92 -0.481039
9.93 -0.320902
9.94 -0.130602
9.95 0.0931112
9.96 0.346757
9.97 0.634211
9.98 0.949149
9.99 1.29033
10 1.65268
10.01 2.02965
10.02 2.41535
10.03 2.80116
10.04 3.17844
10.05 3.53857
10.06 3.87335
10.07 4.17167
10.08 4.43045
10.09 4.63577
10.1 4.78883
10.11 4.88208
10.12 4.91324
10.13 4.88595
10.14 4.7938
10.15 4.6489
10.16 4.44972
10.17 4.20652
10.18 3.9263
10.19 3.61606
10.2 3.28725
10.21 2.94697
10.22 2.60551
10.23 2.27071
10.24 1.95053
10.25 1.64962
10.26 1.37624
10.27 1.12984
10.28 0.91576
10.29 0.732375
10.3 0.578891
10.31 0.454969
10.32 0.354557
10.33 0.277226
10.34 0.215829
10.35 0.167201
10.36 0.126546
10.37 0.0896446
10.38 0.0528671
10.39 0.0133506
10.4 -0.0315356
10.41 -0.0829613
10.42 -0.141545
10.43 -0.207683
10.44 -0.279881
10.45 -0.35772
10.46 -0.438845
10.47 -0.521666
10.48 -0.604033
10.49 -0.684232
10.5 -0.759939
10.51 -0.830339
10.52 -0.893566
10.53 -0.94923
10.54 -0.996915
10.55 -1.03597
10.56 -1.06753
10.57 -1.09087
10.58 -1.10762
10.59 -1.11797
10.6 -1.1227
10.61 -1.12276
10.62 -1.11815
10.63 -1.10994
10.64 -1.09798
10.65 -1.0827
10.66 -1.06415
10.67 -1.0421
10.68 -1.0169
10.69 -0.988046
10.7 -0.95605
10.71 -0.920881
10.72 -0.882923
10.73 -0.842835
10.74 -0.801144
10.75 -0.758932
10.76 -0.717214
10.77 -0.677178
10.78 -0.639961
10.79 -0.60712
10.8 -0.579221
10.81 -0.558196
10.82 -0.54404
10.83 -0.537804
10.84 -0.539846
10.85 -0.549648
10.86 -0.567996
10.87 -0.593167
10.88 -0.625168
10.89 -0.662475
10.9 -0.70396
10.91 -0.748429
10.92 -0.794302
10.93 -0.840304
10.94 -0.885133
10.95 -0.927601
10.96 -0.966639
10.97 -1.00177
10.98 -1.0318
10.99 -1.05713
11 -1.07708
11.01 -1.09211
11.02 -1.10252
11.03 -1.10853
11.04 -1.11118
11.05 -1.11074
11.06 -1.10836
11.07 -1.10469
11.08 -1.10058
11.09 -1.09674
11.1 -1.09399
11.11 -1.09272
11.12 -1.09356
11.13 -1.09666
11.14 -1.10208
11.15 -1.10984
11.16 -1.11934
11.17 -1.13015
11.18 -1.1412
11.19 -1.15137
11.2 -1.15908
11.21 -1.16297
11.22 -1.16029
11.23 -1.14993
11.24 -1.12867
11.25 -1.0948
11.26 -1.04629
11.27 -0.979801
11.28 -0.895703
11.29 -0.789604
11.3 -0.663239
11.31 -0.514906
11.32 -0.344932
11.33 -0.155744
11.34 0.0532601
11.35 0.276761
11.36 0.513041
11.37 0.756971
11.38 1.00415
11.39 1.24899
11.4 1.48676
11.41 1.71015
11.42 1.91539
11.43 2.0963
11.44 2.24779
11.45 2.36834
11.46 2.45006
11.47 2.49646
11.48 2.5023
11.49 2.4704
11.5 2.40218
11.51 2.29796
11.52 2.165
11.53 2.00358
11.54 1.82221
11.55 1.62481
11.56 1.41753
11.57 1.20609
11.58 0.996063
11.59 0.791931
11.6 0.598721
11.61 0.419352
11.62 0.256108
11.63 0.111885
11.64 -0.0148977
11.65 -0.121791
11.66 -0.212309
11.67 -0.287078
11.68 -0.348546
11.69 -0.399985
11.7 -0.443131
11.71 -0.481764
11.72 -0.517897
11.73 -0.553948
11.74 -0.591475
11.75 -0.631836
11.76 -0.675178
11.77 -0.721854
11.78 -0.770756
11.79 -0.820857
11.8 -0.870371
11.81 -0.917583
11.82 -0.959702
11.83 -0.995332
11.84 -1.02151
11.85 -1.03678
11.86 -1.03966
11.87 -1.02785
11.88 -1.00225
11.89 -0.960251
11.9 -0.903929
11.91 -0.832873
11.92 -0.748081
11.93 -0.651697
11.94 -0.543909
11.95 -0.428101
11.96 -0.305347
11.97 -0.178286
11.98 -0.048923
11.99 0.0805222
12 0.208157
12.01 0.331523
12.02 0.44927
12.03 0.559394
12.04 0.660162
12.05 0.750967
12.06 0.828943
12.07 0.894872
12.08 0.946386
12.09 0.983636
12.1 1.00627
12.11 1.01298
12.12 1.00561
12.13 0.982289
12.14 0.945546
12.15 0.895389
12.16 0.833075
12.17 0.760788
12.18 0.679064
12.19 0.591085
12.2 0.498203
12.21 0.402966
12.22 0.307368
12.23 0.213684
12.24 0.123409
12.25 0.0388686
12.26 -0.0393202
12.27 -0.109875
12.28 -0.172217
12.29 -0.226856
12.3 -0.273064
12.31 -0.312726
12.32 -0.34611
12.33 -0.374941
12.34 -0.400569
12.35 -0.424404
12.36 -0.447924
12.37 -0.472414
12.38 -0.498689
12.39 -0.527399
12.4 -0.558705
