# xPDFsuite Configuration #
[PDF]
wavelength = 0.1432
dataformat = twotheta
inputfile = 1_1Pd_CeO2_cycle-00135.chi
backgroundfile = background-00000.chi
mode = xray
bgscale = 1.007
composition = CeO2
outputtype = gr
qmaxinst = 28.8974762299
qmin = 0.5
qmax = 27.9
rmax = 50.0
rmin = 0.0
rstep = 0.01
rpoly = 1.8657

[Misc]
inputdir = G:/SankarDec16/1Pd/Chi
savedir = D:/DATA/APS_CeO2/1Pd
backgroundfilefull = G:/SankarDec16/Background/background-00000.chi

#### start data
#S 1
#L r($\AA$)  G($\AA^{-2}$)
0 0
0.01 -0.00717076
0.02 -0.0138034
0.03 -0.0193437
0.04 -0.0233737
0.05 -0.0256606
0.06 -0.0258293
0.07 -0.0241272
0.08 -0.0204318
0.09 -0.015216
0.1 -0.0088062
0.11 -0.00170325
0.12 0.00554413
0.13 0.0123227
0.14 0.0181934
0.15 0.0226214
0.16 0.02529
0.17 0.0260704
0.18 0.0247023
0.19 0.0215471
0.2 0.0166123
0.21 0.0104483
0.22 0.00346035
0.23 -0.00378995
0.24 -0.0107839
0.25 -0.0168605
0.26 -0.021699
0.27 -0.0248083
0.28 -0.0259871
0.29 -0.0252167
0.3 -0.0223633
0.31 -0.0178865
0.32 -0.0119239
0.33 -0.00507921
0.34 0.00218194
0.35 0.00926133
0.36 0.0156938
0.37 0.0208
0.38 0.0243923
0.39 0.026045
0.4 0.0256819
0.41 0.0233954
0.42 0.019185
0.43 0.0135881
0.44 0.00686693
0.45 -0.000348364
0.46 -0.00755221
0.47 -0.0141362
0.48 -0.0197099
0.49 -0.0236062
0.5 -0.0257788
0.51 -0.0258878
0.52 -0.0239854
0.53 -0.0202717
0.54 -0.0148805
0.55 -0.00840347
0.56 -0.00121582
0.57 0.00605319
0.58 0.0128809
0.59 0.0186757
0.6 0.0231397
0.61 0.0256481
0.62 0.0262991
0.63 0.0248539
0.64 0.0214919
0.65 0.0165129
0.66 0.0101796
0.67 0.00311182
0.68 -0.00421807
0.69 -0.0112097
0.7 -0.0173468
0.71 -0.0220805
0.72 -0.0252199
0.73 -0.02621
0.74 -0.0252899
0.75 -0.0223329
0.76 -0.017638
0.77 -0.011591
0.78 -0.00457199
0.79 0.00279889
0.8 0.00997441
0.81 0.0164101
0.82 0.0216204
0.83 0.0251246
0.84 0.0268476
0.85 0.0263306
0.86 0.0239419
0.87 0.0196721
0.88 0.0139249
0.89 0.00715218
0.9 -0.00016977
0.91 -0.00745288
0.92 -0.0141077
0.93 -0.0196762
0.94 -0.023735
0.95 -0.0259045
0.96 -0.026234
0.97 -0.0244024
0.98 -0.0208899
0.99 -0.0158212
1 -0.00969182
1.01 -0.00300066
1.02 0.00368887
1.03 0.00986218
1.04 0.0149085
1.05 0.0184972
1.06 0.0202995
1.07 0.0200776
1.08 0.0180316
1.09 0.0140304
1.1 0.00867999
1.11 0.00228358
1.12 -0.00454488
1.13 -0.0112417
1.14 -0.0171002
1.15 -0.0216902
1.16 -0.0243132
1.17 -0.0247699
1.18 -0.0227934
1.19 -0.0182493
1.2 -0.0115134
1.21 -0.00256309
1.22 0.00780423
1.23 0.0191406
1.24 0.030678
1.25 0.0417404
1.26 0.0514524
1.27 0.0593578
1.28 0.0645999
1.29 0.066979
1.3 0.0661649
1.31 0.0619561
1.32 0.0547881
1.33 0.0444809
1.34 0.0319528
1.35 0.0175576
1.36 0.00207856
1.37 -0.0137786
1.38 -0.0292239
1.39 -0.0436642
1.4 -0.0563141
1.41 -0.0668279
1.42 -0.0748085
1.43 -0.079934
1.44 -0.0824381
1.45 -0.081964
1.46 -0.079167
1.47 -0.0741233
1.48 -0.0673098
1.49 -0.0591791
1.5 -0.0500723
1.51 -0.0404882
1.52 -0.0307312
1.53 -0.0211083
1.54 -0.011818
1.55 -0.00301847
1.56 0.00528291
1.57 0.0129897
1.58 0.0202174
1.59 0.0269586
1.6 0.0332617
1.61 0.0391474
1.62 0.044524
1.63 0.0493665
1.64 0.0534376
1.65 0.0565946
1.66 0.0585809
1.67 0.0590598
1.68 0.05795
1.69 0.0547123
1.7 0.0494972
1.71 0.0420271
1.72 0.0323905
1.73 0.020801
1.74 0.00734717
1.75 -0.00737406
1.76 -0.0230248
1.77 -0.0389418
1.78 -0.0545605
1.79 -0.069191
1.8 -0.0824152
1.81 -0.0934099
1.82 -0.102122
1.83 -0.108085
1.84 -0.111291
1.85 -0.111935
1.86 -0.11004
1.87 -0.106332
1.88 -0.101145
1.89 -0.0952766
1.9 -0.0893578
1.91 -0.0841419
1.92 -0.0801161
1.93 -0.0780799
1.94 -0.0780965
1.95 -0.0805417
1.96 -0.0853198
1.97 -0.0921221
1.98 -0.10067
1.99 -0.110159
2 -0.119911
2.01 -0.129017
2.02 -0.136609
2.03 -0.141649
2.04 -0.143665
2.05 -0.141336
2.06 -0.134784
2.07 -0.123273
2.08 -0.106811
2.09 -0.0856845
2.1 -0.0597172
2.11 -0.0299686
2.12 0.00344974
2.13 0.039506
2.14 0.0775938
2.15 0.117015
2.16 0.157065
2.17 0.197233
2.18 0.237096
2.19 0.276357
2.2 0.314879
2.21 0.352669
2.22 0.389709
2.23 0.426183
2.24 0.462107
2.25 0.497554
2.26 0.532431
2.27 0.566453
2.28 0.599334
2.29 0.630177
2.3 0.658483
2.31 0.68305
2.32 0.7028
2.33 0.716874
2.34 0.723334
2.35 0.72216
2.36 0.711357
2.37 0.691113
2.38 0.660889
2.39 0.620356
2.4 0.570968
2.41 0.512216
2.42 0.446752
2.43 0.37555
2.44 0.300851
2.45 0.224752
2.46 0.149638
2.47 0.0774486
2.48 0.0107566
2.49 -0.049078
2.5 -0.100547
2.51 -0.142235
2.52 -0.174702
2.53 -0.196411
2.54 -0.209498
2.55 -0.214154
2.56 -0.212149
2.57 -0.205354
2.58 -0.195432
2.59 -0.184659
2.6 -0.174939
2.61 -0.167952
2.62 -0.165085
2.63 -0.167627
2.64 -0.175531
2.65 -0.189811
2.66 -0.209144
2.67 -0.2332
2.68 -0.26059
2.69 -0.289866
2.7 -0.319445
2.71 -0.347795
2.72 -0.373189
2.73 -0.394596
2.74 -0.411052
2.75 -0.421773
2.76 -0.427258
2.77 -0.42701
2.78 -0.422631
2.79 -0.414835
2.8 -0.405205
2.81 -0.395229
2.82 -0.38666
2.83 -0.380703
2.84 -0.37904
2.85 -0.382255
2.86 -0.390952
2.87 -0.405431
2.88 -0.424744
2.89 -0.448747
2.9 -0.475525
2.91 -0.503825
2.92 -0.531749
2.93 -0.557691
2.94 -0.5795
2.95 -0.596333
2.96 -0.606326
2.97 -0.609374
2.98 -0.605151
2.99 -0.593759
3 -0.57671
3.01 -0.554572
3.02 -0.529788
3.03 -0.504043
3.04 -0.479597
3.05 -0.458245
3.06 -0.442417
3.07 -0.432785
3.08 -0.431258
3.09 -0.437602
3.1 -0.451862
3.11 -0.473547
3.12 -0.50075
3.13 -0.532415
3.14 -0.565836
3.15 -0.598972
3.16 -0.629414
3.17 -0.655398
3.18 -0.674476
3.19 -0.686417
3.2 -0.689637
3.21 -0.684996
3.22 -0.673074
3.23 -0.655185
3.24 -0.633756
3.25 -0.61099
3.26 -0.58976
3.27 -0.572901
3.28 -0.563075
3.29 -0.561957
3.3 -0.572357
3.31 -0.59358
3.32 -0.627106
3.33 -0.670968
3.34 -0.723752
3.35 -0.783037
3.36 -0.845344
3.37 -0.907116
3.38 -0.964731
3.39 -1.01425
3.4 -1.05238
3.41 -1.07726
3.42 -1.0854
3.43 -1.07837
3.44 -1.0546
3.45 -1.01722
3.46 -0.968522
3.47 -0.912083
3.48 -0.85261
3.49 -0.795016
3.5 -0.743765
3.51 -0.703764
3.52 -0.678691
3.53 -0.67019
3.54 -0.68141
3.55 -0.709218
3.56 -0.753308
3.57 -0.807858
3.58 -0.867407
3.59 -0.923745
3.6 -0.969318
3.61 -0.991339
3.62 -0.983418
3.63 -0.933438
3.64 -0.833049
3.65 -0.678005
3.66 -0.456159
3.67 -0.173707
3.68 0.177422
3.69 0.588161
3.7 1.05395
3.71 1.56705
3.72 2.11204
3.73 2.67829
3.74 3.24709
3.75 3.80221
3.76 4.32544
3.77 4.803
3.78 5.21191
3.79 5.54827
3.8 5.79058
3.81 5.93841
3.82 5.98539
3.83 5.92586
3.84 5.77302
3.85 5.51783
3.86 5.184
3.87 4.77599
3.88 4.31055
3.89 3.80449
3.9 3.27165
3.91 2.73094
3.92 2.1977
3.93 1.68611
3.94 1.20825
3.95 0.776842
3.96 0.393817
3.97 0.0728032
3.98 -0.193126
3.99 -0.399638
4 -0.551318
4.01 -0.65531
4.02 -0.713613
4.03 -0.73944
4.04 -0.73703
4.05 -0.717271
4.06 -0.68714
4.07 -0.653934
4.08 -0.623235
4.09 -0.600613
4.1 -0.58792
4.11 -0.58756
4.12 -0.599447
4.13 -0.622033
4.14 -0.654191
4.15 -0.691989
4.16 -0.73273
4.17 -0.772595
4.18 -0.808433
4.19 -0.836742
4.2 -0.856097
4.21 -0.862947
4.22 -0.858039
4.23 -0.840028
4.24 -0.809622
4.25 -0.768311
4.26 -0.716484
4.27 -0.657187
4.28 -0.591421
4.29 -0.521675
4.3 -0.449496
4.31 -0.376398
4.32 -0.303483
4.33 -0.231635
4.34 -0.161073
4.35 -0.0919625
4.36 -0.0240699
4.37 0.042966
4.38 0.109461
4.39 0.175753
4.4 0.241915
4.41 0.307771
4.42 0.372839
4.43 0.43612
4.44 0.496719
4.45 0.552464
4.46 0.602318
4.47 0.643944
4.48 0.675522
4.49 0.695984
4.5 0.702382
4.51 0.695579
4.52 0.673212
4.53 0.636549
4.54 0.585861
4.55 0.521773
4.56 0.447188
4.57 0.362766
4.58 0.27237
4.59 0.178116
4.6 0.0830842
4.61 -0.0102238
4.62 -0.098766
4.63 -0.181153
4.64 -0.2548
4.65 -0.319228
4.66 -0.373718
4.67 -0.417779
4.68 -0.452947
4.69 -0.478818
4.7 -0.498029
4.71 -0.511537
4.72 -0.521303
4.73 -0.529067
4.74 -0.536403
4.75 -0.544653
4.76 -0.555033
4.77 -0.568072
4.78 -0.584083
4.79 -0.603096
4.8 -0.624397
4.81 -0.647531
4.82 -0.671295
4.83 -0.694705
4.84 -0.716599
4.85 -0.736135
4.86 -0.752076
4.87 -0.764322
4.88 -0.772042
4.89 -0.775586
4.9 -0.775148
4.91 -0.771166
4.92 -0.764721
4.93 -0.756491
4.94 -0.747769
4.95 -0.739552
4.96 -0.732905
4.97 -0.728531
4.98 -0.72746
4.99 -0.72966
5 -0.735743
5.01 -0.745308
5.02 -0.758113
5.03 -0.773738
5.04 -0.791288
5.05 -0.810226
5.06 -0.829571
5.07 -0.848608
5.08 -0.866587
5.09 -0.883016
5.1 -0.897161
5.11 -0.908984
5.12 -0.917902
5.13 -0.923946
5.14 -0.926907
5.15 -0.926408
5.16 -0.922554
5.17 -0.914307
5.18 -0.901696
5.19 -0.883587
5.2 -0.859056
5.21 -0.827423
5.22 -0.786462
5.23 -0.736238
5.24 -0.674296
5.25 -0.600535
5.26 -0.51409
5.27 -0.413987
5.28 -0.30181
5.29 -0.176389
5.3 -0.0409542
5.31 0.103353
5.32 0.253459
5.33 0.406092
5.34 0.557253
5.35 0.703229
5.36 0.83882
5.37 0.960372
5.38 1.06381
5.39 1.14413
5.4 1.20095
5.41 1.22768
5.42 1.22709
5.43 1.19641
5.44 1.13685
5.45 1.05139
5.46 0.93993
5.47 0.809273
5.48 0.661304
5.49 0.502339
5.5 0.336928
5.51 0.170425
5.52 0.00737451
5.53 -0.146521
5.54 -0.288634
5.55 -0.414873
5.56 -0.523024
5.57 -0.612758
5.58 -0.681329
5.59 -0.731972
5.6 -0.76361
5.61 -0.779706
5.62 -0.782247
5.63 -0.77352
5.64 -0.757203
5.65 -0.735062
5.66 -0.710303
5.67 -0.68466
5.68 -0.659784
5.69 -0.636503
5.7 -0.615439
5.71 -0.596125
5.72 -0.578101
5.73 -0.560193
5.74 -0.541213
5.75 -0.519599
5.76 -0.494461
5.77 -0.463984
5.78 -0.428164
5.79 -0.386254
5.8 -0.338565
5.81 -0.286049
5.82 -0.229522
5.83 -0.171119
5.84 -0.112732
5.85 -0.0567384
5.86 -0.00540512
5.87 0.0384401
5.88 0.0736752
5.89 0.0968506
5.9 0.108321
5.91 0.10636
5.92 0.0910129
5.93 0.0633903
5.94 0.0231742
5.95 -0.0264779
5.96 -0.0847479
5.97 -0.148612
5.98 -0.215898
5.99 -0.284114
6 -0.351136
6.01 -0.41455
6.02 -0.473294
6.03 -0.525918
6.04 -0.571889
6.05 -0.611494
6.06 -0.644422
6.07 -0.672354
6.08 -0.695828
6.09 -0.716591
6.1 -0.735928
6.11 -0.755273
6.12 -0.775685
6.13 -0.798351
6.14 -0.823488
6.15 -0.851424
6.16 -0.881814
6.17 -0.913933
6.18 -0.946878
6.19 -0.979394
6.2 -1.01004
6.21 -1.03759
6.22 -1.06089
6.23 -1.07864
6.24 -1.09088
6.25 -1.09642
6.26 -1.09637
6.27 -1.09085
6.28 -1.08097
6.29 -1.06804
6.3 -1.05321
6.31 -1.03795
6.32 -1.02334
6.33 -1.01007
6.34 -0.998312
6.35 -0.98759
6.36 -0.976658
6.37 -0.963124
6.38 -0.944446
6.39 -0.916647
6.4 -0.875271
6.41 -0.816834
6.42 -0.73371
6.43 -0.624745
6.44 -0.482094
6.45 -0.304647
6.46 -0.0896161
6.47 0.166334
6.48 0.458581
6.49 0.790912
6.5 1.15413
6.51 1.54542
6.52 1.95663
6.53 2.37887
6.54 2.80231
6.55 3.21667
6.56 3.60923
6.57 3.97011
6.58 4.28905
6.59 4.55303
6.6 4.76043
6.61 4.89441
6.62 4.9604
6.63 4.95057
6.64 4.86605
6.65 4.71308
6.66 4.48847
6.67 4.20827
6.68 3.87409
6.69 3.5004
6.7 3.09691
6.71 2.67475
6.72 2.24625
6.73 1.8228
6.74 1.41389
6.75 1.02943
6.76 0.677187
6.77 0.360658
6.78 0.0888559
6.79 -0.142241
6.8 -0.32701
6.81 -0.470338
6.82 -0.57432
6.83 -0.64116
6.84 -0.679093
6.85 -0.689238
6.86 -0.680754
6.87 -0.657287
6.88 -0.624401
6.89 -0.586592
6.9 -0.547414
6.91 -0.509724
6.92 -0.47575
6.93 -0.446394
6.94 -0.422076
6.95 -0.40284
6.96 -0.387549
6.97 -0.375801
6.98 -0.366086
6.99 -0.357626
7 -0.349571
7.01 -0.341481
7.02 -0.333254
7.03 -0.325211
7.04 -0.318107
7.05 -0.312936
7.06 -0.310887
7.07 -0.313645
7.08 -0.321904
7.09 -0.337906
7.1 -0.361508
7.11 -0.393817
7.12 -0.434773
7.13 -0.483475
7.14 -0.539785
7.15 -0.601288
7.16 -0.666717
7.17 -0.73352
7.18 -0.799532
7.19 -0.862088
7.2 -0.919552
7.21 -0.968899
7.22 -1.00969
7.23 -1.04027
7.24 -1.06029
7.25 -1.07049
7.26 -1.07053
7.27 -1.06302
7.28 -1.04881
7.29 -1.03057
7.3 -1.01034
7.31 -0.990478
7.32 -0.972781
7.33 -0.959505
7.34 -0.951245
7.35 -0.948962
7.36 -0.952488
7.37 -0.960778
7.38 -0.972739
7.39 -0.985865
7.4 -0.997575
7.41 -1.00484
7.42 -1.00465
7.43 -0.993028
7.44 -0.968499
7.45 -0.92603
7.46 -0.866007
7.47 -0.785794
7.48 -0.685133
7.49 -0.565598
7.5 -0.426345
7.51 -0.272206
7.52 -0.104454
7.53 0.0719805
7.54 0.253179
7.55 0.434255
7.56 0.610927
7.57 0.777214
7.58 0.930104
7.59 1.06472
7.6 1.17767
7.61 1.26786
7.62 1.33035
7.63 1.36805
7.64 1.37777
7.65 1.36238
7.66 1.3231
7.67 1.26103
7.68 1.18105
7.69 1.08368
7.7 0.974505
7.71 0.855879
7.72 0.731526
7.73 0.604674
7.74 0.478387
7.75 0.355112
7.76 0.237618
7.77 0.127503
7.78 0.026285
7.79 -0.0641729
7.8 -0.14423
7.81 -0.211509
7.82 -0.267357
7.83 -0.310763
7.84 -0.341935
7.85 -0.361814
7.86 -0.369423
7.87 -0.366988
7.88 -0.354005
7.89 -0.332221
7.9 -0.302616
7.91 -0.266217
7.92 -0.225127
7.93 -0.180484
7.94 -0.134606
7.95 -0.0893089
7.96 -0.046789
7.97 -0.00871857
7.98 0.0220983
7.99 0.0449552
8 0.0572509
8.01 0.0585023
8.02 0.0478881
8.03 0.0243461
8.04 -0.0105851
8.05 -0.0580389
8.06 -0.115235
8.07 -0.181408
8.08 -0.254388
8.09 -0.331797
8.1 -0.411536
8.11 -0.491039
8.12 -0.567941
8.13 -0.64031
8.14 -0.706541
8.15 -0.764866
8.16 -0.815442
8.17 -0.856713
8.18 -0.890158
8.19 -0.915875
8.2 -0.935125
8.21 -0.949534
8.22 -0.960199
8.23 -0.969056
8.24 -0.977242
8.25 -0.985849
8.26 -0.995383
8.27 -1.00587
8.28 -1.01659
8.29 -1.02608
8.3 -1.03247
8.31 -1.03298
8.32 -1.02427
8.33 -1.00376
8.34 -0.965794
8.35 -0.909359
8.36 -0.828729
8.37 -0.722761
8.38 -0.589418
8.39 -0.425866
8.4 -0.235377
8.41 -0.014869
8.42 0.229327
8.43 0.495494
8.44 0.778271
8.45 1.07144
8.46 1.36879
8.47 1.66289
8.48 1.94556
8.49 2.20973
8.5 2.44854
8.51 2.65303
8.52 2.82167
8.53 2.94335
8.54 3.02075
8.55 3.04858
8.56 3.02671
8.57 2.95901
8.58 2.84226
8.59 2.68679
8.6 2.4928
8.61 2.26914
8.62 2.02179
8.63 1.7571
8.64 1.48343
8.65 1.2071
8.66 0.935016
8.67 0.673235
8.68 0.427235
8.69 0.199839
8.7 -0.00290525
8.71 -0.18242
8.72 -0.334745
8.73 -0.461815
8.74 -0.564368
8.75 -0.642833
8.76 -0.701954
8.77 -0.741697
8.78 -0.767631
8.79 -0.781776
8.8 -0.787594
8.81 -0.788239
8.82 -0.786035
8.83 -0.783504
8.84 -0.782457
8.85 -0.784173
8.86 -0.789469
8.87 -0.799033
8.88 -0.812428
8.89 -0.829944
8.9 -0.850494
8.91 -0.8736
8.92 -0.898348
8.93 -0.923871
8.94 -0.949344
8.95 -0.974093
8.96 -0.997422
8.97 -1.01898
8.98 -1.03852
8.99 -1.05579
9 -1.07107
9.01 -1.0842
9.02 -1.09569
9.03 -1.10567
9.04 -1.11445
9.05 -1.1223
9.06 -1.12926
9.07 -1.13551
9.08 -1.14088
9.09 -1.14519
9.1 -1.14811
9.11 -1.14902
9.12 -1.1476
9.13 -1.14272
9.14 -1.13408
9.15 -1.12069
9.16 -1.10182
9.17 -1.07723
9.18 -1.04558
9.19 -1.00754
9.2 -0.962139
9.21 -0.910007
9.22 -0.851447
9.23 -0.78675
9.24 -0.717385
9.25 -0.643851
9.26 -0.568029
9.27 -0.491223
9.28 -0.415234
9.29 -0.341565
9.3 -0.272513
9.31 -0.209037
9.32 -0.153423
9.33 -0.106537
9.34 -0.0694146
9.35 -0.043527
9.36 -0.0280224
9.37 -0.0246327
9.38 -0.0314718
9.39 -0.0486009
9.4 -0.0748207
9.41 -0.108339
9.42 -0.148305
9.43 -0.192138
9.44 -0.238404
9.45 -0.284982
9.46 -0.330209
9.47 -0.372179
9.48 -0.409989
9.49 -0.441746
9.5 -0.467469
9.51 -0.486354
9.52 -0.49842
9.53 -0.50441
9.54 -0.504273
9.55 -0.499761
9.56 -0.491519
9.57 -0.481156
9.58 -0.469923
9.59 -0.459247
9.6 -0.450183
9.61 -0.444178
9.62 -0.441692
9.63 -0.443552
9.64 -0.4501
9.65 -0.461101
9.66 -0.476959
9.67 -0.496636
9.68 -0.520053
9.69 -0.546284
9.7 -0.574698
9.71 -0.604679
9.72 -0.635498
9.73 -0.666716
9.74 -0.697887
9.75 -0.728736
9.76 -0.759063
9.77 -0.788786
9.78 -0.817673
9.79 -0.845648
9.8 -0.872234
9.81 -0.896915
9.82 -0.918866
9.83 -0.936514
9.84 -0.948837
9.85 -0.952661
9.86 -0.946562
9.87 -0.927076
9.88 -0.890859
9.89 -0.83603
9.9 -0.75628
9.91 -0.652064
9.92 -0.517457
9.93 -0.352131
9.94 -0.154616
9.95 0.0778688
9.96 0.341087
9.97 0.638255
9.98 0.962318
9.99 1.31135
10 1.67966
10.01 2.06043
10.02 2.44719
10.03 2.83163
10.04 3.20496
10.05 3.55907
10.06 3.88623
10.07 4.1759
10.08 4.42578
10.09 4.62272
10.1 4.76855
10.11 4.85643
10.12 4.8846
10.13 4.85683
10.14 4.76721
10.15 4.62734
10.16 4.43568
10.17 4.20183
10.18 3.93216
10.19 3.63291
10.2 3.31473
10.21 2.98376
10.22 2.64968
10.23 2.31958
10.24 2.00095
10.25 1.6984
10.26 1.41972
10.27 1.16506
10.28 0.939857
10.29 0.74336
10.3 0.575517
10.31 0.436928
10.32 0.322447
10.33 0.232782
10.34 0.161419
10.35 0.106036
10.36 0.0623772
10.37 0.0262228
10.38 -0.00552188
10.39 -0.0365531
10.4 -0.0695799
10.41 -0.106735
10.42 -0.149448
10.43 -0.199112
10.44 -0.255235
10.45 -0.318573
10.46 -0.387482
10.47 -0.461254
10.48 -0.538323
10.49 -0.617005
10.5 -0.695545
10.51 -0.772307
10.52 -0.845379
10.53 -0.913426
10.54 -0.975244
10.55 -1.02923
10.56 -1.07553
10.57 -1.11232
10.58 -1.14052
10.59 -1.1595
10.6 -1.16949
10.61 -1.17142
10.62 -1.16481
10.63 -1.15148
10.64 -1.13138
10.65 -1.10581
10.66 -1.07557
10.67 -1.04134
10.68 -1.00435
10.69 -0.965116
10.7 -0.924746
10.71 -0.883921
10.72 -0.843452
10.73 -0.803945
10.74 -0.766277
10.75 -0.73076
10.76 -0.698211
10.77 -0.668943
10.78 -0.643343
10.79 -0.622058
10.8 -0.604873
10.81 -0.592699
10.82 -0.585081
10.83 -0.582424
10.84 -0.584759
10.85 -0.591721
10.86 -0.603835
10.87 -0.620217
10.88 -0.641147
10.89 -0.666008
10.9 -0.694442
10.91 -0.72619
10.92 -0.760416
10.93 -0.796876
10.94 -0.834661
10.95 -0.873209
10.96 -0.911744
10.97 -0.949609
10.98 -0.985869
10.99 -1.02007
11 -1.05128
11.01 -1.07908
11.02 -1.10302
11.03 -1.12246
11.04 -1.13772
11.05 -1.14811
11.06 -1.15439
11.07 -1.15663
11.08 -1.15539
11.09 -1.15151
11.1 -1.14555
11.11 -1.13863
11.12 -1.13154
11.13 -1.12519
11.14 -1.12024
11.15 -1.1174
11.16 -1.11668
11.17 -1.11838
11.18 -1.12177
11.19 -1.12618
11.2 -1.13024
11.21 -1.1325
11.22 -1.13037
11.23 -1.12223
11.24 -1.10469
11.25 -1.07552
11.26 -1.03228
11.27 -0.971141
11.28 -0.892089
11.29 -0.790289
11.3 -0.667303
11.31 -0.521219
11.32 -0.352316
11.33 -0.163157
11.34 0.0468194
11.35 0.271925
11.36 0.510225
11.37 0.756236
11.38 1.00528
11.39 1.25146
11.4 1.48992
11.41 1.71312
11.42 1.91737
11.43 2.0965
11.44 2.24559
11.45 2.36337
11.46 2.44222
11.47 2.48596
11.48 2.48968
11.49 2.45643
11.5 2.38786
11.51 2.28449
11.52 2.15348
11.53 1.99521
11.54 1.81789
11.55 1.62525
11.56 1.42307
11.57 1.21675
11.58 1.01141
11.59 0.811234
11.6 0.620837
11.61 0.442954
11.62 0.279741
11.63 0.133954
11.64 0.00427436
11.65 -0.106832
11.66 -0.202407
11.67 -0.282755
11.68 -0.349843
11.69 -0.406526
11.7 -0.45398
11.71 -0.495747
11.72 -0.533394
11.73 -0.569255
11.74 -0.604853
11.75 -0.641538
11.76 -0.679878
11.77 -0.720427
11.78 -0.762697
11.79 -0.806155
11.8 -0.849646
11.81 -0.891922
11.82 -0.930932
11.83 -0.965416
11.84 -0.992929
11.85 -1.01197
11.86 -1.021
11.87 -1.0176
11.88 -1.00202
11.89 -0.971296
11.9 -0.926651
11.91 -0.866981
11.92 -0.792443
11.93 -0.704593
11.94 -0.60263
11.95 -0.489824
11.96 -0.366569
11.97 -0.235577
11.98 -0.0989563
11.99 0.0409614
12 0.181444
12.01 0.319632
12.02 0.453096
12.03 0.579001
12.04 0.694586
12.05 0.798489
12.06 0.886661
12.07 0.959654
12.08 1.01425
12.09 1.05059
12.1 1.06834
12.11 1.06622
12.12 1.04696
12.13 1.00898
12.14 0.956025
12.15 0.888917
12.16 0.810023
12.17 0.722391
12.18 0.627779
12.19 0.529761
12.2 0.430617
12.21 0.333038
12.22 0.239092
12.23 0.151175
12.24 0.0699593
12.25 -0.00237392
12.26 -0.0663631
12.27 -0.121456
12.28 -0.168104
12.29 -0.207687
12.3 -0.240583
12.31 -0.269163
12.32 -0.294573
12.33 -0.318767
12.34 -0.343232
12.35 -0.369567
12.36 -0.398579
12.37 -0.4315
12.38 -0.468157
12.39 -0.508608
12.4 -0.552145
12.41 -0.597543
