# xPDFsuite Configuration #
[PDF]
wavelength = 0.1432
dataformat = twotheta
inputfile = 1_1Pd_CeO2_cycle-00191.chi
backgroundfile = background-00000.chi
mode = xray
bgscale = 1.007
composition = CeO2
outputtype = gr
qmaxinst = 28.8974762299
qmin = 0.5
qmax = 27.9
rmax = 50.0
rmin = 0.0
rstep = 0.01
rpoly = 1.8657

[Misc]
inputdir = G:/SankarDec16/1Pd/Chi
savedir = D:/DATA/APS_CeO2/1Pd
backgroundfilefull = G:/SankarDec16/Background/background-00000.chi

#### start data
#S 1
#L r($\AA$)  G($\AA^{-2}$)
0 0
0.01 -0.00677038
0.02 -0.01303
0.03 -0.0182529
0.04 -0.0220431
0.05 -0.0241805
0.06 -0.0243114
0.07 -0.022672
0.08 -0.0191494
0.09 -0.0141945
0.1 -0.00811965
0.11 -0.00140263
0.12 0.00543643
0.13 0.0118132
0.14 0.0173151
0.15 0.0214364
0.16 0.0238819
0.17 0.0245345
0.18 0.0231547
0.19 0.0200909
0.2 0.0153593
0.21 0.00948593
0.22 0.00286028
0.23 -0.00398103
0.24 -0.0105491
0.25 -0.0162143
0.26 -0.0206825
0.27 -0.0234927
0.28 -0.0244648
0.29 -0.0235911
0.3 -0.020758
0.31 -0.0164095
0.32 -0.0106899
0.33 -0.00417579
0.34 0.0026856
0.35 0.00932431
0.36 0.0153066
0.37 0.0199885
0.38 0.0232083
0.39 0.0245729
0.4 0.0240262
0.41 0.0216704
0.42 0.0175242
0.43 0.0121057
0.44 0.00568081
0.45 -0.0011513
0.46 -0.00790728
0.47 -0.0140112
0.48 -0.0191062
0.49 -0.022565
0.5 -0.0243671
0.51 -0.0242065
0.52 -0.0221545
0.53 -0.018419
0.54 -0.0131503
0.55 -0.00691592
0.56 -9.0927e-05
0.57 0.00673185
0.58 0.0130567
0.59 0.0183295
0.6 0.022288
0.61 0.024353
0.62 0.0246463
0.63 0.0229646
0.64 0.0195042
0.65 0.0145683
0.66 0.00843316
0.67 0.00168769
0.68 -0.0052018
0.69 -0.0116774
0.7 -0.0172556
0.71 -0.0214309
0.72 -0.0240493
0.73 -0.0246077
0.74 -0.0233648
0.75 -0.0202304
0.76 -0.0155155
0.77 -0.00960427
0.78 -0.0028842
0.79 0.00406355
0.8 0.0107063
0.81 0.0165492
0.82 0.0211468
0.83 0.0240692
0.84 0.0252792
0.85 0.0243782
0.86 0.0217482
0.87 0.0174181
0.88 0.0117982
0.89 0.00533194
0.9 -0.00150263
0.91 -0.00816667
0.92 -0.0140938
0.93 -0.018885
0.94 -0.0221651
0.95 -0.0236149
0.96 -0.0233246
0.97 -0.0210444
0.98 -0.0172662
0.99 -0.0121589
1 -0.00622501
1.01 4.64409e-05
1.02 0.00608566
1.03 0.0114339
1.04 0.0154976
1.05 0.0180096
1.06 0.0186878
1.07 0.0173521
1.08 0.0142482
1.09 0.00930813
1.1 0.00315814
1.11 -0.0038563
1.12 -0.0111076
1.13 -0.0180335
1.14 -0.0239106
1.15 -0.0283475
1.16 -0.0306419
1.17 -0.0306348
1.18 -0.028078
1.19 -0.0228584
1.2 -0.0153782
1.21 -0.00561817
1.22 0.00560761
1.23 0.017856
1.24 0.0303633
1.25 0.0424596
1.26 0.0532888
1.27 0.062393
1.28 0.0689319
1.29 0.072694
1.3 0.0733394
1.31 0.0706416
1.32 0.064997
1.33 0.0561693
1.34 0.0450222
1.35 0.0318302
1.36 0.0173012
1.37 0.00208291
1.38 -0.0131462
1.39 -0.0277927
1.4 -0.0411731
1.41 -0.0529136
1.42 -0.062626
1.43 -0.0699712
1.44 -0.0750817
1.45 -0.0775715
1.46 -0.0779377
1.47 -0.0761565
1.48 -0.0725603
1.49 -0.0674815
1.5 -0.0610991
1.51 -0.0538486
1.52 -0.0458845
1.53 -0.0374995
1.54 -0.0288492
1.55 -0.0200757
1.56 -0.0112828
1.57 -0.00255808
1.58 0.00604031
1.59 0.0144271
1.6 0.0225097
1.61 0.0301909
1.62 0.0372527
1.63 0.0435982
1.64 0.0488979
1.65 0.0530042
1.66 0.0556612
1.67 0.0565735
1.68 0.0557548
1.69 0.0527658
1.7 0.0478883
1.71 0.0409847
1.72 0.0322733
1.73 0.0220512
1.74 0.0105391
1.75 -0.00171172
1.76 -0.0143144
1.77 -0.0267412
1.78 -0.0385464
1.79 -0.0492411
1.8 -0.0586313
1.81 -0.0662216
1.82 -0.0721762
1.83 -0.076369
1.84 -0.0790368
1.85 -0.0805157
1.86 -0.0811413
1.87 -0.0814762
1.88 -0.0820288
1.89 -0.0833026
1.9 -0.0857417
1.91 -0.0897778
1.92 -0.0954417
1.93 -0.103067
1.94 -0.112221
1.95 -0.122727
1.96 -0.134002
1.97 -0.145411
1.98 -0.156089
1.99 -0.165344
2 -0.172082
2.01 -0.175707
2.02 -0.175489
2.03 -0.170696
2.04 -0.161495
2.05 -0.147003
2.06 -0.12814
2.07 -0.104842
2.08 -0.0778448
2.09 -0.0479727
2.1 -0.0158714
2.11 0.0173383
2.12 0.0508971
2.13 0.0839831
2.14 0.116009
2.15 0.146485
2.16 0.175413
2.17 0.202622
2.18 0.22869
2.19 0.254036
2.2 0.279428
2.21 0.305579
2.22 0.333473
2.23 0.363549
2.24 0.396671
2.25 0.432854
2.26 0.47213
2.27 0.51416
2.28 0.557947
2.29 0.602428
2.3 0.645977
2.31 0.686712
2.32 0.722555
2.33 0.751818
2.34 0.771482
2.35 0.781075
2.36 0.77763
2.37 0.761218
2.38 0.731028
2.39 0.686626
2.4 0.630096
2.41 0.560908
2.42 0.482849
2.43 0.397466
2.44 0.30799
2.45 0.217376
2.46 0.129044
2.47 0.0455195
2.48 -0.0296674
2.49 -0.0949068
2.5 -0.148355
2.51 -0.188404
2.52 -0.216137
2.53 -0.229928
2.54 -0.232952
2.55 -0.225905
2.56 -0.211483
2.57 -0.192376
2.58 -0.171226
2.59 -0.150897
2.6 -0.134213
2.61 -0.123123
2.62 -0.119355
2.63 -0.124398
2.64 -0.137728
2.65 -0.160449
2.66 -0.190254
2.67 -0.226331
2.68 -0.2664
2.69 -0.308222
2.7 -0.349263
2.71 -0.387419
2.72 -0.420063
2.73 -0.445896
2.74 -0.463618
2.75 -0.472233
2.76 -0.472703
2.77 -0.464421
2.78 -0.449943
2.79 -0.430435
2.8 -0.408337
2.81 -0.385899
2.82 -0.365776
2.83 -0.349741
2.84 -0.340326
2.85 -0.338389
2.86 -0.344858
2.87 -0.360239
2.88 -0.38316
2.89 -0.413581
2.9 -0.448696
2.91 -0.48683
2.92 -0.525284
2.93 -0.561741
2.94 -0.593209
2.95 -0.618318
2.96 -0.634419
2.97 -0.641156
2.98 -0.637913
2.99 -0.624607
3 -0.603156
3.01 -0.574049
3.02 -0.540557
3.03 -0.504772
3.04 -0.469705
3.05 -0.437812
3.06 -0.412318
3.07 -0.394374
3.08 -0.386632
3.09 -0.389089
3.1 -0.402067
3.11 -0.42526
3.12 -0.456387
3.13 -0.494509
3.14 -0.536153
3.15 -0.578944
3.16 -0.61981
3.17 -0.656394
3.18 -0.685581
3.19 -0.706684
3.2 -0.717494
3.21 -0.718644
3.22 -0.710463
3.23 -0.694092
3.24 -0.672236
3.25 -0.646982
3.26 -0.621796
3.27 -0.599752
3.28 -0.584003
3.29 -0.576668
3.3 -0.581016
3.31 -0.596693
3.32 -0.625575
3.33 -0.665843
3.34 -0.716214
3.35 -0.774328
3.36 -0.836498
3.37 -0.899143
3.38 -0.958258
3.39 -1.00969
3.4 -1.04981
3.41 -1.07649
3.42 -1.08598
3.43 -1.07971
3.44 -1.05593
3.45 -1.01784
3.46 -0.967738
3.47 -0.909362
3.48 -0.847653
3.49 -0.78776
3.5 -0.734427
3.51 -0.69284
3.52 -0.666919
3.53 -0.658442
3.54 -0.670778
3.55 -0.700669
3.56 -0.747866
3.57 -0.806286
3.58 -0.870255
3.59 -0.931241
3.6 -0.98135
3.61 -1.00735
3.62 -1.00259
3.63 -0.954562
3.64 -0.854679
3.65 -0.698622
3.66 -0.474015
3.67 -0.187343
3.68 0.169469
3.69 0.586935
3.7 1.06017
3.71 1.58097
3.72 2.13347
3.73 2.70647
3.74 3.28093
3.75 3.84014
3.76 4.36562
3.77 4.84352
3.78 5.25055
3.79 5.58319
3.8 5.81992
3.81 5.96077
3.82 5.99975
3.83 5.93168
3.84 5.77027
3.85 5.50702
3.86 5.16607
3.87 4.75232
3.88 4.28284
3.89 3.77449
3.9 3.24143
3.91 2.70218
3.92 2.17215
3.93 1.66503
3.94 1.19258
3.95 0.767061
3.96 0.38996
3.97 0.0743968
3.98 -0.18688
3.99 -0.389922
4 -0.539526
4.01 -0.64287
4.02 -0.702101
4.03 -0.730098
4.04 -0.731016
4.05 -0.715303
4.06 -0.689587
4.07 -0.660717
4.08 -0.633913
4.09 -0.614234
4.1 -0.603362
4.11 -0.603383
4.12 -0.614121
4.13 -0.634109
4.14 -0.662192
4.15 -0.694856
4.16 -0.72961
4.17 -0.763118
4.18 -0.792632
4.19 -0.815146
4.2 -0.829552
4.21 -0.832849
4.22 -0.825852
4.23 -0.807507
4.24 -0.778528
4.25 -0.740248
4.26 -0.693014
4.27 -0.639381
4.28 -0.580082
4.29 -0.517085
4.3 -0.451509
4.31 -0.384362
4.32 -0.316457
4.33 -0.248145
4.34 -0.179635
4.35 -0.110856
4.36 -0.0416326
4.37 0.0281869
4.38 0.0987963
4.39 0.170028
4.4 0.241628
4.41 0.31291
4.42 0.382966
4.43 0.450312
4.44 0.513829
4.45 0.570853
4.46 0.620434
4.47 0.660074
4.48 0.6881
4.49 0.703722
4.5 0.704216
4.51 0.69097
4.52 0.66203
4.53 0.619167
4.54 0.563085
4.55 0.494895
4.56 0.417651
4.57 0.332502
4.58 0.243125
4.59 0.151753
4.6 0.0612479
4.61 -0.0262235
4.62 -0.107893
4.63 -0.182928
4.64 -0.249177
4.65 -0.306662
4.66 -0.355087
4.67 -0.394419
4.68 -0.426313
4.69 -0.450805
4.7 -0.47031
4.71 -0.485859
4.72 -0.499169
4.73 -0.511637
4.74 -0.524554
4.75 -0.538746
4.76 -0.555026
4.77 -0.573494
4.78 -0.594112
4.79 -0.616552
4.8 -0.64005
4.81 -0.663851
4.82 -0.687006
4.83 -0.708557
4.84 -0.727626
4.85 -0.743707
4.86 -0.755895
4.87 -0.764489
4.88 -0.769046
4.89 -0.770201
4.9 -0.768386
4.91 -0.764245
4.92 -0.758767
4.93 -0.752733
4.94 -0.747086
4.95 -0.742629
4.96 -0.740043
4.97 -0.739667
4.98 -0.742072
4.99 -0.746945
5 -0.754464
5.01 -0.764091
5.02 -0.775447
5.03 -0.788042
5.04 -0.801259
5.05 -0.814621
5.06 -0.827673
5.07 -0.840059
5.08 -0.851558
5.09 -0.86212
5.1 -0.871621
5.11 -0.880244
5.12 -0.887926
5.13 -0.89473
5.14 -0.90052
5.15 -0.904897
5.16 -0.907523
5.17 -0.907184
5.18 -0.90321
5.19 -0.893969
5.2 -0.877868
5.21 -0.853701
5.22 -0.818494
5.23 -0.772109
5.24 -0.711494
5.25 -0.636577
5.26 -0.546458
5.27 -0.440242
5.28 -0.320087
5.29 -0.185072
5.3 -0.0392663
5.31 0.115587
5.32 0.275641
5.33 0.43703
5.34 0.594907
5.35 0.745364
5.36 0.882551
5.37 1.00288
5.38 1.10228
5.39 1.17587
5.4 1.22393
5.41 1.24017
5.42 1.2283
5.43 1.18621
5.44 1.11595
5.45 1.02115
5.46 0.902585
5.47 0.767241
5.48 0.617663
5.49 0.460048
5.5 0.298908
5.51 0.139412
5.52 -0.0146208
5.53 -0.157878
5.54 -0.288705
5.55 -0.403748
5.56 -0.501669
5.57 -0.582777
5.58 -0.645257
5.59 -0.692467
5.6 -0.723981
5.61 -0.743073
5.62 -0.751632
5.63 -0.751684
5.64 -0.746109
5.65 -0.736188
5.66 -0.7241
5.67 -0.710768
5.68 -0.696917
5.69 -0.682725
5.7 -0.667822
5.71 -0.651672
5.72 -0.633134
5.73 -0.611281
5.74 -0.585058
5.75 -0.553197
5.76 -0.515679
5.77 -0.471201
5.78 -0.420851
5.79 -0.364726
5.8 -0.304103
5.81 -0.240608
5.82 -0.176077
5.83 -0.112719
5.84 -0.0531253
5.85 0.000567655
5.86 0.0462164
5.87 0.0812711
5.88 0.105474
5.89 0.115842
5.9 0.113814
5.91 0.0984584
5.92 0.0707453
5.93 0.0324347
5.94 -0.0158541
5.95 -0.0708742
5.96 -0.131184
5.97 -0.193983
5.98 -0.257227
5.99 -0.318699
6 -0.377062
6.01 -0.430353
6.02 -0.478471
6.03 -0.520682
6.04 -0.557256
6.05 -0.589023
6.06 -0.616458
6.07 -0.641257
6.08 -0.664429
6.09 -0.687446
6.1 -0.7114
6.11 -0.737379
6.12 -0.765725
6.13 -0.797097
6.14 -0.830907
6.15 -0.866801
6.16 -0.903759
6.17 -0.940645
6.18 -0.975895
6.19 -1.00839
6.2 -1.03635
6.21 -1.05895
6.22 -1.07531
6.23 -1.0846
6.24 -1.08754
6.25 -1.0836
6.26 -1.07457
6.27 -1.06127
6.28 -1.0454
6.29 -1.0286
6.3 -1.01258
6.31 -0.99858
6.32 -0.987911
6.33 -0.980789
6.34 -0.977036
6.35 -0.975668
6.36 -0.974729
6.37 -0.971177
6.38 -0.961812
6.39 -0.942013
6.4 -0.906795
6.41 -0.852434
6.42 -0.770802
6.43 -0.661057
6.44 -0.515197
6.45 -0.332609
6.46 -0.110885
6.47 0.152797
6.48 0.453169
6.49 0.793396
6.5 1.16374
6.51 1.56084
6.52 1.97613
6.53 2.40061
6.54 2.82409
6.55 3.23668
6.56 3.62562
6.57 3.98158
6.58 4.29468
6.59 4.55248
6.6 4.75386
6.61 4.88262
6.62 4.94455
6.63 4.93226
6.64 4.8471
6.65 4.69529
6.66 4.47379
6.67 4.19815
6.68 3.86983
6.69 3.50268
6.7 3.10594
6.71 2.69012
6.72 2.2671
6.73 1.84759
6.74 1.4409
6.75 1.05656
6.76 0.702289
6.77 0.381749
6.78 0.103983
6.79 -0.134402
6.8 -0.32743
6.81 -0.479296
6.82 -0.591512
6.83 -0.665571
6.84 -0.709301
6.85 -0.723057
6.86 -0.715961
6.87 -0.691319
6.88 -0.65474
6.89 -0.611035
6.9 -0.563898
6.91 -0.516953
6.92 -0.472912
6.93 -0.433462
6.94 -0.399691
6.95 -0.372437
6.96 -0.350948
6.97 -0.335651
6.98 -0.324985
6.99 -0.318491
7 -0.315197
7.01 -0.314253
7.02 -0.315342
7.03 -0.31792
7.04 -0.322175
7.05 -0.328253
7.06 -0.33663
7.07 -0.348155
7.08 -0.363155
7.09 -0.383025
7.1 -0.407739
7.11 -0.43812
7.12 -0.474298
7.13 -0.515841
7.14 -0.562903
7.15 -0.613976
7.16 -0.668418
7.17 -0.724543
7.18 -0.780907
7.19 -0.835673
7.2 -0.88752
7.21 -0.934229
7.22 -0.975163
7.23 -1.00886
7.24 -1.03468
7.25 -1.05283
7.26 -1.06255
7.27 -1.06551
7.28 -1.06183
7.29 -1.05331
7.3 -1.04126
7.31 -1.02718
7.32 -1.01267
7.33 -0.999157
7.34 -0.987599
7.35 -0.978832
7.36 -0.973108
7.37 -0.970046
7.38 -0.969128
7.39 -0.968869
7.4 -0.967584
7.41 -0.963187
7.42 -0.953475
7.43 -0.93542
7.44 -0.907731
7.45 -0.866296
7.46 -0.811035
7.47 -0.73945
7.48 -0.650792
7.49 -0.545862
7.5 -0.423204
7.51 -0.286459
7.52 -0.135924
7.53 0.0245522
7.54 0.191983
7.55 0.36257
7.56 0.532293
7.57 0.696267
7.58 0.851058
7.59 0.992053
7.6 1.11544
7.61 1.21936
7.62 1.2984
7.63 1.35419
7.64 1.38264
7.65 1.38545
7.66 1.36289
7.67 1.3149
7.68 1.24595
7.69 1.15542
7.7 1.04912
7.71 0.929012
7.72 0.799069
7.73 0.663133
7.74 0.52454
7.75 0.386931
7.76 0.25376
7.77 0.127724
7.78 0.0112287
7.79 -0.0928388
7.8 -0.184329
7.81 -0.259839
7.82 -0.320746
7.83 -0.365625
7.84 -0.39477
7.85 -0.409557
7.86 -0.409125
7.87 -0.396674
7.88 -0.372183
7.89 -0.338309
7.9 -0.296755
7.91 -0.249374
7.92 -0.198753
7.93 -0.146849
7.94 -0.0960485
7.95 -0.0485311
7.96 -0.00648675
7.97 0.0287073
7.98 0.0542842
7.99 0.0702682
8 0.0743883
8.01 0.0668525
8.02 0.0473791
8.03 0.0155222
8.04 -0.026792
8.05 -0.0800941
8.06 -0.141519
8.07 -0.210021
8.08 -0.283413
8.09 -0.35951
8.1 -0.436217
8.11 -0.511475
8.12 -0.583128
8.13 -0.649721
8.14 -0.710006
8.15 -0.762619
8.16 -0.807985
8.17 -0.844922
8.18 -0.874976
8.19 -0.898413
8.2 -0.916506
8.21 -0.930761
8.22 -0.942271
8.23 -0.952676
8.24 -0.963002
8.25 -0.974084
8.26 -0.98625
8.27 -0.999339
8.28 -1.01253
8.29 -1.02421
8.3 -1.03253
8.31 -1.03467
8.32 -1.02735
8.33 -1.00808
8.34 -0.971274
8.35 -0.91602
8.36 -0.836675
8.37 -0.732147
8.38 -0.600419
8.39 -0.438647
8.4 -0.250031
8.41 -0.0313901
8.42 0.211076
8.43 0.475815
8.44 0.757639
8.45 1.05044
8.46 1.34826
8.47 1.64362
8.48 1.92851
8.49 2.19579
8.5 2.43851
8.51 2.64763
8.52 2.82135
8.53 2.94837
8.54 3.03104
8.55 3.06379
8.56 3.04616
8.57 2.98182
8.58 2.86718
8.59 2.71256
8.6 2.5179
8.61 2.29217
8.62 2.04137
8.63 1.77198
8.64 1.49268
8.65 1.20999
8.66 0.931252
8.67 0.662859
8.68 0.410691
8.69 0.177859
8.7 -0.0291366
8.71 -0.211648
8.72 -0.365383
8.73 -0.492303
8.74 -0.593152
8.75 -0.668378
8.76 -0.723062
8.77 -0.757263
8.78 -0.777005
8.79 -0.784593
8.8 -0.783877
8.81 -0.77832
8.82 -0.770647
8.83 -0.763528
8.84 -0.759083
8.85 -0.758633
8.86 -0.763034
8.87 -0.773004
8.88 -0.787859
8.89 -0.807859
8.9 -0.831558
8.91 -0.858279
8.92 -0.886817
8.93 -0.916058
8.94 -0.944902
8.95 -0.972538
8.96 -0.998068
8.97 -1.02111
8.98 -1.04139
8.99 -1.05866
9 -1.07339
9.01 -1.08547
9.02 -1.09566
9.03 -1.10425
9.04 -1.11175
9.05 -1.11857
9.06 -1.12498
9.07 -1.13115
9.08 -1.13704
9.09 -1.14244
9.1 -1.14696
9.11 -1.14988
9.12 -1.15073
9.13 -1.1482
9.14 -1.14181
9.15 -1.13038
9.16 -1.11299
9.17 -1.0893
9.18 -1.0578
9.19 -1.01918
9.2 -0.972409
9.21 -0.918224
9.22 -0.857026
9.23 -0.789246
9.24 -0.716577
9.25 -0.639721
9.26 -0.560785
9.27 -0.481297
9.28 -0.403268
9.29 -0.328304
9.3 -0.258932
9.31 -0.196031
9.32 -0.141996
9.33 -0.0975579
9.34 -0.0636425
9.35 -0.0415774
9.36 -0.0302505
9.37 -0.0311844
9.38 -0.0422218
9.39 -0.0631743
9.4 -0.092594
9.41 -0.128548
9.42 -0.169908
9.43 -0.214141
9.44 -0.259652
9.45 -0.304421
9.46 -0.346865
9.47 -0.385179
9.48 -0.418729
9.49 -0.445782
9.5 -0.466669
9.51 -0.480831
9.52 -0.488568
9.53 -0.490814
9.54 -0.48783
9.55 -0.4814
9.56 -0.472393
9.57 -0.462388
9.58 -0.452625
9.59 -0.444519
9.6 -0.438883
9.61 -0.437101
9.62 -0.439309
9.63 -0.446133
9.64 -0.457629
9.65 -0.473326
9.66 -0.493313
9.67 -0.516418
9.68 -0.542287
9.69 -0.569917
9.7 -0.598596
9.71 -0.627609
9.72 -0.656393
9.73 -0.684433
9.74 -0.711567
9.75 -0.737635
9.76 -0.762675
9.77 -0.786849
9.78 -0.810176
9.79 -0.832814
9.8 -0.854554
9.81 -0.875059
9.82 -0.893665
9.83 -0.908994
9.84 -0.919979
9.85 -0.923636
9.86 -0.918367
9.87 -0.900706
9.88 -0.867181
9.89 -0.815715
9.9 -0.739887
9.91 -0.639888
9.92 -0.509622
9.93 -0.34855
9.94 -0.155037
9.95 0.0738837
9.96 0.334034
9.97 0.6288
9.98 0.951078
9.99 1.29898
10 1.66678
10.01 2.04754
10.02 2.43474
10.03 2.8199
10.04 3.19414
10.05 3.54919
10.06 3.87723
10.07 4.16762
10.08 4.41802
10.09 4.61521
10.1 4.76108
10.11 4.84881
10.12 4.87673
10.13 4.8487
10.14 4.75896
10.15 4.61919
10.16 4.42802
10.17 4.19512
10.18 3.92694
10.19 3.62979
10.2 3.31425
10.21 2.98647
10.22 2.65596
10.23 2.32971
10.24 2.01498
10.25 1.71619
10.26 1.44082
10.27 1.18887
10.28 0.965487
10.29 0.769762
10.3 0.601518
10.31 0.461187
10.32 0.343761
10.33 0.249826
10.34 0.173177
10.35 0.111624
10.36 0.0612153
10.37 0.0180597
10.38 -0.0205634
10.39 -0.0580163
10.4 -0.0965864
10.41 -0.138126
10.42 -0.18382
10.43 -0.234751
10.44 -0.290524
10.45 -0.351628
10.46 -0.416752
10.47 -0.485267
10.48 -0.555918
10.49 -0.627416
10.5 -0.69837
10.51 -0.767619
10.52 -0.833711
10.53 -0.89571
10.54 -0.952744
10.55 -1.00361
10.56 -1.04845
10.57 -1.08578
10.58 -1.11622
10.59 -1.13913
10.6 -1.15445
10.61 -1.16269
10.62 -1.16302
10.63 -1.15674
10.64 -1.14331
10.65 -1.12357
10.66 -1.09796
10.67 -1.06669
10.68 -1.03098
10.69 -0.990941
10.7 -0.947964
10.71 -0.902742
10.72 -0.856376
10.73 -0.809904
10.74 -0.76457
10.75 -0.721267
10.76 -0.681332
10.77 -0.645586
10.78 -0.614842
10.79 -0.59026
10.8 -0.571669
10.81 -0.560439
10.82 -0.55583
10.83 -0.558259
10.84 -0.567459
10.85 -0.582597
10.86 -0.603828
10.87 -0.629608
10.88 -0.659659
10.89 -0.692779
10.9 -0.728121
10.91 -0.764831
10.92 -0.801977
10.93 -0.838757
10.94 -0.87452
10.95 -0.90863
10.96 -0.940567
10.97 -0.970145
10.98 -0.996741
10.99 -1.02062
11 -1.0414
11.01 -1.05929
11.02 -1.07438
11.03 -1.08666
11.04 -1.09665
11.05 -1.10426
11.06 -1.11009
11.07 -1.11434
11.08 -1.11742
11.09 -1.11973
11.1 -1.12164
11.11 -1.12354
11.12 -1.12579
11.13 -1.12866
11.14 -1.13229
11.15 -1.1368
11.16 -1.14195
11.17 -1.14747
11.18 -1.15272
11.19 -1.15686
11.2 -1.15862
11.21 -1.1569
11.22 -1.14927
11.23 -1.13471
11.24 -1.11022
11.25 -1.07414
11.26 -1.02444
11.27 -0.957846
11.28 -0.87455
11.29 -0.770202
11.3 -0.646302
11.31 -0.50107
11.32 -0.334675
11.33 -0.149379
11.34 0.055545
11.35 0.274942
11.36 0.507235
11.37 0.747427
11.38 0.991232
11.39 1.23322
11.4 1.4687
11.41 1.69056
11.42 1.89501
11.43 2.07599
11.44 2.22845
11.45 2.35081
11.46 2.43527
11.47 2.48516
11.48 2.49521
11.49 2.46804
11.5 2.40491
11.51 2.3059
11.52 2.17806
11.53 2.02135
11.54 1.84409
11.55 1.64992
11.56 1.44476
11.57 1.23427
11.58 1.02375
11.59 0.817843
11.6 0.621486
11.61 0.437825
11.62 0.269348
11.63 0.1192
11.64 -0.0138079
11.65 -0.12686
11.66 -0.223084
11.67 -0.302712
11.68 -0.367821
11.69 -0.421515
11.7 -0.46511
11.71 -0.502554
11.72 -0.535685
11.73 -0.567184
11.74 -0.598854
11.75 -0.632365
11.76 -0.668382
11.77 -0.707737
11.78 -0.749853
11.79 -0.794235
11.8 -0.839614
11.81 -0.884518
11.82 -0.926745
11.83 -0.9647
11.84 -0.995687
11.85 -1.01793
11.86 -1.02964
11.87 -1.02816
11.88 -1.01368
11.89 -0.983018
11.9 -0.937522
11.91 -0.876087
11.92 -0.799008
11.93 -0.708063
11.94 -0.602632
11.95 -0.486282
11.96 -0.359662
11.97 -0.225737
11.98 -0.0868153
11.99 0.0545264
12 0.195546
12.01 0.333185
12.02 0.465158
12.03 0.588648
12.04 0.701044
12.05 0.801216
12.06 0.885301
12.07 0.95415
12.08 1.0048
12.09 1.03765
12.1 1.05257
12.11 1.04852
12.12 1.02827
12.13 0.990448
12.14 0.938654
12.15 0.873731
12.16 0.797915
12.17 0.714036
12.18 0.623708
12.19 0.530198
12.2 0.435558
12.21 0.342218
12.22 0.252032
12.23 0.167138
12.24 0.0881489
12.25 0.0170013
12.26 -0.0467698
12.27 -0.102667
12.28 -0.151079
12.29 -0.193217
12.3 -0.229395
12.31 -0.261702
12.32 -0.291122
12.33 -0.319361
12.34 -0.347707
12.35 -0.377519
12.36 -0.409488
12.37 -0.444608
12.38 -0.482693
12.39 -0.523698
12.4 -0.566895
