# xPDFsuite Configuration #
[PDF]
wavelength = 0.1432
dataformat = twotheta
inputfile = 1_1Pd_CeO2_cycle-00319.chi
backgroundfile = background-00000.chi
mode = xray
bgscale = 1.007
composition = CeO2
outputtype = gr
qmaxinst = 28.8974762299
qmin = 0.5
qmax = 27.9
rmax = 50.0
rmin = 0.0
rstep = 0.01
rpoly = 1.8657

[Misc]
inputdir = G:/SankarDec16/1Pd/Chi
savedir = D:/DATA/APS_CeO2/1Pd
backgroundfilefull = G:/SankarDec16/Background/background-00000.chi

#### start data
#S 1
#L r($\AA$)  G($\AA^{-2}$)
0 0
0.01 -0.00668649
0.02 -0.01287
0.03 -0.0180324
0.04 -0.0217835
0.05 -0.023906
0.06 -0.0240502
0.07 -0.0224482
0.08 -0.0189868
0.09 -0.0141091
0.1 -0.00812146
0.11 -0.0014929
0.12 0.00526387
0.13 0.0115746
0.14 0.0170308
0.15 0.0211333
0.16 0.0235886
0.17 0.0242785
0.18 0.0229632
0.19 0.0199828
0.2 0.0153485
0.21 0.00957638
0.22 0.0030473
0.23 -0.00371211
0.24 -0.0102185
0.25 -0.0158532
0.26 -0.0203208
0.27 -0.0231646
0.28 -0.0242015
0.29 -0.0234182
0.3 -0.0206959
0.31 -0.0164673
0.32 -0.0108674
0.33 -0.00446192
0.34 0.00231164
0.35 0.00889319
0.36 0.0148514
0.37 0.0195518
0.38 0.0228262
0.39 0.0242816
0.4 0.0238539
0.41 0.021636
0.42 0.0176359
0.43 0.0123591
0.44 0.00605839
0.45 -0.000677035
0.46 -0.0073732
0.47 -0.0134623
0.48 -0.0185855
0.49 -0.0221221
0.5 -0.0240391
0.51 -0.0240262
0.52 -0.0221419
0.53 -0.0185808
0.54 -0.0134782
0.55 -0.0073895
0.56 -0.000673417
0.57 0.00608411
0.58 0.012395
0.59 0.0177099
0.6 0.0217596
0.61 0.0239663
0.62 0.0244345
0.63 0.0229511
0.64 0.0196952
0.65 0.0149548
0.66 0.00898687
0.67 0.00237067
0.68 -0.00444496
0.69 -0.0109046
0.7 -0.016529
0.71 -0.0208123
0.72 -0.0235882
0.73 -0.0243486
0.74 -0.0233308
0.75 -0.0204292
0.76 -0.0159349
0.77 -0.0102157
0.78 -0.00363795
0.79 0.0032227
0.8 0.00984979
0.81 0.0157446
0.82 0.0204607
0.83 0.0235606
0.84 0.0249888
0.85 0.0243332
0.86 0.021951
0.87 0.0178497
0.88 0.0124172
0.89 0.00608112
0.9 -0.000703493
0.91 -0.00739646
0.92 -0.0134456
0.93 -0.0184392
0.94 -0.0219939
0.95 -0.023774
0.96 -0.0238436
0.97 -0.0219273
0.98 -0.0184877
0.99 -0.0136625
1 -0.00792678
1.01 -0.00175141
1.02 0.00432465
1.03 0.00983559
1.04 0.0142082
1.05 0.017156
1.06 0.0183873
1.07 0.0177028
1.08 0.0153137
1.09 0.0111267
1.1 0.00572798
1.11 -0.000571984
1.12 -0.00718093
1.13 -0.0135619
1.14 -0.0190315
1.15 -0.0231997
1.16 -0.0253976
1.17 -0.0254568
1.18 -0.0231338
1.19 -0.018314
1.2 -0.0113727
1.21 -0.00229723
1.22 0.00813851
1.23 0.0195001
1.24 0.0310484
1.25 0.0421343
1.26 0.0519169
1.27 0.059959
1.28 0.0654346
1.29 0.0681475
1.3 0.0677713
1.31 0.0640965
1.32 0.0575287
1.33 0.0478601
1.34 0.0359606
1.35 0.0221336
1.36 0.00710757
1.37 -0.0084545
1.38 -0.0238319
1.39 -0.0384363
1.4 -0.051539
1.41 -0.0627745
1.42 -0.0717421
1.43 -0.0780955
1.44 -0.0820011
1.45 -0.083058
1.46 -0.0818258
1.47 -0.0783002
1.48 -0.0728649
1.49 -0.0659001
1.5 -0.0576374
1.51 -0.048559
1.52 -0.0388766
1.53 -0.0289155
1.54 -0.018867
1.55 -0.00890635
1.56 0.000871197
1.57 0.0103383
1.58 0.0194782
1.59 0.0281978
1.6 0.0364287
1.61 0.0440981
1.62 0.0509902
1.63 0.0570392
1.64 0.0619027
1.65 0.0654404
1.66 0.0673777
1.67 0.0673847
1.68 0.0654634
1.69 0.0610947
1.7 0.0545616
1.71 0.0456642
1.72 0.0346032
1.73 0.0216819
1.74 0.0070989
1.75 -0.00850822
1.76 -0.0247164
1.77 -0.0408685
1.78 -0.0563958
1.79 -0.0706315
1.8 -0.0832382
1.81 -0.0934427
1.82 -0.101308
1.83 -0.106461
1.84 -0.108999
1.85 -0.109196
1.86 -0.107188
1.87 -0.103709
1.88 -0.0991739
1.89 -0.0943448
1.9 -0.0898373
1.91 -0.0863583
1.92 -0.0842923
1.93 -0.0843651
1.94 -0.0865098
1.95 -0.0909918
1.96 -0.0975996
1.97 -0.105942
1.98 -0.115618
1.99 -0.12582
2 -0.135783
2.01 -0.144641
2.02 -0.151541
2.03 -0.155485
2.04 -0.156107
2.05 -0.152135
2.06 -0.143821
2.07 -0.130508
2.08 -0.112297
2.09 -0.0895354
2.1 -0.0621165
2.11 -0.0310992
2.12 0.00337971
2.13 0.0403323
2.14 0.0791903
2.15 0.119318
2.16 0.160078
2.17 0.20104
2.18 0.241828
2.19 0.282201
2.2 0.322039
2.21 0.361332
2.22 0.40004
2.23 0.43826
2.24 0.475912
2.25 0.512946
2.26 0.549136
2.27 0.584033
2.28 0.617276
2.29 0.64775
2.3 0.674984
2.31 0.697669
2.32 0.714762
2.33 0.725494
2.34 0.727988
2.35 0.722466
2.36 0.707108
2.37 0.682382
2.38 0.648
2.39 0.603947
2.4 0.55184
2.41 0.49156
2.42 0.425749
2.43 0.355593
2.44 0.28332
2.45 0.210912
2.46 0.140726
2.47 0.0743291
2.48 0.0140937
2.49 -0.0390439
2.5 -0.0839358
2.51 -0.119616
2.52 -0.146933
2.53 -0.164897
2.54 -0.17572
2.55 -0.179931
2.56 -0.179362
2.57 -0.175795
2.58 -0.170956
2.59 -0.166659
2.6 -0.164651
2.61 -0.166074
2.62 -0.171895
2.63 -0.182857
2.64 -0.198498
2.65 -0.219184
2.66 -0.24339
2.67 -0.270339
2.68 -0.298482
2.69 -0.326398
2.7 -0.352343
2.71 -0.375264
2.72 -0.393527
2.73 -0.40669
2.74 -0.414233
2.75 -0.415957
2.76 -0.412872
2.77 -0.405174
2.78 -0.394778
2.79 -0.382918
2.8 -0.371421
2.81 -0.361808
2.82 -0.356075
2.83 -0.354961
2.84 -0.360109
2.85 -0.3715
2.86 -0.389292
2.87 -0.413179
2.88 -0.441646
2.89 -0.473825
2.9 -0.507411
2.91 -0.540576
2.92 -0.571106
2.93 -0.597311
2.94 -0.616724
2.95 -0.628949
2.96 -0.632099
2.97 -0.626671
2.98 -0.612779
2.99 -0.591122
3 -0.563832
3.01 -0.532197
3.02 -0.499132
3.03 -0.466933
3.04 -0.438245
3.05 -0.415008
3.06 -0.400047
3.07 -0.393634
3.08 -0.397785
3.09 -0.411701
3.1 -0.435037
3.11 -0.466756
3.12 -0.504315
3.13 -0.546011
3.14 -0.588602
3.15 -0.629453
3.16 -0.665727
3.17 -0.695463
3.18 -0.715787
3.19 -0.726776
3.2 -0.726683
3.21 -0.716846
3.22 -0.69816
3.23 -0.6724
3.24 -0.642576
3.25 -0.611429
3.26 -0.582362
3.27 -0.558732
3.28 -0.543612
3.29 -0.538889
3.3 -0.547768
3.31 -0.569331
3.32 -0.605231
3.33 -0.65312
3.34 -0.71134
3.35 -0.777113
3.36 -0.846467
3.37 -0.915428
3.38 -0.979924
3.39 -1.0356
3.4 -1.07882
3.41 -1.10755
3.42 -1.11799
3.43 -1.11187
3.44 -1.08749
3.45 -1.04828
3.46 -0.996682
3.47 -0.936565
3.48 -0.872985
3.49 -0.811142
3.5 -0.755812
3.51 -0.712165
3.52 -0.684075
3.53 -0.673272
3.54 -0.683034
3.55 -0.710087
3.56 -0.754109
3.57 -0.809049
3.58 -0.869265
3.59 -0.926308
3.6 -0.972419
3.61 -0.99455
3.62 -0.986215
3.63 -0.935147
3.64 -0.832968
3.65 -0.675494
3.66 -0.450621
3.67 -0.164774
3.68 0.189946
3.69 0.604207
3.7 1.07322
3.71 1.58896
3.72 2.13589
3.73 2.70309
3.74 3.27192
3.75 3.82605
3.76 4.34739
3.77 4.82233
3.78 5.22805
3.79 5.561
3.8 5.79996
3.81 5.94481
3.82 5.98948
3.83 5.9286
3.84 5.77545
3.85 5.52127
3.86 5.18962
3.87 4.78494
3.88 4.32379
3.89 3.82267
3.9 3.29513
3.91 2.75965
3.92 2.23116
3.93 1.72346
3.94 1.24831
3.95 0.818049
3.96 0.434608
3.97 0.111261
3.98 -0.158605
3.99 -0.37064
4 -0.529099
4.01 -0.640732
4.02 -0.707129
4.03 -0.740985
4.04 -0.74601
4.05 -0.732655
4.06 -0.707492
4.07 -0.677401
4.08 -0.647974
4.09 -0.624385
4.1 -0.608878
4.11 -0.603898
4.12 -0.609759
4.13 -0.625383
4.14 -0.650123
4.15 -0.680636
4.16 -0.714827
4.17 -0.749354
4.18 -0.781505
4.19 -0.80822
4.2 -0.828033
4.21 -0.837786
4.22 -0.83776
4.23 -0.826519
4.24 -0.804284
4.25 -0.772
4.26 -0.72947
4.27 -0.6791
4.28 -0.621177
4.29 -0.557684
4.3 -0.489681
4.31 -0.418197
4.32 -0.344425
4.33 -0.268805
4.34 -0.192131
4.35 -0.114687
4.36 -0.0368097
4.37 0.0412288
4.38 0.119075
4.39 0.196332
4.4 0.27227
4.41 0.346134
4.42 0.416894
4.43 0.483
4.44 0.543648
4.45 0.596158
4.46 0.640123
4.47 0.673312
4.48 0.694521
4.49 0.703366
4.5 0.697604
4.51 0.67891
4.52 0.645772
4.53 0.600102
4.54 0.542767
4.55 0.474997
4.56 0.399626
4.57 0.317875
4.58 0.232973
4.59 0.146951
4.6 0.0622713
4.61 -0.0192668
4.62 -0.0953205
4.63 -0.165357
4.64 -0.227648
4.65 -0.282398
4.66 -0.32951
4.67 -0.369131
4.68 -0.402757
4.69 -0.430583
4.7 -0.454635
4.71 -0.475822
4.72 -0.495517
4.73 -0.514776
4.74 -0.534524
4.75 -0.55524
4.76 -0.577331
4.77 -0.600636
4.78 -0.624862
4.79 -0.649411
4.8 -0.673575
4.81 -0.696319
4.82 -0.716987
4.83 -0.734624
4.84 -0.748598
4.85 -0.758697
4.86 -0.764265
4.87 -0.766001
4.88 -0.763802
4.89 -0.758647
4.9 -0.751279
4.91 -0.742689
4.92 -0.733954
4.93 -0.72624
4.94 -0.720357
4.95 -0.717244
4.96 -0.717484
4.97 -0.721215
4.98 -0.728928
4.99 -0.739902
5 -0.754105
5.01 -0.770608
5.02 -0.788717
5.03 -0.807566
5.04 -0.826311
5.05 -0.844048
5.06 -0.860268
5.07 -0.874364
5.08 -0.886058
5.09 -0.89537
5.1 -0.90209
5.11 -0.906742
5.12 -0.909325
5.13 -0.910269
5.14 -0.909709
5.15 -0.907585
5.16 -0.903873
5.17 -0.897749
5.18 -0.888754
5.19 -0.875554
5.2 -0.856735
5.21 -0.831134
5.22 -0.795972
5.23 -0.750878
5.24 -0.692844
5.25 -0.621503
5.26 -0.535747
5.27 -0.434406
5.28 -0.319306
5.29 -0.189201
5.3 -0.0478779
5.31 0.103222
5.32 0.260481
5.33 0.420136
5.34 0.577573
5.35 0.728729
5.36 0.867839
5.37 0.991083
5.38 1.09421
5.39 1.1721
5.4 1.22472
5.41 1.24549
5.42 1.23781
5.43 1.19927
5.44 1.13169
5.45 1.03857
5.46 0.920444
5.47 0.784424
5.48 0.632961
5.49 0.472472
5.5 0.307634
5.51 0.14385
5.52 -0.0147413
5.53 -0.162523
5.54 -0.297538
5.55 -0.416125
5.56 -0.516686
5.57 -0.599403
5.58 -0.662199
5.59 -0.708561
5.6 -0.737952
5.61 -0.753873
5.62 -0.758376
5.63 -0.753722
5.64 -0.743127
5.65 -0.728178
5.66 -0.711375
5.67 -0.69396
5.68 -0.676929
5.69 -0.660599
5.7 -0.644878
5.71 -0.629104
5.72 -0.61226
5.73 -0.593196
5.74 -0.570697
5.75 -0.543268
5.76 -0.510552
5.77 -0.470951
5.78 -0.425226
5.79 -0.373166
5.8 -0.315779
5.81 -0.254555
5.82 -0.191066
5.83 -0.127645
5.84 -0.0667775
5.85 -0.0108205
5.86 0.0379157
5.87 0.0766423
5.88 0.104775
5.89 0.119019
5.9 0.120506
5.91 0.107994
5.92 0.0821946
5.93 0.0447481
5.94 -0.00398351
5.95 -0.0606067
5.96 -0.123774
5.97 -0.190445
5.98 -0.258392
5.99 -0.325141
6 -0.389017
6.01 -0.447722
6.02 -0.500842
6.03 -0.547313
6.04 -0.587132
6.05 -0.621
6.06 -0.649103
6.07 -0.673285
6.08 -0.694422
6.09 -0.714219
6.1 -0.733926
6.11 -0.754851
6.12 -0.777681
6.13 -0.803347
6.14 -0.831598
6.15 -0.862379
6.16 -0.89494
6.17 -0.928299
6.18 -0.961163
6.19 -0.992329
6.2 -1.02017
6.21 -1.04369
6.22 -1.06191
6.23 -1.07385
6.24 -1.07997
6.25 -1.07955
6.26 -1.07412
6.27 -1.06427
6.28 -1.05151
6.29 -1.03734
6.3 -1.0233
6.31 -1.01066
6.32 -1.00063
6.33 -0.993526
6.34 -0.989224
6.35 -0.986825
6.36 -0.984531
6.37 -0.979386
6.38 -0.968338
6.39 -0.946856
6.4 -0.910036
6.41 -0.854194
6.42 -0.771235
6.43 -0.660282
6.44 -0.513309
6.45 -0.329635
6.46 -0.106791
6.47 0.158119
6.48 0.459865
6.49 0.801673
6.5 1.17378
6.51 1.57282
6.52 1.99017
6.53 2.41672
6.54 2.84217
6.55 3.25649
6.56 3.64679
6.57 4.0036
6.58 4.31694
6.59 4.57422
6.6 4.77439
6.61 4.90112
6.62 4.96038
6.63 4.94484
6.64 4.85604
6.65 4.70041
6.66 4.47515
6.67 4.19606
6.68 3.86489
6.69 3.4957
6.7 3.09791
6.71 2.68224
6.72 2.26051
6.73 1.84361
6.74 1.44058
6.75 1.06088
6.76 0.711942
6.77 0.397133
6.78 0.125142
6.79 -0.107778
6.8 -0.296078
6.81 -0.444256
6.82 -0.554115
6.83 -0.627477
6.84 -0.672128
6.85 -0.688745
6.86 -0.686139
6.87 -0.667593
6.88 -0.638427
6.89 -0.603077
6.9 -0.564903
6.91 -0.527034
6.92 -0.491722
6.93 -0.460224
6.94 -0.433241
6.95 -0.411168
6.96 -0.393189
6.97 -0.379273
6.98 -0.368087
6.99 -0.359071
7 -0.351446
7.01 -0.34469
7.02 -0.338669
7.03 -0.333378
7.04 -0.329339
7.05 -0.32717
7.06 -0.327723
7.07 -0.332278
7.08 -0.341345
7.09 -0.356746
7.1 -0.378399
7.11 -0.40729
7.12 -0.443491
7.13 -0.486381
7.14 -0.536071
7.15 -0.590656
7.16 -0.649334
7.17 -0.710068
7.18 -0.771165
7.19 -0.830517
7.2 -0.886629
7.21 -0.93705
7.22 -0.981116
7.23 -1.01727
7.24 -1.04492
7.25 -1.06434
7.26 -1.07482
7.27 -1.07822
7.28 -1.07478
7.29 -1.06644
7.3 -1.05461
7.31 -1.04092
7.32 -1.02699
7.33 -1.0143
7.34 -1.00375
7.35 -0.996134
7.36 -0.991592
7.37 -0.989638
7.38 -0.989596
7.39 -0.989892
7.4 -0.988678
7.41 -0.983807
7.42 -0.973016
7.43 -0.95322
7.44 -0.923215
7.45 -0.878865
7.46 -0.820266
7.47 -0.745011
7.48 -0.652518
7.49 -0.54374
7.5 -0.417399
7.51 -0.277253
7.52 -0.123761
7.53 0.0391649
7.54 0.208481
7.55 0.380335
7.56 0.550792
7.57 0.714933
7.58 0.869477
7.59 1.00987
7.6 1.1324
7.61 1.23533
7.62 1.3133
7.63 1.36803
7.64 1.39545
7.65 1.39728
7.66 1.37375
7.67 1.32475
7.68 1.2547
7.69 1.16287
7.7 1.05503
7.71 0.933049
7.72 0.800864
7.73 0.662327
7.74 0.52076
7.75 0.379922
7.76 0.243353
7.77 0.113919
7.78 -0.00580444
7.79 -0.112697
7.8 -0.206468
7.81 -0.283409
7.82 -0.344843
7.83 -0.389155
7.84 -0.416581
7.85 -0.428563
7.86 -0.424181
7.87 -0.40693
7.88 -0.376901
7.89 -0.337089
7.9 -0.289486
7.91 -0.236317
7.92 -0.180451
7.93 -0.124292
7.94 -0.0703737
7.95 -0.0211723
7.96 0.0209916
7.97 0.054794
7.98 0.0773367
7.99 0.0890159
8 0.0876523
8.01 0.073876
8.02 0.0477534
8.03 0.00927368
8.04 -0.0392622
8.05 -0.097877
8.06 -0.163481
8.07 -0.234683
8.08 -0.309117
8.09 -0.384635
8.1 -0.458982
8.11 -0.530494
8.12 -0.597108
8.13 -0.657822
8.14 -0.711767
8.15 -0.758046
8.16 -0.797487
8.17 -0.829448
8.18 -0.855711
8.19 -0.876899
8.2 -0.89446
8.21 -0.909849
8.22 -0.924299
8.23 -0.939023
8.24 -0.954918
8.25 -0.972329
8.26 -0.991175
8.27 -1.01079
8.28 -1.02993
8.29 -1.04644
8.3 -1.05822
8.31 -1.06211
8.32 -1.05468
8.33 -1.03353
8.34 -0.992952
8.35 -0.932532
8.36 -0.846797
8.37 -0.735188
8.38 -0.596136
8.39 -0.427346
8.4 -0.232427
8.41 -0.00880625
8.42 0.237137
8.43 0.503498
8.44 0.784982
8.45 1.07562
8.46 1.3694
8.47 1.65938
8.48 1.9378
8.49 2.19809
8.5 2.43382
8.51 2.63654
8.52 2.80487
8.53 2.92815
8.54 3.00889
8.55 3.04187
8.56 3.02667
8.57 2.9668
8.58 2.85864
8.59 2.71192
8.6 2.52624
8.61 2.30992
8.62 2.06838
8.63 1.80742
8.64 1.53528
8.65 1.25771
8.66 0.981939
8.67 0.713938
8.68 0.459514
8.69 0.222
8.7 0.00784457
8.71 -0.183601
8.72 -0.347748
8.73 -0.48583
8.74 -0.597992
8.75 -0.683959
8.76 -0.74831
8.77 -0.790317
8.78 -0.81581
8.79 -0.826652
8.8 -0.82656
8.81 -0.81918
8.82 -0.807126
8.83 -0.793741
8.84 -0.78138
8.85 -0.772061
8.86 -0.767197
8.87 -0.768178
8.88 -0.774825
8.89 -0.788111
8.9 -0.806818
8.91 -0.830681
8.92 -0.858637
8.93 -0.88943
8.94 -0.922066
8.95 -0.955147
8.96 -0.987565
8.97 -1.01832
8.98 -1.04665
8.99 -1.07173
9 -1.09355
9.01 -1.11141
9.02 -1.12586
9.03 -1.13685
9.04 -1.14477
9.05 -1.15019
9.06 -1.15329
9.07 -1.15477
9.08 -1.1548
9.09 -1.15368
9.1 -1.15148
9.11 -1.148
9.12 -1.14311
9.13 -1.13606
9.14 -1.12649
9.15 -1.11349
9.16 -1.09622
9.17 -1.0742
9.18 -1.04592
9.19 -1.01162
9.2 -0.970072
9.21 -0.921547
9.22 -0.866074
9.23 -0.803648
9.24 -0.735677
9.25 -0.662426
9.26 -0.585928
9.27 -0.507506
9.28 -0.429152
9.29 -0.352628
9.3 -0.280475
9.31 -0.213965
9.32 -0.155685
9.33 -0.106739
9.34 -0.068348
9.35 -0.0421761
9.36 -0.0273032
9.37 -0.0255603
9.38 -0.0347999
9.39 -0.0549368
9.4 -0.0844754
9.41 -0.121323
9.42 -0.164254
9.43 -0.210434
9.44 -0.258059
9.45 -0.30484
9.46 -0.348976
9.47 -0.388425
9.48 -0.422488
9.49 -0.449245
9.5 -0.469128
9.51 -0.48159
9.52 -0.48708
9.53 -0.486731
9.54 -0.481017
9.55 -0.471971
9.56 -0.460727
9.57 -0.449069
9.58 -0.438407
9.59 -0.430343
9.6 -0.425637
9.61 -0.425798
9.62 -0.430746
9.63 -0.441009
9.64 -0.456408
9.65 -0.476217
9.66 -0.500234
9.67 -0.527038
9.68 -0.555972
9.69 -0.585851
9.7 -0.61582
9.71 -0.645008
9.72 -0.672969
9.73 -0.699112
9.74 -0.723562
9.75 -0.74631
9.76 -0.767685
9.77 -0.788139
9.78 -0.80803
9.79 -0.827755
9.8 -0.847428
9.81 -0.866864
9.82 -0.885515
9.83 -0.902122
9.84 -0.915441
9.85 -0.922511
9.86 -0.921384
9.87 -0.90838
9.88 -0.879672
9.89 -0.832858
9.9 -0.76109
9.91 -0.664326
9.92 -0.536076
9.93 -0.375649
9.94 -0.181282
9.95 0.0501464
9.96 0.314232
9.97 0.614433
9.98 0.943234
9.99 1.29854
10 1.67423
10.01 2.063
10.02 2.45791
10.03 2.85015
10.04 3.23041
10.05 3.59022
10.06 3.92155
10.07 4.21353
10.08 4.46398
10.09 4.65951
10.1 4.80234
10.11 4.88576
10.12 4.9084
10.13 4.87447
10.14 4.77848
10.15 4.63248
10.16 4.43544
10.17 4.19727
10.18 3.92465
10.19 3.62412
10.2 3.30624
10.21 2.97738
10.22 2.64685
10.23 2.32163
10.24 2.00884
10.25 1.71268
10.26 1.4405
10.27 1.19203
10.28 0.972217
10.29 0.779945
10.3 0.614866
10.31 0.477221
10.32 0.361944
10.33 0.26944
10.34 0.193542
10.35 0.131996
10.36 0.0808663
10.37 0.0363475
10.38 -0.00429557
10.39 -0.0442534
10.4 -0.0857723
10.41 -0.13056
10.42 -0.179691
10.43 -0.234123
10.44 -0.293338
10.45 -0.357676
10.46 -0.42573
10.47 -0.496735
10.48 -0.569316
10.49 -0.642137
10.5 -0.713631
10.51 -0.782694
10.52 -0.847755
10.53 -0.907938
10.54 -0.962412
10.55 -1.01002
10.56 -1.05107
10.57 -1.0842
10.58 -1.11027
10.59 -1.12885
10.6 -1.14012
10.61 -1.14483
10.62 -1.14247
10.63 -1.13444
10.64 -1.12052
10.65 -1.1016
10.66 -1.07817
10.67 -1.05054
10.68 -1.0197
10.69 -0.985762
10.7 -0.949726
10.71 -0.912048
10.72 -0.873437
10.73 -0.834559
10.74 -0.796168
10.75 -0.758867
10.76 -0.723506
10.77 -0.690681
10.78 -0.661
10.79 -0.635359
10.8 -0.613811
10.81 -0.597535
10.82 -0.586268
10.83 -0.580621
10.84 -0.580773
10.85 -0.586379
10.86 -0.598112
10.87 -0.61492
10.88 -0.637094
10.89 -0.663824
10.9 -0.694588
10.91 -0.728933
10.92 -0.76579
10.93 -0.804678
10.94 -0.844502
10.95 -0.884499
10.96 -0.923734
10.97 -0.961511
10.98 -0.996737
10.99 -1.0291
11 -1.05766
11.01 -1.08219
11.02 -1.1024
11.03 -1.11788
11.04 -1.12921
11.05 -1.136
11.06 -1.13923
11.07 -1.13925
11.08 -1.13684
11.09 -1.13292
11.1 -1.1283
11.11 -1.12394
11.12 -1.12074
11.13 -1.11936
11.14 -1.1203
11.15 -1.12401
11.16 -1.13014
11.17 -1.13864
11.18 -1.14844
11.19 -1.15846
11.2 -1.16699
11.21 -1.17239
11.22 -1.17163
11.23 -1.16321
11.24 -1.14351
11.25 -1.11046
11.26 -1.06176
11.27 -0.993769
11.28 -0.906928
11.29 -0.796685
11.3 -0.665124
11.31 -0.510759
11.32 -0.334352
11.33 -0.138783
11.34 0.075958
11.35 0.30416
11.36 0.543518
11.37 0.788628
11.38 1.03488
11.39 1.27646
11.4 1.50898
11.41 1.72511
11.42 1.92178
11.43 2.09326
11.44 2.23519
11.45 2.3467
11.46 2.42082
11.47 2.46151
11.48 2.46433
11.49 2.43237
11.5 2.36725
11.51 2.26949
11.52 2.1458
11.53 1.99638
11.54 1.82877
11.55 1.64623
11.56 1.45389
11.57 1.25663
11.58 1.05879
11.59 0.864306
11.6 0.677149
11.61 0.499909
11.62 0.334621
11.63 0.183865
11.64 0.0468028
11.65 -0.0741323
11.66 -0.181233
11.67 -0.27438
11.68 -0.354854
11.69 -0.424861
11.7 -0.48479
11.71 -0.537687
11.72 -0.584372
11.73 -0.626816
11.74 -0.666239
11.75 -0.703589
11.76 -0.739762
11.77 -0.775013
11.78 -0.809522
11.79 -0.842999
11.8 -0.874863
11.81 -0.904527
11.82 -0.930554
11.83 -0.952372
11.84 -0.968223
11.85 -0.977152
11.86 -0.978047
11.87 -0.96904
11.88 -0.950307
11.89 -0.919357
11.9 -0.877005
11.91 -0.822116
11.92 -0.754508
11.93 -0.675215
11.94 -0.583103
11.95 -0.480752
11.96 -0.368066
11.97 -0.247198
11.98 -0.119806
11.99 0.0123065
12 0.146544
12.01 0.280544
12.02 0.411746
12.03 0.53745
12.04 0.6548
12.05 0.762137
12.06 0.85536
12.07 0.934494
12.08 0.996102
12.09 1.03989
12.1 1.06522
12.11 1.07042
12.12 1.05801
12.13 1.02606
12.14 0.978219
12.15 0.915151
12.16 0.83914
12.17 0.753309
12.18 0.659301
12.19 0.56093
12.2 0.460467
12.21 0.36079
12.22 0.264094
12.23 0.172879
12.24 0.0879992
12.25 0.0117132
12.26 -0.0563696
12.27 -0.115608
12.28 -0.166355
12.29 -0.209915
12.3 -0.246558
12.31 -0.278615
12.32 -0.307123
12.33 -0.333979
12.34 -0.360608
12.35 -0.388496
12.36 -0.418466
12.37 -0.451607
12.38 -0.487806
12.39 -0.527076
12.4 -0.568731
12.41 -0.611647
12.42 -0.65435
