# xPDFsuite Configuration #
[PDF]
wavelength = 0.1432
dataformat = twotheta
inputfile = 1_1Pd_CeO2_cycle-00354.chi
backgroundfile = background-00000.chi
mode = xray
bgscale = 1.007
composition = CeO2
outputtype = gr
qmaxinst = 28.8974762299
qmin = 0.5
qmax = 27.9
rmax = 50.0
rmin = 0.0
rstep = 0.01
rpoly = 1.8657

[Misc]
inputdir = G:/SankarDec16/1Pd/Chi
savedir = D:/DATA/APS_CeO2/1Pd
backgroundfilefull = G:/SankarDec16/Background/background-00000.chi

#### start data
#S 1
#L r($\AA$)  G($\AA^{-2}$)
0 0
0.01 -0.00554924
0.02 -0.0106789
0.03 -0.0149572
0.04 -0.0180591
0.05 -0.0198039
0.06 -0.0199019
0.07 -0.0185476
0.08 -0.0156494
0.09 -0.011578
0.1 -0.00659098
0.11 -0.00108132
0.12 0.00452397
0.13 0.00974424
0.14 0.0142421
0.15 0.0176025
0.16 0.0195847
0.17 0.0200944
0.18 0.0189369
0.19 0.0164002
0.2 0.0125001
0.21 0.00766999
0.22 0.00223101
0.23 -0.0033751
0.24 -0.00874783
0.25 -0.0133697
0.26 -0.0170021
0.27 -0.0192682
0.28 -0.0200234
0.29 -0.0192644
0.3 -0.016902
0.31 -0.0133031
0.32 -0.00859026
0.33 -0.00323782
0.34 0.00238549
0.35 0.00781122
0.36 0.0126857
0.37 0.0164806
0.38 0.0190683
0.39 0.0201293
0.4 0.0196226
0.41 0.0176363
0.42 0.0141915
0.43 0.00971573
0.44 0.00443228
0.45 -0.00116708
0.46 -0.0066848
0.47 -0.011649
0.48 -0.0157709
0.49 -0.0185382
0.5 -0.0199408
0.51 -0.0197328
0.52 -0.0179794
0.53 -0.0148561
0.54 -0.0104934
0.55 -0.00535821
0.56 0.000236417
0.57 0.00580586
0.58 0.010944
0.59 0.0151989
0.6 0.018362
0.61 0.0199626
0.62 0.0201093
0.63 0.0186424
0.64 0.0157305
0.65 0.0116277
0.66 0.00656814
0.67 0.00103437
0.68 -0.0045864
0.69 -0.00984091
0.7 -0.014335
0.71 -0.0176597
0.72 -0.0196968
0.73 -0.0200414
0.74 -0.0189146
0.75 -0.0162512
0.76 -0.0123139
0.77 -0.00742182
0.78 -0.00189964
0.79 0.00377938
0.8 0.00917601
0.81 0.013892
0.82 0.0175675
0.83 0.0198585
0.84 0.0207439
0.85 0.019908
0.86 0.0176715
0.87 0.0140672
0.88 0.00943637
0.89 0.0041438
0.9 -0.00141641
0.91 -0.00681106
0.92 -0.0115807
0.93 -0.0154116
0.94 -0.0180085
0.95 -0.0191267
0.96 -0.0188515
0.97 -0.0170006
0.98 -0.0139812
0.99 -0.00994673
1 -0.0053117
1.01 -0.000473785
1.02 0.00409933
1.03 0.00805264
1.04 0.0109117
1.05 0.0124856
1.06 0.0125695
1.07 0.0110511
1.08 0.00815682
1.09 0.00388292
1.1 -0.0012444
1.11 -0.00689935
1.12 -0.0125471
1.13 -0.0177182
1.14 -0.0217863
1.15 -0.0244605
1.16 -0.0251447
1.17 -0.023749
1.18 -0.0200912
1.19 -0.0141144
1.2 -0.00620355
1.21 0.0036084
1.22 0.0145892
1.23 0.0263074
1.24 0.0380661
1.25 0.0492592
1.26 0.0590826
1.27 0.0671427
1.28 0.0726398
1.29 0.0753913
1.3 0.0750685
1.31 0.0714393
1.32 0.0648766
1.33 0.0551061
1.34 0.0429529
1.35 0.0286415
1.36 0.0128415
1.37 -0.00381886
1.38 -0.0206899
1.39 -0.0371397
1.4 -0.0524651
1.41 -0.0662106
1.42 -0.0779021
1.43 -0.0870734
1.44 -0.0937566
1.45 -0.0973631
1.46 -0.098325
1.47 -0.0964456
1.48 -0.0919706
1.49 -0.0852012
1.5 -0.0761992
1.51 -0.0655385
1.52 -0.0533388
1.53 -0.0400926
1.54 -0.0260964
1.55 -0.0117044
1.56 0.00273984
1.57 0.016859
1.58 0.0303755
1.59 0.0429102
1.6 0.0541506
1.61 0.0638679
1.62 0.071569
1.63 0.0772654
1.64 0.0804393
1.65 0.0811384
1.66 0.0791896
1.67 0.0744582
1.68 0.0672719
1.69 0.0573805
1.7 0.0454381
1.71 0.0315893
1.72 0.0163645
1.73 0.000289219
1.74 -0.0160838
1.75 -0.0321633
1.76 -0.0472938
1.77 -0.0610083
1.78 -0.0728359
1.79 -0.0823176
1.8 -0.0894932
1.81 -0.0938856
1.82 -0.0960016
1.83 -0.0958654
1.84 -0.0939658
1.85 -0.0908428
1.86 -0.0870463
1.87 -0.0832668
1.88 -0.0801854
1.89 -0.0783454
1.9 -0.078241
1.91 -0.0803239
1.92 -0.0845332
1.93 -0.0912154
1.94 -0.0997812
1.95 -0.109998
1.96 -0.121175
1.97 -0.132594
1.98 -0.143326
1.99 -0.152626
2 -0.159373
2.01 -0.162973
2.02 -0.162711
2.03 -0.15789
2.04 -0.148711
2.05 -0.134351
2.06 -0.11575
2.07 -0.0928817
2.08 -0.0664873
2.09 -0.0373708
2.1 -0.00615539
2.11 0.0261082
2.12 0.0587305
2.13 0.0909769
2.14 0.122347
2.15 0.15245
2.16 0.181323
2.17 0.208902
2.18 0.235716
2.19 0.262201
2.2 0.289049
2.21 0.31687
2.22 0.346519
2.23 0.378273
2.24 0.412796
2.25 0.449935
2.26 0.489549
2.27 0.531103
2.28 0.57358
2.29 0.615696
2.3 0.655974
2.31 0.692502
2.32 0.723361
2.33 0.747064
2.34 0.760807
2.35 0.764432
2.36 0.755297
2.37 0.733779
2.38 0.699374
2.39 0.651985
2.4 0.593775
2.41 0.524611
2.42 0.448099
2.43 0.365909
2.44 0.281103
2.45 0.196384
2.46 0.11498
2.47 0.03895
2.48 -0.02852
2.49 -0.086275
2.5 -0.132869
2.51 -0.167147
2.52 -0.190377
2.53 -0.201442
2.54 -0.20341
2.55 -0.197185
2.56 -0.185346
2.57 -0.170351
2.58 -0.154702
2.59 -0.140747
2.6 -0.130987
2.61 -0.126856
2.62 -0.129649
2.63 -0.140357
2.64 -0.158204
2.65 -0.183748
2.66 -0.214727
2.67 -0.250085
2.68 -0.287623
2.69 -0.325318
2.7 -0.360753
2.71 -0.392354
2.72 -0.417817
2.73 -0.436386
2.74 -0.447218
2.75 -0.44985
2.76 -0.445527
2.77 -0.434235
2.78 -0.418505
2.79 -0.399787
2.8 -0.38046
2.81 -0.362568
2.82 -0.348675
2.83 -0.339999
2.84 -0.338763
2.85 -0.345247
2.86 -0.359904
2.87 -0.382681
2.88 -0.411879
2.89 -0.446836
2.9 -0.484731
2.91 -0.523567
2.92 -0.560671
2.93 -0.59391
2.94 -0.620343
2.95 -0.639157
2.96 -0.64798
2.97 -0.647046
2.98 -0.636212
2.99 -0.615961
3 -0.588565
3.01 -0.555137
3.02 -0.519009
3.03 -0.482609
3.04 -0.448953
3.05 -0.420339
3.06 -0.399965
3.07 -0.38844
3.08 -0.388154
3.09 -0.398515
3.1 -0.419369
3.11 -0.449832
3.12 -0.487245
3.13 -0.530013
3.14 -0.574569
3.15 -0.618154
3.16 -0.657643
3.17 -0.690802
3.18 -0.71447
3.19 -0.728496
3.2 -0.730866
3.21 -0.722805
3.22 -0.705106
3.23 -0.679484
3.24 -0.649077
3.25 -0.616631
3.26 -0.58581
3.27 -0.560129
3.28 -0.542903
3.29 -0.536222
3.3 -0.543541
3.31 -0.564049
3.32 -0.599592
3.33 -0.647824
3.34 -0.7071
3.35 -0.774592
3.36 -0.846148
3.37 -0.917672
3.38 -0.984826
3.39 -1.04304
3.4 -1.08842
3.41 -1.11874
3.42 -1.12996
3.43 -1.12377
3.44 -1.09828
3.45 -1.057
3.46 -1.00243
3.47 -0.938543
3.48 -0.870637
3.49 -0.80409
3.5 -0.743993
3.51 -0.69578
3.52 -0.663608
3.53 -0.649403
3.54 -0.656745
3.55 -0.682364
3.56 -0.72615
3.57 -0.781956
3.58 -0.844103
3.59 -0.904046
3.6 -0.953768
3.61 -0.980092
3.62 -0.97621
3.63 -0.929645
3.64 -0.831773
3.65 -0.678241
3.66 -0.456735
3.67 -0.173671
3.68 0.17896
3.69 0.591729
3.7 1.05977
3.71 1.57493
3.72 2.12145
3.73 2.68825
3.74 3.25648
3.75 3.80961
3.76 4.32942
3.77 4.80226
3.78 5.20522
3.79 5.53487
3.8 5.77007
3.81 5.91095
3.82 5.95166
3.83 5.88718
3.84 5.73103
3.85 5.47494
3.86 5.14259
3.87 4.73879
3.88 4.28025
3.89 3.78348
3.9 3.26221
3.91 2.73457
3.92 2.21546
3.93 1.71821
3.94 1.2542
3.95 0.835285
3.96 0.462914
3.97 0.149709
3.98 -0.111307
3.99 -0.316343
4 -0.47001
4.01 -0.579194
4.02 -0.645915
4.03 -0.682505
4.04 -0.69285
4.05 -0.686899
4.06 -0.670896
4.07 -0.651245
4.08 -0.632896
4.09 -0.62044
4.1 -0.615501
4.11 -0.619904
4.12 -0.633432
4.13 -0.654703
4.14 -0.682495
4.15 -0.713657
4.16 -0.745768
4.17 -0.775863
4.18 -0.801458
4.19 -0.819859
4.2 -0.830247
4.21 -0.829948
4.22 -0.819954
4.23 -0.799446
4.24 -0.769263
4.25 -0.730754
4.26 -0.684389
4.27 -0.632526
4.28 -0.575904
4.29 -0.516253
4.3 -0.454523
4.31 -0.391504
4.32 -0.327774
4.33 -0.263433
4.34 -0.198509
4.35 -0.132713
4.36 -0.065719
4.37 0.002692
4.38 0.072884
4.39 0.144575
4.4 0.217597
4.41 0.291108
4.42 0.364109
4.43 0.434992
4.44 0.502426
4.45 0.56361
4.46 0.61738
4.47 0.66107
4.48 0.692838
4.49 0.711784
4.5 0.715014
4.51 0.70392
4.52 0.676431
4.53 0.634372
4.54 0.578464
4.55 0.509852
4.56 0.431731
4.57 0.345287
4.58 0.254372
4.59 0.161309
4.6 0.0690878
4.61 -0.0200317
4.62 -0.103175
4.63 -0.179469
4.64 -0.246697
4.65 -0.304886
4.66 -0.35375
4.67 -0.393282
4.68 -0.425211
4.69 -0.449626
4.7 -0.469035
4.71 -0.484546
4.72 -0.497955
4.73 -0.51071
4.74 -0.524177
4.75 -0.53917
4.76 -0.556531
4.77 -0.57631
4.78 -0.598424
4.79 -0.622468
4.8 -0.647586
4.81 -0.672906
4.82 -0.697385
4.83 -0.719948
4.84 -0.739624
4.85 -0.755859
4.86 -0.767647
4.87 -0.775345
4.88 -0.778469
4.89 -0.777757
4.9 -0.77372
4.91 -0.767121
4.92 -0.759103
4.93 -0.750614
4.94 -0.742744
4.95 -0.736471
4.96 -0.732616
4.97 -0.73159
4.98 -0.734119
4.99 -0.73981
5 -0.748908
5.01 -0.760735
5.02 -0.774809
5.03 -0.790478
5.04 -0.80691
5.05 -0.8234
5.06 -0.839274
5.07 -0.853936
5.08 -0.866955
5.09 -0.878169
5.1 -0.887222
5.11 -0.894393
5.12 -0.899498
5.13 -0.902778
5.14 -0.904224
5.15 -0.903633
5.16 -0.900971
5.17 -0.895313
5.18 -0.886312
5.19 -0.872673
5.2 -0.853118
5.21 -0.826631
5.22 -0.790608
5.23 -0.744836
5.24 -0.686503
5.25 -0.615362
5.26 -0.530417
5.27 -0.430604
5.28 -0.317695
5.29 -0.190522
5.3 -0.0526901
5.31 0.0944344
5.32 0.247424
5.33 0.402707
5.34 0.555905
5.35 0.703146
5.36 0.83893
5.37 0.959589
5.38 1.06103
5.39 1.1383
5.4 1.19132
5.41 1.21369
5.42 1.20858
5.43 1.1736
5.44 1.11037
5.45 1.02218
5.46 0.909423
5.47 0.778932
5.48 0.632948
5.49 0.477676
5.5 0.317619
5.51 0.157991
5.52 0.00290109
5.53 -0.142213
5.54 -0.275292
5.55 -0.392706
5.56 -0.492769
5.57 -0.575536
5.58 -0.638855
5.59 -0.686025
5.6 -0.716411
5.61 -0.733377
5.62 -0.738886
5.63 -0.735129
5.64 -0.725304
5.65 -0.710989
5.66 -0.694748
5.67 -0.677889
5.68 -0.661519
5.69 -0.646049
5.7 -0.631544
5.71 -0.617395
5.72 -0.602724
5.73 -0.586392
5.74 -0.5672
5.75 -0.543642
5.76 -0.515224
5.77 -0.480268
5.78 -0.439315
5.79 -0.39196
5.8 -0.338965
5.81 -0.281623
5.82 -0.221186
5.83 -0.159908
5.84 -0.0999896
5.85 -0.0437715
5.86 0.00649178
5.87 0.0480434
5.88 0.0800715
5.89 0.0992683
5.9 0.10639
5.91 0.0999792
5.92 0.0804026
5.93 0.0489973
5.94 0.00573772
5.95 -0.046184
5.96 -0.105779
5.97 -0.170105
5.98 -0.237054
5.99 -0.304242
6 -0.36978
6.01 -0.431404
6.02 -0.488298
6.03 -0.539187
6.04 -0.583696
6.05 -0.622189
6.06 -0.654444
6.07 -0.682058
6.08 -0.705529
6.09 -0.726436
6.1 -0.745904
6.11 -0.765152
6.12 -0.785089
6.13 -0.806648
6.14 -0.830009
6.15 -0.85538
6.16 -0.882437
6.17 -0.910572
6.18 -0.938991
6.19 -0.966733
6.2 -0.992633
6.21 -1.0158
6.22 -1.0354
6.23 -1.05053
6.24 -1.06136
6.25 -1.06714
6.26 -1.06887
6.27 -1.06679
6.28 -1.06187
6.29 -1.05512
6.3 -1.04746
6.31 -1.03982
6.32 -1.03282
6.33 -1.02661
6.34 -1.02087
6.35 -1.01454
6.36 -1.00619
6.37 -0.99281
6.38 -0.972061
6.39 -0.939804
6.4 -0.891821
6.41 -0.825063
6.42 -0.732262
6.43 -0.61303
6.44 -0.460178
6.45 -0.273358
6.46 -0.0504771
6.47 0.210977
6.48 0.506124
6.49 0.837855
6.5 1.19723
6.51 1.58114
6.52 1.98172
6.53 2.39062
6.54 2.79837
6.55 3.19575
6.56 3.57079
6.57 3.91469
6.58 4.21807
6.59 4.46905
6.6 4.66646
6.61 4.79473
6.62 4.85915
6.63 4.85245
6.64 4.77567
6.65 4.63454
6.66 4.42578
6.67 4.16422
6.68 3.85092
6.69 3.4991
6.7 3.11751
6.71 2.7161
6.72 2.30644
6.73 1.89867
6.74 1.50202
6.75 1.12568
6.76 0.777262
6.77 0.460512
6.78 0.184246
6.79 -0.0545288
6.8 -0.249922
6.81 -0.405773
6.82 -0.523394
6.83 -0.60407
6.84 -0.655258
6.85 -0.677145
6.86 -0.678498
6.87 -0.662401
6.88 -0.634204
6.89 -0.598533
6.9 -0.558823
6.91 -0.518625
6.92 -0.480428
6.93 -0.445885
6.94 -0.416012
6.95 -0.391554
6.96 -0.371877
6.97 -0.35728
6.98 -0.346412
6.99 -0.338828
7 -0.333688
7.01 -0.330306
7.02 -0.328459
7.03 -0.32782
7.04 -0.328711
7.05 -0.331452
7.06 -0.336658
7.07 -0.345336
7.08 -0.357879
7.09 -0.375841
7.1 -0.399177
7.11 -0.428776
7.12 -0.464752
7.13 -0.506608
7.14 -0.554488
7.15 -0.606735
7.16 -0.662649
7.17 -0.720408
7.18 -0.778464
7.19 -0.834867
7.2 -0.888218
7.21 -0.936193
7.22 -0.978131
7.23 -1.01252
7.24 -1.03873
7.25 -1.057
7.26 -1.06657
7.27 -1.06922
7.28 -1.06511
7.29 -1.05612
7.3 -1.04363
7.31 -1.02922
7.32 -1.0145
7.33 -1.00098
7.34 -0.989581
7.35 -0.98115
7.36 -0.9759
7.37 -0.973396
7.38 -0.973057
7.39 -0.973331
7.4 -0.972448
7.41 -0.968265
7.42 -0.958528
7.43 -0.940157
7.44 -0.911879
7.45 -0.869553
7.46 -0.81318
7.47 -0.740305
7.48 -0.650275
7.49 -0.543989
7.5 -0.420118
7.51 -0.282392
7.52 -0.131249
7.53 0.0293945
7.54 0.196484
7.55 0.366147
7.56 0.534421
7.57 0.696364
7.58 0.848687
7.59 0.986836
7.6 1.10714
7.61 1.20789
7.62 1.28386
7.63 1.33681
7.64 1.36285
7.65 1.36383
7.66 1.3401
7.67 1.29176
7.68 1.22326
7.69 1.13409
7.7 1.02993
7.71 0.912736
7.72 0.786349
7.73 0.654453
7.74 0.52026
7.75 0.387193
7.76 0.258533
7.77 0.136791
7.78 0.0242122
7.79 -0.076505
7.8 -0.165261
7.81 -0.238859
7.82 -0.298625
7.83 -0.343215
7.84 -0.372902
7.85 -0.388975
7.86 -0.390585
7.87 -0.380739
7.88 -0.359367
7.89 -0.328958
7.9 -0.291091
7.91 -0.247482
7.92 -0.200588
7.93 -0.152219
7.94 -0.10467
7.95 -0.0600039
7.96 -0.0203195
7.97 0.0130396
7.98 0.0374334
7.99 0.0528289
8 0.0570451
8.01 0.050234
8.02 0.0320944
8.03 0.00216351
8.04 -0.0377569
8.05 -0.0882175
8.06 -0.146516
8.07 -0.211704
8.08 -0.28174
8.09 -0.354571
8.1 -0.428282
8.11 -0.500916
8.12 -0.570503
8.13 -0.635669
8.14 -0.69526
8.15 -0.748021
8.16 -0.794304
8.17 -0.833029
8.18 -0.865559
8.19 -0.8921
8.2 -0.913747
8.21 -0.931803
8.22 -0.94713
8.23 -0.961133
8.24 -0.974551
8.25 -0.988005
8.26 -1.00162
8.27 -1.01499
8.28 -1.02732
8.29 -1.03676
8.3 -1.04166
8.31 -1.03925
8.32 -1.02645
8.33 -1.00108
8.34 -0.957836
8.35 -0.896232
8.36 -0.811054
8.37 -0.701605
8.38 -0.566241
8.39 -0.402582
8.4 -0.213886
8.41 0.00252598
8.42 0.240683
8.43 0.498921
8.44 0.772258
8.45 1.05497
8.46 1.34136
8.47 1.62461
8.48 1.89722
8.49 2.15268
8.5 2.38467
8.51 2.58483
8.52 2.75168
8.53 2.87472
8.54 2.95626
8.55 2.9911
8.56 2.97876
8.57 2.9226
8.58 2.81905
8.59 2.6776
8.6 2.49787
8.61 2.288
8.62 2.05335
8.63 1.7996
8.64 1.53485
8.65 1.26472
8.66 0.99629
8.67 0.735387
8.68 0.487646
8.69 0.256286
8.7 0.0475129
8.71 -0.139347
8.72 -0.299929
8.73 -0.435496
8.74 -0.546256
8.75 -0.632036
8.76 -0.697276
8.77 -0.741373
8.78 -0.769918
8.79 -0.784735
8.8 -0.789378
8.81 -0.787297
8.82 -0.780977
8.83 -0.773524
8.84 -0.767135
8.85 -0.763645
8.86 -0.764329
8.87 -0.770416
8.88 -0.781685
8.89 -0.798951
8.9 -0.821034
8.91 -0.847606
8.92 -0.877611
8.93 -0.909849
8.94 -0.94328
8.95 -0.976627
8.96 -1.00875
8.97 -1.03873
8.98 -1.06581
8.99 -1.08917
9 -1.10888
9.01 -1.12418
9.02 -1.13571
9.03 -1.14341
9.04 -1.14774
9.05 -1.14935
9.06 -1.14847
9.07 -1.14595
9.08 -1.14208
9.09 -1.13734
9.1 -1.13194
9.11 -1.12592
9.12 -1.11922
9.13 -1.11138
9.14 -1.10205
9.15 -1.09046
9.16 -1.0758
9.17 -1.05748
9.18 -1.03402
9.19 -1.00535
9.2 -0.970118
9.21 -0.928229
9.22 -0.879419
9.23 -0.823288
9.24 -0.760964
9.25 -0.692229
9.26 -0.618962
9.27 -0.542169
9.28 -0.463683
9.29 -0.385321
9.3 -0.309449
9.31 -0.237744
9.32 -0.172873
9.33 -0.116398
9.34 -0.0699304
9.35 -0.0356261
9.36 -0.0130174
9.37 -0.00453774
9.38 -0.00835338
9.39 -0.0248306
9.4 -0.0527583
9.41 -0.0900529
9.42 -0.135788
9.43 -0.186685
9.44 -0.240915
9.45 -0.295663
9.46 -0.348679
9.47 -0.39736
9.48 -0.440424
9.49 -0.475252
9.5 -0.501837
9.51 -0.51907
9.52 -0.527008
9.53 -0.526723
9.54 -0.518281
9.55 -0.504192
9.56 -0.485564
9.57 -0.464771
9.58 -0.443717
9.59 -0.424631
9.6 -0.40897
9.61 -0.399032
9.62 -0.395294
9.63 -0.39895
9.64 -0.410316
9.65 -0.428783
9.66 -0.454667
9.67 -0.486049
9.68 -0.522352
9.69 -0.561758
9.7 -0.602874
9.71 -0.644151
9.72 -0.684335
9.73 -0.721966
9.74 -0.756486
9.75 -0.787113
9.76 -0.813563
9.77 -0.836095
9.78 -0.854413
9.79 -0.869414
9.8 -0.881035
9.81 -0.889749
9.82 -0.895557
9.83 -0.897899
9.84 -0.896454
9.85 -0.889183
9.86 -0.874978
9.87 -0.851057
9.88 -0.814369
9.89 -0.762839
9.9 -0.690497
9.91 -0.596881
9.92 -0.475905
9.93 -0.326304
9.94 -0.145869
9.95 0.0690539
9.96 0.315066
9.97 0.596349
9.98 0.906403
9.99 1.244
10 1.60391
10.01 1.97932
10.02 2.36425
10.03 2.74978
10.04 3.12717
10.05 3.48765
10.06 3.823
10.07 4.12214
10.08 4.38208
10.09 4.58909
10.1 4.7445
10.11 4.84103
10.12 4.8766
10.13 4.85493
10.14 4.7699
10.15 4.63344
10.16 4.44412
10.17 4.21192
10.18 3.94357
10.19 3.64573
10.2 3.32937
10.21 3.00103
10.22 2.67053
10.23 2.34515
10.24 2.03232
10.25 1.73648
10.26 1.46522
10.27 1.21824
10.28 1.00055
10.29 0.81088
10.3 0.648695
10.31 0.513985
10.32 0.40143
10.33 0.311084
10.34 0.236592
10.35 0.175441
10.36 0.123541
10.37 0.0771043
10.38 0.0332695
10.39 -0.0108633
10.4 -0.0574553
10.41 -0.107873
10.42 -0.162897
10.43 -0.223121
10.44 -0.287735
10.45 -0.356679
10.46 -0.428393
10.47 -0.501885
10.48 -0.575694
10.49 -0.648581
10.5 -0.718947
10.51 -0.786047
10.52 -0.848488
10.53 -0.905775
10.54 -0.957398
10.55 -1.00258
10.56 -1.04187
10.57 -1.07427
10.58 -1.10068
10.59 -1.12079
10.6 -1.13474
10.61 -1.14305
10.62 -1.14508
10.63 -1.14178
10.64 -1.13257
10.65 -1.11794
10.66 -1.09799
10.67 -1.07258
10.68 -1.04254
10.69 -1.00758
10.7 -0.968825
10.71 -0.926682
10.72 -0.882057
10.73 -0.835995
10.74 -0.78956
10.75 -0.743947
10.76 -0.700528
10.77 -0.660458
10.78 -0.624828
10.79 -0.59513
10.8 -0.571524
10.81 -0.555753
10.82 -0.547303
10.83 -0.54686
10.84 -0.554331
10.85 -0.56888
10.86 -0.59082
10.87 -0.618349
10.88 -0.651155
10.89 -0.687748
10.9 -0.727038
10.91 -0.76788
10.92 -0.809056
10.93 -0.849442
10.94 -0.888195
10.95 -0.924454
10.96 -0.957558
10.97 -0.987337
10.98 -1.01305
10.99 -1.0352
11 -1.05345
11.01 -1.06828
11.02 -1.08002
11.03 -1.08892
11.04 -1.09573
11.05 -1.10069
11.06 -1.10454
11.07 -1.10766
11.08 -1.11057
11.09 -1.11363
11.1 -1.11727
11.11 -1.12165
11.12 -1.12703
11.13 -1.13338
11.14 -1.14063
11.15 -1.14857
11.16 -1.15675
11.17 -1.16456
11.18 -1.17123
11.19 -1.17572
11.2 -1.1767
11.21 -1.17313
11.22 -1.1625
11.23 -1.14412
11.24 -1.11511
11.25 -1.07413
11.26 -1.01947
11.27 -0.948239
11.28 -0.86089
11.29 -0.753527
11.3 -0.627806
11.31 -0.482232
11.32 -0.317132
11.33 -0.134705
11.34 0.0655975
11.35 0.278996
11.36 0.503974
11.37 0.735937
11.38 0.970948
11.39 1.20401
11.4 1.43083
11.41 1.64486
11.42 1.84263
11.43 2.01851
11.44 2.1678
11.45 2.28898
11.46 2.37471
11.47 2.42799
11.48 2.44373
11.49 2.4242
11.5 2.37042
11.51 2.28216
11.52 2.16591
11.53 2.02125
11.54 1.85595
11.55 1.67316
11.56 1.4783
11.57 1.27674
11.58 1.07317
11.59 0.872291
11.6 0.678632
11.61 0.495436
11.62 0.325256
11.63 0.171269
11.64 0.0327603
11.65 -0.0873408
11.66 -0.191572
11.67 -0.279802
11.68 -0.353607
11.69 -0.415676
11.7 -0.466789
11.71 -0.510651
11.72 -0.548653
11.73 -0.583333
11.74 -0.616379
11.75 -0.649299
11.76 -0.683041
11.77 -0.718353
11.78 -0.755126
11.79 -0.79309
11.8 -0.831387
11.81 -0.868962
11.82 -0.904067
11.83 -0.935479
11.84 -0.960968
11.85 -0.979045
11.86 -0.988177
11.87 -0.986008
11.88 -0.972619
11.89 -0.945103
11.9 -0.904465
11.91 -0.849532
11.92 -0.780317
11.93 -0.698204
11.94 -0.602273
11.95 -0.495603
11.96 -0.378433
11.97 -0.253311
11.98 -0.1222
11.99 0.0127662
12 0.148921
12.01 0.283646
12.02 0.414521
12.03 0.538851
12.04 0.653946
12.05 0.758398
12.06 0.848305
12.07 0.924014
12.08 0.98235
12.09 1.02327
12.1 1.04633
12.11 1.05007
12.12 1.03701
12.13 1.00539
12.14 0.958707
12.15 0.897595
12.16 0.824203
12.17 0.741463
12.18 0.650882
12.19 0.556053
12.2 0.459092
12.21 0.362725
12.22 0.269045
12.23 0.180446
12.24 0.0977937
12.25 0.0232842
12.26 -0.0433891
12.27 -0.101559
12.28 -0.151508
12.29 -0.194466
12.3 -0.230661
12.31 -0.262363
12.32 -0.290599
12.33 -0.317265
12.34 -0.343813
12.35 -0.371791
12.36 -0.40206
12.37 -0.435819
12.38 -0.472979
12.39 -0.513623
12.4 -0.557095
12.41 -0.602233
