# xPDFsuite Configuration #
[PDF]
wavelength = 0.1432
dataformat = twotheta
inputfile = 1_1Pd_CeO2_cycle-00403.chi
backgroundfile = background-00000.chi
mode = xray
bgscale = 1.007
composition = CeO2
outputtype = gr
qmaxinst = 28.8974762299
qmin = 0.5
qmax = 27.9
rmax = 50.0
rmin = 0.0
rstep = 0.01
rpoly = 1.8657

[Misc]
inputdir = G:/SankarDec16/1Pd/Chi
savedir = D:/DATA/APS_CeO2/1Pd
backgroundfilefull = G:/SankarDec16/Background/background-00000.chi

#### start data
#S 1
#L r($\AA$)  G($\AA^{-2}$)
0 0
0.01 -0.00605661
0.02 -0.0116583
0.03 -0.0163365
0.04 -0.019738
0.05 -0.0216662
0.06 -0.0218042
0.07 -0.0203614
0.08 -0.0172349
0.09 -0.0128247
0.1 -0.00740719
0.11 -0.00140613
0.12 0.00471469
0.13 0.0104365
0.14 0.0153888
0.15 0.0191198
0.16 0.0213625
0.17 0.022009
0.18 0.0208403
0.19 0.0181629
0.2 0.0139844
0.21 0.00877076
0.22 0.00286518
0.23 -0.00325698
0.24 -0.00915781
0.25 -0.0142783
0.26 -0.018349
0.27 -0.0209555
0.28 -0.0219295
0.29 -0.0212566
0.3 -0.018826
0.31 -0.0150272
0.32 -0.00997865
0.33 -0.00419109
0.34 0.0019411
0.35 0.00791209
0.36 0.01333
0.37 0.0176209
0.38 0.0206287
0.39 0.0219955
0.4 0.0216594
0.41 0.0197006
0.42 0.0161217
0.43 0.011378
0.44 0.00569347
0.45 -0.000399234
0.46 -0.00647255
0.47 -0.0120128
0.48 -0.0166923
0.49 -0.0199484
0.5 -0.0217457
0.51 -0.0217995
0.52 -0.0201573
0.53 -0.0169908
0.54 -0.0124166
0.55 -0.00693498
0.56 -0.000865812
0.57 0.00526035
0.58 0.0110023
0.59 0.0158617
0.6 0.0195903
0.61 0.0216625
0.62 0.0221659
0.63 0.0209021
0.64 0.0180265
0.65 0.0137951
0.66 0.00843328
0.67 0.00246439
0.68 -0.00371045
0.69 -0.00958645
0.7 -0.014729
0.71 -0.0186774
0.72 -0.0212746
0.73 -0.0220558
0.74 -0.0212275
0.75 -0.0186868
0.76 -0.0146898
0.77 -0.00956428
0.78 -0.00363409
0.79 0.00257913
0.8 0.00861274
0.81 0.0140112
0.82 0.0183678
0.83 0.0212816
0.84 0.022694
0.85 0.0222244
0.86 0.0201868
0.87 0.0165785
0.88 0.0117422
0.89 0.00605949
0.9 -6.69578e-05
0.91 -0.00614642
0.92 -0.0116851
0.93 -0.0163051
0.94 -0.019657
0.95 -0.021432
0.96 -0.021679
0.97 -0.0201431
0.98 -0.0172327
0.99 -0.013065
1 -0.00806183
1.01 -0.00264436
1.02 0.00270688
1.03 0.00757037
1.04 0.0114326
1.05 0.0140321
1.06 0.0151057
1.07 0.0144732
1.08 0.0123228
1.09 0.0085752
1.1 0.00375808
1.11 -0.00184114
1.12 -0.00768166
1.13 -0.0132724
1.14 -0.0179803
1.15 -0.0214508
1.16 -0.0230598
1.17 -0.0226532
1.18 -0.0200019
1.19 -0.0149954
1.2 -0.0079843
1.21 0.00104977
1.22 0.011379
1.23 0.0225961
1.24 0.0340005
1.25 0.0449721
1.26 0.0547019
1.27 0.0627592
1.28 0.0683316
1.29 0.0712058
1.3 0.0710362
1.31 0.0675777
1.32 0.0611964
1.33 0.0516228
1.34 0.0396899
1.35 0.0256404
1.36 0.0101639
1.37 -0.00609546
1.38 -0.0224604
1.39 -0.0383028
1.4 -0.0529052
1.41 -0.0658348
1.42 -0.0766396
1.43 -0.0848949
1.44 -0.0906828
1.45 -0.0934905
1.46 -0.0938036
1.47 -0.0915088
1.48 -0.0869141
1.49 -0.0803574
1.5 -0.0719759
1.51 -0.062302
1.52 -0.05149
1.53 -0.0399484
1.54 -0.0279114
1.55 -0.0156277
1.56 -0.00331259
1.57 0.00881883
1.58 0.0206181
1.59 0.0318809
1.6 0.042429
1.61 0.0521144
1.62 0.0606054
1.63 0.0678419
1.64 0.0733965
1.65 0.0771725
1.66 0.0789047
1.67 0.0782965
1.68 0.0754467
1.69 0.0698687
1.7 0.0619698
1.71 0.0516176
1.72 0.0391026
1.73 0.024794
1.74 0.0089644
1.75 -0.00772715
1.76 -0.0248098
1.77 -0.0416401
1.78 -0.0576556
1.79 -0.0722127
1.8 -0.0850254
1.81 -0.0953539
1.82 -0.103322
1.83 -0.1086
1.84 -0.111326
1.85 -0.1118
1.86 -0.110184
1.87 -0.107196
1.88 -0.103247
1.89 -0.0990551
1.9 -0.0951925
1.91 -0.0923016
1.92 -0.0907138
1.93 -0.0910579
1.94 -0.093233
1.95 -0.0974239
1.96 -0.103379
1.97 -0.110695
1.98 -0.118919
1.99 -0.127309
2 -0.135086
2.01 -0.141475
2.02 -0.145687
2.03 -0.146818
2.04 -0.14461
2.05 -0.137918
2.06 -0.127096
2.07 -0.111619
2.08 -0.0916954
2.09 -0.0677408
2.1 -0.0397912
2.11 -0.00887259
2.12 0.0247601
2.13 0.0601821
2.14 0.0968307
2.15 0.134101
2.16 0.17149
2.17 0.208594
2.18 0.245227
2.19 0.281253
2.2 0.316714
2.21 0.351737
2.22 0.38646
2.23 0.421078
2.24 0.455693
2.25 0.490315
2.26 0.524811
2.27 0.558816
2.28 0.59191
2.29 0.623088
2.3 0.651712
2.31 0.67646
2.32 0.696156
2.33 0.709889
2.34 0.715655
2.35 0.71349
2.36 0.701412
2.37 0.67973
2.38 0.648019
2.39 0.606111
2.4 0.5556
2.41 0.496209
2.42 0.430674
2.43 0.360155
2.44 0.286978
2.45 0.213255
2.46 0.141469
2.47 0.073388
2.48 0.0115771
2.49 -0.0428371
2.5 -0.0885265
2.51 -0.12433
2.52 -0.151055
2.53 -0.167504
2.54 -0.176009
2.55 -0.17707
2.56 -0.172662
2.57 -0.164756
2.58 -0.155287
2.59 -0.146367
2.6 -0.14007
2.61 -0.137841
2.62 -0.140952
2.63 -0.150501
2.64 -0.166102
2.65 -0.188546
2.66 -0.216121
2.67 -0.248187
2.68 -0.283015
2.69 -0.318911
2.7 -0.353908
2.71 -0.386428
2.72 -0.414412
2.73 -0.436874
2.74 -0.452789
2.75 -0.461355
2.76 -0.463327
2.77 -0.458161
2.78 -0.447873
2.79 -0.43333
2.8 -0.416436
2.81 -0.398968
2.82 -0.382992
2.83 -0.369972
2.84 -0.361915
2.85 -0.359587
2.86 -0.363793
2.87 -0.37503
2.88 -0.392306
2.89 -0.41572
2.9 -0.443122
2.91 -0.473297
2.92 -0.504178
2.93 -0.533958
2.94 -0.560349
2.95 -0.582193
2.96 -0.597428
2.97 -0.60567
2.98 -0.60637
2.99 -0.599374
3 -0.586083
3.01 -0.566786
3.02 -0.543961
3.03 -0.519166
3.04 -0.494696
3.05 -0.472447
3.06 -0.45488
3.07 -0.442929
3.08 -0.438629
3.09 -0.442016
3.1 -0.453348
3.11 -0.472392
3.12 -0.4974
3.13 -0.527602
3.14 -0.560322
3.15 -0.593669
3.16 -0.625233
3.17 -0.653171
3.18 -0.675002
3.19 -0.690228
3.2 -0.697102
3.21 -0.696179
3.22 -0.687772
3.23 -0.672868
3.24 -0.653701
3.25 -0.632082
3.26 -0.610868
3.27 -0.592685
3.28 -0.580204
3.29 -0.575227
3.3 -0.58062
3.31 -0.596082
3.32 -0.623353
3.33 -0.660926
3.34 -0.707806
3.35 -0.762099
3.36 -0.820629
3.37 -0.880497
3.38 -0.938125
3.39 -0.989961
3.4 -1.03274
3.41 -1.06443
3.42 -1.08158
3.43 -1.08509
3.44 -1.07309
3.45 -1.04796
3.46 -1.01131
3.47 -0.965878
3.48 -0.91578
3.49 -0.86481
3.5 -0.817183
3.51 -0.777021
3.52 -0.747716
3.53 -0.730963
3.54 -0.729544
3.55 -0.741198
3.56 -0.765724
3.57 -0.798384
3.58 -0.834563
3.59 -0.867201
3.6 -0.889838
3.61 -0.891202
3.62 -0.865742
3.63 -0.80268
3.64 -0.694543
3.65 -0.537471
3.66 -0.320456
3.67 -0.0489111
3.68 0.284617
3.69 0.672158
3.7 1.1098
3.71 1.59078
3.72 2.10125
3.73 2.63181
3.74 3.16546
3.75 3.6875
3.76 4.18127
3.77 4.63402
3.78 5.02457
3.79 5.34897
3.8 5.58712
3.81 5.7381
3.82 5.79556
3.83 5.75357
3.84 5.6239
3.85 5.39721
3.86 5.09521
3.87 4.72127
3.88 4.29052
3.89 3.81841
3.9 3.31718
3.91 2.80491
3.92 2.29551
3.93 1.80282
3.94 1.33844
3.95 0.914686
3.96 0.534266
3.97 0.21043
3.98 -0.0623244
3.99 -0.279219
4 -0.443751
4.01 -0.562048
4.02 -0.635168
4.03 -0.675407
4.04 -0.686139
4.05 -0.677731
4.06 -0.65674
4.07 -0.630138
4.08 -0.603773
4.09 -0.583049
4.1 -0.57052
4.11 -0.568904
4.12 -0.578746
4.13 -0.59907
4.14 -0.629365
4.15 -0.666115
4.16 -0.707137
4.17 -0.74876
4.18 -0.787949
4.19 -0.821201
4.2 -0.846729
4.21 -0.860788
4.22 -0.863524
4.23 -0.853122
4.24 -0.829702
4.25 -0.794311
4.26 -0.746699
4.27 -0.68981
4.28 -0.624183
4.29 -0.552447
4.3 -0.476215
4.31 -0.397217
4.32 -0.317128
4.33 -0.237229
4.34 -0.158481
4.35 -0.0816787
4.36 -0.00727257
4.37 0.0646242
4.38 0.133589
4.39 0.199962
4.4 0.263328
4.41 0.323783
4.42 0.381005
4.43 0.43434
4.44 0.483618
4.45 0.527225
4.46 0.56501
4.47 0.595428
4.48 0.617484
4.49 0.630668
4.5 0.632953
4.51 0.625166
4.52 0.605579
4.53 0.575137
4.54 0.533952
4.55 0.48231
4.56 0.422245
4.57 0.353887
4.58 0.280019
4.59 0.201904
4.6 0.121663
4.61 0.0411153
4.62 -0.0377304
4.63 -0.113573
4.64 -0.184577
4.65 -0.250034
4.66 -0.309154
4.67 -0.361205
4.68 -0.406871
4.69 -0.445349
4.7 -0.47815
4.71 -0.505457
4.72 -0.528276
4.73 -0.54764
4.74 -0.564156
4.75 -0.578983
4.76 -0.592644
4.77 -0.605823
4.78 -0.618887
4.79 -0.63209
4.8 -0.645484
4.81 -0.65903
4.82 -0.672538
4.83 -0.685775
4.84 -0.698462
4.85 -0.710395
4.86 -0.721243
4.87 -0.731013
4.88 -0.739494
4.89 -0.746811
4.9 -0.75304
4.91 -0.758311
4.92 -0.762914
4.93 -0.766996
4.94 -0.770852
4.95 -0.774653
4.96 -0.778558
4.97 -0.782641
4.98 -0.786952
4.99 -0.791427
5 -0.796002
5.01 -0.800558
5.02 -0.804987
5.03 -0.809182
5.04 -0.81312
5.05 -0.816768
5.06 -0.820242
5.07 -0.823669
5.08 -0.827258
5.09 -0.831203
5.1 -0.835788
5.11 -0.841076
5.12 -0.847215
5.13 -0.854023
5.14 -0.861221
5.15 -0.868209
5.16 -0.87427
5.17 -0.878
5.18 -0.878361
5.19 -0.873504
5.2 -0.861626
5.21 -0.841408
5.22 -0.80977
5.23 -0.76663
5.24 -0.70896
5.25 -0.636831
5.26 -0.549476
5.27 -0.446175
5.28 -0.329206
5.29 -0.197833
5.3 -0.0561405
5.31 0.0940669
5.32 0.248998
5.33 0.404911
5.34 0.557114
5.35 0.701944
5.36 0.833839
5.37 0.949494
5.38 1.04512
5.39 1.11619
5.4 1.16307
5.41 1.17992
5.42 1.17028
5.43 1.13223
5.44 1.06773
5.45 0.980161
5.46 0.870256
5.47 0.744517
5.48 0.605262
5.49 0.45824
5.5 0.307611
5.51 0.158127
5.52 0.0133542
5.53 -0.121846
5.54 -0.245874
5.55 -0.355627
5.56 -0.449817
5.57 -0.528667
5.58 -0.59045
5.59 -0.638182
5.6 -0.671404
5.61 -0.693071
5.62 -0.704868
5.63 -0.708604
5.64 -0.706926
5.65 -0.700955
5.66 -0.692735
5.67 -0.683102
5.68 -0.672748
5.69 -0.661873
5.7 -0.650143
5.71 -0.637115
5.72 -0.621741
5.73 -0.60319
5.74 -0.580488
5.75 -0.552447
5.76 -0.519039
5.77 -0.478992
5.78 -0.433291
5.79 -0.381952
5.8 -0.326093
5.81 -0.267187
5.82 -0.206826
5.83 -0.147089
5.84 -0.0902969
5.85 -0.0384762
5.86 0.0063637
5.87 0.0418177
5.88 0.0675231
5.89 0.0806426
5.9 0.0823439
5.91 0.0716296
5.92 0.049232
5.93 0.0166559
5.94 -0.0257338
5.95 -0.0749739
5.96 -0.129918
5.97 -0.187984
5.98 -0.247329
5.99 -0.305946
6 -0.362469
6.01 -0.415135
6.02 -0.463633
6.03 -0.507215
6.04 -0.545961
6.05 -0.580477
6.06 -0.611046
6.07 -0.639079
6.08 -0.665349
6.09 -0.691107
6.1 -0.717266
6.11 -0.74473
6.12 -0.773838
6.13 -0.805101
6.14 -0.838083
6.15 -0.872462
6.16 -0.907376
6.17 -0.94188
6.18 -0.974594
6.19 -1.00461
6.2 -1.03038
6.21 -1.0512
6.22 -1.06635
6.23 -1.07509
6.24 -1.0781
6.25 -1.07486
6.26 -1.06701
6.27 -1.0552
6.28 -1.04089
6.29 -1.02549
6.3 -1.01038
6.31 -0.996602
6.32 -0.985135
6.33 -0.976069
6.34 -0.969087
6.35 -0.963089
6.36 -0.95631
6.37 -0.94568
6.38 -0.928426
6.39 -0.900209
6.4 -0.856537
6.41 -0.794157
6.42 -0.705646
6.43 -0.590565
6.44 -0.441714
6.45 -0.258852
6.46 -0.0400287
6.47 0.21703
6.48 0.507266
6.49 0.833215
6.5 1.18584
6.51 1.5618
6.52 1.95315
6.53 2.35164
6.54 2.74779
6.55 3.1328
6.56 3.49499
6.57 3.82609
6.58 4.11728
6.59 4.35741
6.6 4.54577
6.61 4.66779
6.62 4.72899
6.63 4.7228
6.64 4.65057
6.65 4.51797
6.66 4.32221
6.67 4.07726
6.68 3.78422
6.69 3.45535
6.7 3.0987
6.71 2.72326
6.72 2.33956
6.73 1.95653
6.74 1.58253
6.75 1.22564
6.76 0.892602
6.77 0.586795
6.78 0.315981
6.79 0.0777298
6.8 -0.122631
6.81 -0.288176
6.82 -0.419731
6.83 -0.517933
6.84 -0.588995
6.85 -0.63229
6.86 -0.65526
6.87 -0.65993
6.88 -0.650543
6.89 -0.631012
6.9 -0.603614
6.91 -0.571949
6.92 -0.537757
6.93 -0.503045
6.94 -0.469032
6.95 -0.436797
6.96 -0.406719
6.97 -0.379608
6.98 -0.355323
6.99 -0.33428
7 -0.316646
7.01 -0.302442
7.02 -0.292449
7.03 -0.286463
7.04 -0.285467
7.05 -0.289582
7.06 -0.299294
7.07 -0.315348
7.08 -0.337309
7.09 -0.366261
7.1 -0.401137
7.11 -0.442047
7.12 -0.488219
7.13 -0.538544
7.14 -0.592249
7.15 -0.647621
7.16 -0.703369
7.17 -0.757899
7.18 -0.809826
7.19 -0.857491
7.2 -0.9003
7.21 -0.936432
7.22 -0.966199
7.23 -0.988865
7.24 -1.00465
7.25 -1.01437
7.26 -1.01816
7.27 -1.01781
7.28 -1.01403
7.29 -1.00845
7.3 -1.00225
7.31 -0.996677
7.32 -0.992534
7.33 -0.990786
7.34 -0.991391
7.35 -0.994402
7.36 -0.999182
7.37 -1.00474
7.38 -1.0096
7.39 -1.01225
7.4 -1.01037
7.41 -1.00214
7.42 -0.985532
7.43 -0.957848
7.44 -0.918673
7.45 -0.864494
7.46 -0.796305
7.47 -0.712516
7.48 -0.613383
7.49 -0.500383
7.5 -0.373182
7.51 -0.23544
7.52 -0.0882179
7.53 0.0649136
7.54 0.221136
7.55 0.376957
7.56 0.529372
7.57 0.674071
7.58 0.808901
7.59 0.930258
7.6 1.03552
7.61 1.12369
7.62 1.19072
7.63 1.23845
7.64 1.26382
7.65 1.26846
7.66 1.25267
7.67 1.21639
7.68 1.1631
7.69 1.09196
7.7 1.0074
7.71 0.910563
7.72 0.804217
7.73 0.691201
7.74 0.573592
7.75 0.454435
7.76 0.336096
7.77 0.220979
7.78 0.111171
7.79 0.00922973
7.8 -0.0840692
7.81 -0.165571
7.82 -0.235574
7.83 -0.29225
7.84 -0.335059
7.85 -0.364557
7.86 -0.379132
7.87 -0.381262
7.88 -0.370228
7.89 -0.348248
7.9 -0.316682
7.91 -0.277047
7.92 -0.232123
7.93 -0.183619
7.94 -0.13442
7.95 -0.0868402
7.96 -0.0434482
7.97 -0.00602078
7.98 0.0223911
7.99 0.0414338
8 0.0486042
8.01 0.0439248
8.02 0.0270212
8.03 -0.00259112
8.04 -0.042905
8.05 -0.0943722
8.06 -0.153964
8.07 -0.220487
8.08 -0.291598
8.09 -0.365027
8.1 -0.438552
8.11 -0.510181
8.12 -0.577761
8.13 -0.639997
8.14 -0.695808
8.15 -0.744064
8.16 -0.785395
8.17 -0.818936
8.18 -0.846361
8.19 -0.868151
8.2 -0.885673
8.21 -0.900381
8.22 -0.913416
8.23 -0.926114
8.24 -0.939345
8.25 -0.953579
8.26 -0.96882
8.27 -0.984507
8.28 -0.999559
8.29 -1.01194
8.3 -1.01973
8.31 -1.01996
8.32 -1.00939
8.33 -0.985773
8.34 -0.943737
8.35 -0.882919
8.36 -0.7982
8.37 -0.689119
8.38 -0.554271
8.39 -0.391606
8.4 -0.2046
8.41 0.00900291
8.42 0.243147
8.43 0.495918
8.44 0.762268
8.45 1.0366
8.46 1.31318
8.47 1.58567
8.48 1.8468
8.49 2.09062
8.5 2.31128
8.51 2.50112
8.52 2.65905
8.53 2.77545
8.54 2.85282
8.55 2.88655
8.56 2.87643
8.57 2.82575
8.58 2.73133
8.59 2.60199
8.6 2.43735
8.61 2.24482
8.62 2.02917
8.63 1.79536
8.64 1.55068
8.65 1.29985
8.66 1.04927
8.67 0.803946
8.68 0.568851
8.69 0.346942
8.7 0.143626
8.71 -0.0413643
8.72 -0.204077
8.73 -0.345261
8.74 -0.464776
8.75 -0.562033
8.76 -0.640576
8.77 -0.699272
8.78 -0.742763
8.79 -0.772149
8.8 -0.790192
8.81 -0.799827
8.82 -0.802709
8.83 -0.801926
8.84 -0.799124
8.85 -0.796304
8.86 -0.794841
8.87 -0.796106
8.88 -0.800551
8.89 -0.80926
8.9 -0.821888
8.91 -0.838664
8.92 -0.859242
8.93 -0.88295
8.94 -0.909482
8.95 -0.937748
8.96 -0.96715
8.97 -0.996763
8.98 -1.02585
8.99 -1.05357
9 -1.07947
9.01 -1.10264
9.02 -1.12299
9.03 -1.14002
9.04 -1.15351
9.05 -1.16361
9.06 -1.16986
9.07 -1.17288
9.08 -1.17238
9.09 -1.16877
9.1 -1.16221
9.11 -1.15264
9.12 -1.14048
9.13 -1.12536
9.14 -1.10759
9.15 -1.08686
9.16 -1.06298
9.17 -1.0359
9.18 -1.00488
9.19 -0.970156
9.2 -0.930993
9.21 -0.887476
9.22 -0.839492
9.23 -0.786812
9.24 -0.730148
9.25 -0.669327
9.26 -0.605526
9.27 -0.539364
9.28 -0.472027
9.29 -0.40473
9.3 -0.339106
9.31 -0.276375
9.32 -0.218507
9.33 -0.166764
9.34 -0.122484
9.35 -0.0875114
9.36 -0.0617126
9.37 -0.047316
9.38 -0.0431683
9.39 -0.0499312
9.4 -0.0670131
9.41 -0.0929698
9.42 -0.127566
9.43 -0.168117
9.44 -0.213514
9.45 -0.261375
9.46 -0.309826
9.47 -0.356691
9.48 -0.400471
9.49 -0.438875
9.5 -0.471295
9.51 -0.496416
9.52 -0.513739
9.53 -0.523702
9.54 -0.525743
9.55 -0.521703
9.56 -0.511982
9.57 -0.498437
9.58 -0.482538
9.59 -0.466017
9.6 -0.450457
9.61 -0.437755
9.62 -0.428915
9.63 -0.42527
9.64 -0.427639
9.65 -0.436023
9.66 -0.451312
9.67 -0.472282
9.68 -0.499035
9.69 -0.530303
9.7 -0.565143
9.71 -0.602518
9.72 -0.64109
9.73 -0.679802
9.74 -0.717607
9.75 -0.75359
9.76 -0.786973
9.77 -0.817415
9.78 -0.844033
9.79 -0.867041
9.8 -0.885683
9.81 -0.899896
9.82 -0.909242
9.83 -0.91267
9.84 -0.909987
9.85 -0.898811
9.86 -0.878594
9.87 -0.846788
9.88 -0.800957
9.89 -0.739723
9.9 -0.65792
9.91 -0.555825
9.92 -0.428281
9.93 -0.274652
9.94 -0.0932889
9.95 0.118774
9.96 0.358338
9.97 0.628986
9.98 0.924959
9.99 1.2452
10 1.5852
10.01 1.93903
10.02 2.30158
10.03 2.66502
10.04 3.02172
10.05 3.36389
10.06 3.68418
10.07 3.97257
10.08 4.22614
10.09 4.43226
10.1 4.5917
10.11 4.69737
10.12 4.74681
10.13 4.74285
10.14 4.67905
10.15 4.56594
10.16 4.40132
10.17 4.19399
10.18 3.94972
10.19 3.67406
10.2 3.37746
10.21 3.06533
10.22 2.74747
10.23 2.43069
10.24 2.12239
10.25 1.82743
10.26 1.5533
10.27 1.30072
10.28 1.07499
10.29 0.875707
10.3 0.703021
10.31 0.55763
10.32 0.434802
10.33 0.33525
10.34 0.252892
10.35 0.185571
10.36 0.129327
10.37 0.0802444
10.38 0.0355391
10.39 -0.00816515
10.4 -0.0531911
10.41 -0.101354
10.42 -0.153774
10.43 -0.21141
10.44 -0.273721
10.45 -0.340942
10.46 -0.411584
10.47 -0.484744
10.48 -0.558914
10.49 -0.632698
10.5 -0.704358
10.51 -0.77287
10.52 -0.836599
10.53 -0.894804
10.54 -0.946778
10.55 -0.991534
10.56 -1.02963
10.57 -1.05996
10.58 -1.0836
10.59 -1.10038
10.6 -1.11072
10.61 -1.11541
10.62 -1.11421
10.63 -1.10836
10.64 -1.09769
10.65 -1.08291
10.66 -1.06433
10.67 -1.04202
10.68 -1.01666
10.69 -0.988093
10.7 -0.957035
10.71 -0.92368
10.72 -0.888516
10.73 -0.852141
10.74 -0.815097
10.75 -0.778157
10.76 -0.742133
10.77 -0.707842
10.78 -0.676077
10.79 -0.64796
10.8 -0.623813
10.81 -0.605069
10.82 -0.591661
10.83 -0.58439
10.84 -0.583552
10.85 -0.588797
10.86 -0.600846
10.87 -0.618456
10.88 -0.641809
10.89 -0.669851
10.9 -0.701844
10.91 -0.737059
10.92 -0.774269
10.93 -0.81271
10.94 -0.85127
10.95 -0.889085
10.96 -0.925265
10.97 -0.959283
10.98 -0.990177
10.99 -1.01798
11 -1.04203
11.01 -1.06244
11.02 -1.07927
11.03 -1.09244
11.04 -1.10264
11.05 -1.10984
11.06 -1.11487
11.07 -1.11809
11.08 -1.12011
11.09 -1.12148
11.1 -1.1227
11.11 -1.12422
11.12 -1.12641
11.13 -1.12949
11.14 -1.1335
11.15 -1.13839
11.16 -1.14377
11.17 -1.14916
11.18 -1.15378
11.19 -1.15661
11.2 -1.15635
11.21 -1.1519
11.22 -1.14084
11.23 -1.1224
11.24 -1.09379
11.25 -1.05369
11.26 -1.00044
11.27 -0.931251
11.28 -0.846593
11.29 -0.742746
11.3 -0.621322
11.31 -0.48091
11.32 -0.321829
11.33 -0.146172
11.34 0.0466233
11.35 0.252037
11.36 0.468713
11.37 0.692354
11.38 0.919301
11.39 1.14493
11.4 1.36521
11.41 1.57403
11.42 1.76807
11.43 1.94202
11.44 2.09134
11.45 2.21448
11.46 2.30432
11.47 2.36348
11.48 2.38689
11.49 2.37642
11.5 2.33275
11.51 2.25531
11.52 2.15012
11.53 2.01634
11.54 1.86134
11.55 1.68792
11.56 1.50118
11.57 1.30638
11.58 1.10789
11.59 0.910616
11.6 0.718991
11.61 0.536508
11.62 0.365927
11.63 0.210645
11.64 0.0703177
11.65 -0.0518795
11.66 -0.15817
11.67 -0.248194
11.68 -0.323328
11.69 -0.386193
11.7 -0.437451
11.71 -0.480938
11.72 -0.518093
11.73 -0.55166
11.74 -0.583521
11.75 -0.615437
11.76 -0.648546
11.77 -0.683884
11.78 -0.721429
11.79 -0.761066
11.8 -0.801979
11.81 -0.843019
11.82 -0.882434
11.83 -0.918716
11.84 -0.949467
11.85 -0.972898
11.86 -0.987218
11.87 -0.989758
11.88 -0.980438
11.89 -0.956051
11.9 -0.917603
11.91 -0.863833
11.92 -0.794815
11.93 -0.712129
11.94 -0.614997
11.95 -0.506852
11.96 -0.388224
11.97 -0.262005
11.98 -0.130441
11.99 0.00398665
12 0.138548
12.01 0.270349
12.02 0.397135
12.03 0.516259
12.04 0.625284
12.05 0.723169
12.06 0.806426
12.07 0.875881
12.08 0.92892
12.09 0.96597
12.1 0.986974
12.11 0.991033
12.12 0.9806
12.13 0.954397
12.14 0.915524
12.15 0.864554
12.16 0.803227
12.17 0.733871
12.18 0.657453
12.19 0.576773
12.2 0.493184
12.21 0.408693
12.22 0.32478
12.23 0.243062
12.24 0.164358
12.25 0.090149
12.26 0.0205364
12.27 -0.0438459
12.28 -0.102881
12.29 -0.157092
12.3 -0.206213
12.31 -0.251494
12.32 -0.293159
12.33 -0.332207
12.34 -0.369349
12.35 -0.405228
12.36 -0.440526
12.37 -0.475624
12.38 -0.510767
12.39 -0.545946
12.4 -0.580877
