# xPDFsuite Configuration #
[PDF]
wavelength = 0.1432
dataformat = twotheta
inputfile = 1_1Pd_CeO2_cycle-00118.chi
backgroundfile = background-00000.chi
mode = xray
bgscale = 1.007
composition = CeO2
outputtype = gr
qmaxinst = 28.8974762299
qmin = 0.5
qmax = 27.9
rmax = 50.0
rmin = 0.0
rstep = 0.01
rpoly = 1.8657

[Misc]
inputdir = G:/SankarDec16/1Pd/Chi
savedir = D:/DATA/APS_CeO2/1Pd
backgroundfilefull = G:/SankarDec16/Background/background-00000.chi

#### start data
#S 1
#L r($\AA$)  G($\AA^{-2}$)
0 0
0.01 -0.00637513
0.02 -0.0122685
0.03 -0.017184
0.04 -0.0207486
0.05 -0.0227547
0.06 -0.0228693
0.07 -0.0213159
0.08 -0.0179889
0.09 -0.013314
0.1 -0.00758682
0.11 -0.00125853
0.12 0.00518048
0.13 0.0111784
0.14 0.0163474
0.15 0.0202108
0.16 0.022492
0.17 0.023082
0.18 0.0217571
0.19 0.0188475
0.2 0.0143709
0.21 0.00882479
0.22 0.00257768
0.23 -0.00386332
0.24 -0.010038
0.25 -0.0153523
0.26 -0.0195315
0.27 -0.0221424
0.28 -0.0230184
0.29 -0.0221551
0.3 -0.0194492
0.31 -0.0153216
0.32 -0.00991222
0.33 -0.00376567
0.34 0.00269487
0.35 0.00893149
0.36 0.0145375
0.37 0.018906
0.38 0.0218894
0.39 0.02312
0.4 0.0225497
0.41 0.020279
0.42 0.0163306
0.43 0.0111953
0.44 0.0051284
0.45 -0.00130519
0.46 -0.00764906
0.47 -0.013361
0.48 -0.0181086
0.49 -0.0213028
0.5 -0.0229305
0.51 -0.0227083
0.52 -0.0207096
0.53 -0.0171349
0.54 -0.0121326
0.55 -0.00623871
0.56 0.000188393
0.57 0.00659166
0.58 0.0125045
0.59 0.0174072
0.6 0.0210588
0.61 0.0229178
0.62 0.0231068
0.63 0.0214412
0.64 0.0181126
0.65 0.013412
0.66 0.00760648
0.67 0.00125058
0.68 -0.00521203
0.69 -0.0112598
0.7 -0.0164394
0.71 -0.0202797
0.72 -0.0226434
0.73 -0.0230635
0.74 -0.0217922
0.75 -0.0187526
0.76 -0.0142446
0.77 -0.00863426
0.78 -0.0022929
0.79 0.00423498
0.8 0.0104451
0.81 0.0158783
0.82 0.0201194
0.83 0.0227713
0.84 0.0238073
0.85 0.0228614
0.86 0.0203005
0.87 0.0161595
0.88 0.010829
0.89 0.00472779
0.9 -0.00169231
0.91 -0.00793111
0.92 -0.0134597
0.93 -0.0179136
0.94 -0.0209499
0.95 -0.022282
0.96 -0.0220035
0.97 -0.0198972
0.98 -0.016428
0.99 -0.0117652
1 -0.00638136
1.01 -0.000731825
1.02 0.00465136
1.03 0.00935535
1.04 0.0128374
1.05 0.014871
1.06 0.0152154
1.07 0.0137338
1.08 0.0106756
1.09 0.00602424
1.1 0.000372547
1.11 -0.00592078
1.12 -0.0122556
1.13 -0.0181037
1.14 -0.0227673
1.15 -0.0259136
1.16 -0.0268803
1.17 -0.0255627
1.18 -0.0217594
1.19 -0.0154102
1.2 -0.00694315
1.21 0.00359448
1.22 0.0153908
1.23 0.0279591
1.24 0.0405255
1.25 0.0524206
1.26 0.062755
1.27 0.0711082
1.28 0.0766087
1.29 0.0790796
1.3 0.0781847
1.31 0.0737059
1.32 0.0660814
1.33 0.0550696
1.34 0.0415959
1.35 0.0259591
1.36 0.00892175
1.37 -0.00881464
1.38 -0.0264979
1.39 -0.0434732
1.4 -0.058953
1.41 -0.072495
1.42 -0.0836189
1.43 -0.0918753
1.44 -0.0973751
1.45 -0.0995615
1.46 -0.0989838
1.47 -0.095524
1.48 -0.0895314
1.49 -0.0813891
1.5 -0.0712695
1.51 -0.0597782
1.52 -0.0471289
1.53 -0.0338094
1.54 -0.0201325
1.55 -0.0064485
1.56 0.00697146
1.57 0.0197596
1.58 0.0317538
1.59 0.0426346
1.6 0.052184
1.61 0.0602508
1.62 0.0664349
1.63 0.0707935
1.64 0.0728911
1.65 0.0727906
1.66 0.0703467
1.67 0.0654415
1.68 0.0583616
1.69 0.0488793
1.7 0.0375717
1.71 0.0245678
1.72 0.0103477
1.73 -0.00460669
1.74 -0.0197722
1.75 -0.0345983
1.76 -0.048449
1.77 -0.0608772
1.78 -0.0714216
1.79 -0.0796289
1.8 -0.0855391
1.81 -0.088677
1.82 -0.0895495
1.83 -0.0881869
1.84 -0.0850891
1.85 -0.080811
1.86 -0.0759353
1.87 -0.0711728
1.88 -0.0672573
1.89 -0.0647616
1.9 -0.064224
1.91 -0.066149
1.92 -0.0704788
1.93 -0.0776379
1.94 -0.0869985
1.95 -0.0983602
1.96 -0.111007
1.97 -0.124184
1.98 -0.136942
1.99 -0.148452
2 -0.157552
2.01 -0.163563
2.02 -0.165704
2.03 -0.163202
2.04 -0.156211
2.05 -0.143825
2.06 -0.126974
2.07 -0.105584
2.08 -0.0803888
2.09 -0.0522047
2.1 -0.0216377
2.11 0.0102062
2.12 0.0426427
2.13 0.0748892
2.14 0.106427
2.15 0.136853
2.16 0.16618
2.17 0.194365
2.18 0.221927
2.19 0.249334
2.2 0.277304
2.21 0.306466
2.22 0.337733
2.23 0.371369
2.24 0.408088
2.25 0.447707
2.26 0.490069
2.27 0.5346
2.28 0.580198
2.29 0.625497
2.3 0.668898
2.31 0.708358
2.32 0.741813
2.33 0.767663
2.34 0.782903
2.35 0.787349
2.36 0.778175
2.37 0.755774
2.38 0.71961
2.39 0.669584
2.4 0.608016
2.41 0.53479
2.42 0.453776
2.43 0.366796
2.44 0.277159
2.45 0.187782
2.46 0.102177
2.47 0.0225494
2.48 -0.0476344
2.49 -0.107144
2.5 -0.154419
2.51 -0.18822
2.52 -0.209953
2.53 -0.218422
2.54 -0.216998
2.55 -0.206701
2.56 -0.190377
2.57 -0.170739
2.58 -0.150576
2.59 -0.132462
2.6 -0.119199
2.61 -0.112364
2.62 -0.113407
2.63 -0.12345
2.64 -0.141619
2.65 -0.168581
2.66 -0.201797
2.67 -0.240112
2.68 -0.281071
2.69 -0.322398
2.7 -0.361397
2.71 -0.396255
2.72 -0.424374
2.73 -0.444847
2.74 -0.456677
2.75 -0.459279
2.76 -0.453996
2.77 -0.440732
2.78 -0.422302
2.79 -0.400284
2.8 -0.377338
2.81 -0.355777
2.82 -0.338493
2.83 -0.326933
2.84 -0.32366
2.85 -0.329093
2.86 -0.343843
2.87 -0.367977
2.88 -0.399653
2.89 -0.438285
2.9 -0.480692
2.91 -0.524706
2.92 -0.567299
2.93 -0.606001
2.94 -0.637449
2.95 -0.660547
2.96 -0.672474
2.97 -0.67328
2.98 -0.662603
2.99 -0.640733
3 -0.610112
3.01 -0.571681
3.02 -0.529223
3.03 -0.485323
3.04 -0.443421
3.05 -0.406236
3.06 -0.377451
3.07 -0.358098
3.08 -0.351119
3.09 -0.356242
3.1 -0.373658
3.11 -0.402824
3.12 -0.440984
3.13 -0.486908
3.14 -0.536579
3.15 -0.587204
3.16 -0.635258
3.17 -0.678067
3.18 -0.712045
3.19 -0.736468
3.2 -0.74878
3.21 -0.749717
3.22 -0.73962
3.23 -0.719715
3.24 -0.693069
3.25 -0.661883
3.26 -0.630123
3.27 -0.601157
3.28 -0.578551
3.29 -0.564749
3.3 -0.56344
3.31 -0.574431
3.32 -0.599965
3.33 -0.638266
3.34 -0.688155
3.35 -0.747339
3.36 -0.811908
3.37 -0.878352
3.38 -0.942272
3.39 -0.99937
3.4 -1.0457
3.41 -1.07887
3.42 -1.09478
3.43 -1.09462
3.44 -1.07632
3.45 -1.04288
3.46 -0.996426
3.47 -0.940474
3.48 -0.880015
3.49 -0.81996
3.5 -0.765273
3.51 -0.721104
3.52 -0.691529
3.53 -0.678522
3.54 -0.685576
3.55 -0.709746
3.56 -0.750975
3.57 -0.803464
3.58 -0.861774
3.59 -0.917649
3.6 -0.963338
3.61 -0.985946
3.62 -0.978817
3.63 -0.929654
3.64 -0.829907
3.65 -0.675207
3.66 -0.453265
3.67 -0.170305
3.68 0.181767
3.69 0.593753
3.7 1.06097
3.71 1.57549
3.72 2.1217
3.73 2.68875
3.74 3.25783
3.75 3.81251
3.76 4.33454
3.77 4.81017
3.78 5.2164
3.79 5.54956
3.8 5.78828
3.81 5.93242
3.82 5.97586
3.83 5.91323
3.84 5.75795
3.85 5.5013
3.86 5.16703
3.87 4.75976
3.88 4.29624
3.89 3.79311
3.9 3.26418
3.91 2.72797
3.92 2.1996
3.93 1.69288
3.94 1.21955
3.95 0.791953
3.96 0.411838
3.97 0.0924236
3.98 -0.173169
3.99 -0.380764
4 -0.534851
4.01 -0.642371
4.02 -0.705169
4.03 -0.736029
4.04 -0.738873
4.05 -0.724161
4.06 -0.698504
4.07 -0.668782
4.08 -0.640421
4.09 -0.618564
4.1 -0.60519
4.11 -0.602586
4.12 -0.610833
4.13 -0.628661
4.14 -0.655177
4.15 -0.686935
4.16 -0.721633
4.17 -0.755907
4.18 -0.787005
4.19 -0.811865
4.2 -0.829181
4.21 -0.835844
4.22 -0.8324
4.23 -0.817593
4.24 -0.791902
4.25 -0.756487
4.26 -0.711452
4.27 -0.659318
4.28 -0.60065
4.29 -0.537471
4.3 -0.47092
4.31 -0.402075
4.32 -0.331945
4.33 -0.260988
4.34 -0.18966
4.35 -0.118066
4.36 -0.0462287
4.37 0.02587
4.38 0.0982462
4.39 0.17073
4.4 0.242973
4.41 0.314372
4.42 0.384084
4.43 0.450739
4.44 0.513389
4.45 0.569535
4.46 0.618398
4.47 0.657648
4.48 0.685749
4.49 0.701967
4.5 0.703688
4.51 0.692199
4.52 0.665543
4.53 0.625316
4.54 0.572069
4.55 0.506696
4.56 0.432056
4.57 0.349009
4.58 0.261105
4.59 0.170353
4.6 0.0795086
4.61 -0.00926658
4.62 -0.0933024
4.63 -0.171542
4.64 -0.241786
4.65 -0.303762
4.66 -0.356937
4.67 -0.400958
4.68 -0.437209
4.69 -0.465335
4.7 -0.487589
4.71 -0.504716
4.72 -0.518302
4.73 -0.52975
4.74 -0.540228
4.75 -0.55086
4.76 -0.562518
4.77 -0.575675
4.78 -0.59059
4.79 -0.607323
4.8 -0.625449
4.81 -0.644683
4.82 -0.664284
4.83 -0.683639
4.84 -0.702043
4.85 -0.718992
4.86 -0.733752
4.87 -0.746286
4.88 -0.75611
4.89 -0.763444
4.9 -0.768397
4.91 -0.771194
4.92 -0.772428
4.93 -0.772378
4.94 -0.771719
4.95 -0.770867
4.96 -0.770285
4.97 -0.770272
4.98 -0.771174
4.99 -0.773002
5 -0.775919
5.01 -0.779795
5.02 -0.784554
5.03 -0.790096
5.04 -0.796224
5.05 -0.802918
5.06 -0.810039
5.07 -0.817615
5.08 -0.825675
5.09 -0.834251
5.1 -0.843477
5.11 -0.853282
5.12 -0.863673
5.13 -0.874381
5.14 -0.885041
5.15 -0.894953
5.16 -0.903408
5.17 -0.908858
5.18 -0.910327
5.19 -0.905881
5.2 -0.893703
5.21 -0.87249
5.22 -0.83906
5.23 -0.793424
5.24 -0.732457
5.25 -0.656298
5.26 -0.564189
5.27 -0.455413
5.28 -0.332373
5.29 -0.194323
5.3 -0.0455352
5.31 0.112097
5.32 0.274609
5.33 0.438092
5.34 0.597628
5.35 0.749388
5.36 0.887527
5.37 1.00857
5.38 1.10852
5.39 1.18257
5.4 1.23108
5.41 1.24784
5.42 1.23654
5.43 1.19507
5.44 1.12544
5.45 1.0312
5.46 0.913011
5.47 0.777785
5.48 0.627927
5.49 0.469577
5.5 0.307193
5.51 0.1459
5.52 -0.0103921
5.53 -0.15635
5.54 -0.290122
5.55 -0.408197
5.56 -0.508999
5.57 -0.592631
5.58 -0.656964
5.59 -0.705235
5.6 -0.736724
5.61 -0.754664
5.62 -0.760875
5.63 -0.757358
5.64 -0.747231
5.65 -0.731841
5.66 -0.713783
5.67 -0.694277
5.68 -0.674484
5.69 -0.654946
5.7 -0.63583
5.71 -0.616799
5.72 -0.597201
5.73 -0.576182
5.74 -0.552802
5.75 -0.525861
5.76 -0.494974
5.77 -0.458794
5.78 -0.417774
5.79 -0.371611
5.8 -0.32096
5.81 -0.266907
5.82 -0.210549
5.83 -0.153754
5.84 -0.0984269
5.85 -0.0465325
5.86 2.01343e-07
5.87 0.0387916
5.88 0.069158
5.89 0.0881788
5.9 0.0964935
5.91 0.0927481
5.92 0.0771633
5.93 0.0508161
5.94 0.0134742
5.95 -0.0321288
5.96 -0.0853754
5.97 -0.143768
5.98 -0.205587
5.99 -0.268909
6 -0.331989
6.01 -0.39305
6.02 -0.451133
6.03 -0.505115
6.04 -0.554474
6.05 -0.599282
6.06 -0.639137
6.07 -0.675091
6.08 -0.707271
6.09 -0.736731
6.1 -0.764156
6.11 -0.790244
6.12 -0.81568
6.13 -0.840836
6.14 -0.865959
6.15 -0.891021
6.16 -0.915765
6.17 -0.939819
6.18 -0.962452
6.19 -0.98325
6.2 -1.00131
6.21 -1.01626
6.22 -1.0277
6.23 -1.03521
6.24 -1.03927
6.25 -1.03965
6.26 -1.03742
6.27 -1.03312
6.28 -1.02777
6.29 -1.02229
6.3 -1.01766
6.31 -1.01441
6.32 -1.01307
6.33 -1.01338
6.34 -1.01473
6.35 -1.01572
6.36 -1.01458
6.37 -1.00797
6.38 -0.993326
6.39 -0.966247
6.4 -0.922347
6.41 -0.858531
6.42 -0.767314
6.43 -0.648475
6.44 -0.49469
6.45 -0.305774
6.46 -0.0796915
6.47 0.186015
6.48 0.486255
6.49 0.823922
6.5 1.18983
6.51 1.58081
6.52 1.98882
6.53 2.40535
6.54 2.82078
6.55 3.22572
6.56 3.60797
6.57 3.95854
6.58 4.26784
6.59 4.52369
6.6 4.72482
6.61 4.85523
6.62 4.92024
6.63 4.9123
6.64 4.83233
6.65 4.68617
6.66 4.47032
6.67 4.19999
6.68 3.87622
6.69 3.51265
6.7 3.11834
6.71 2.70365
6.72 2.28062
6.73 1.8599
6.74 1.45115
6.75 1.06408
6.76 0.706723
6.77 0.383039
6.78 0.102381
6.79 -0.138449
6.8 -0.333223
6.81 -0.486074
6.82 -0.598466
6.83 -0.671899
6.84 -0.714386
6.85 -0.726371
6.86 -0.717258
6.87 -0.690555
6.88 -0.652118
6.89 -0.606929
6.9 -0.558912
6.91 -0.511705
6.92 -0.468131
6.93 -0.429781
6.94 -0.397648
6.95 -0.372411
6.96 -0.353087
6.97 -0.339863
6.98 -0.330948
6.99 -0.325647
7 -0.322799
7.01 -0.321487
7.02 -0.321234
7.03 -0.321659
7.04 -0.32296
7.05 -0.325538
7.06 -0.330092
7.07 -0.337776
7.08 -0.349198
7.09 -0.366135
7.1 -0.388745
7.11 -0.418122
7.12 -0.454535
7.13 -0.497525
7.14 -0.54734
7.15 -0.602155
7.16 -0.661207
7.17 -0.722417
7.18 -0.784005
7.19 -0.843708
7.2 -0.899888
7.21 -0.949837
7.22 -0.992783
7.23 -1.02698
7.24 -1.05173
7.25 -1.06737
7.26 -1.07311
7.27 -1.07112
7.28 -1.06175
7.29 -1.04734
7.3 -1.02963
7.31 -1.01069
7.32 -0.992427
7.33 -0.976906
7.34 -0.96511
7.35 -0.958164
7.36 -0.956294
7.37 -0.958863
7.38 -0.965235
7.39 -0.973284
7.4 -0.98089
7.41 -0.985281
7.42 -0.983652
7.43 -0.972233
7.44 -0.949374
7.45 -0.910146
7.46 -0.854501
7.47 -0.779589
7.48 -0.684738
7.49 -0.571119
7.5 -0.437428
7.51 -0.288171
7.52 -0.124186
7.53 0.0497898
7.54 0.230003
7.55 0.411722
7.56 0.590446
7.57 0.760261
7.58 0.917716
7.59 1.05772
7.6 1.17647
7.61 1.2725
7.62 1.34045
7.63 1.38296
7.64 1.39642
7.65 1.38357
7.66 1.3455
7.67 1.28317
7.68 1.20167
7.69 1.10144
7.7 0.988483
7.71 0.865312
7.72 0.735987
7.73 0.604038
7.74 0.47286
7.75 0.345128
7.76 0.223903
7.77 0.110902
7.78 0.00774571
7.79 -0.0836112
7.8 -0.163668
7.81 -0.23
7.82 -0.284211
7.83 -0.325398
7.84 -0.353971
7.85 -0.371055
7.86 -0.375841
7.87 -0.370695
7.88 -0.35524
7.89 -0.331277
7.9 -0.299822
7.91 -0.261915
7.92 -0.219596
7.93 -0.173989
7.94 -0.127321
7.95 -0.081359
7.96 -0.0382488
7.97 0.000369757
7.98 0.0316947
7.99 0.0550068
8 0.0676536
8.01 0.0690946
8.02 0.0584392
8.03 0.0345279
8.04 -0.00112458
8.05 -0.0497608
8.06 -0.108555
8.07 -0.176756
8.08 -0.252121
8.09 -0.332159
8.1 -0.414641
8.11 -0.496824
8.12 -0.576136
8.13 -0.650466
8.14 -0.718034
8.15 -0.776864
8.16 -0.827101
8.17 -0.866994
8.18 -0.898168
8.19 -0.920733
8.2 -0.936127
8.21 -0.946212
8.22 -0.952335
8.23 -0.956753
8.24 -0.960952
8.25 -0.966322
8.26 -0.973641
8.27 -0.983253
8.28 -0.994451
8.29 -1.00606
8.3 -1.01597
8.31 -1.02138
8.32 -1.0187
8.33 -1.005
8.34 -0.974286
8.35 -0.92508
8.36 -0.851188
8.37 -0.751048
8.38 -0.622249
8.39 -0.461518
8.4 -0.272104
8.41 -0.0505026
8.42 0.196671
8.43 0.467722
8.44 0.757007
8.45 1.05789
8.46 1.36384
8.47 1.66682
8.48 1.95815
8.49 2.23025
8.5 2.47582
8.51 2.68539
8.52 2.85733
8.53 2.98004
8.54 3.05643
8.55 3.08116
8.56 3.0543
8.57 2.98014
8.58 2.85573
8.59 2.69199
8.6 2.48956
8.61 2.25783
8.62 2.00319
8.63 1.73251
8.64 1.45427
8.65 1.17525
8.66 0.902212
8.67 0.641311
8.68 0.397863
8.69 0.17438
8.7 -0.0232623
8.71 -0.196991
8.72 -0.343153
8.73 -0.464105
8.74 -0.560904
8.75 -0.634328
8.76 -0.689241
8.77 -0.725898
8.78 -0.74977
8.79 -0.762919
8.8 -0.76868
8.81 -0.769998
8.82 -0.769055
8.83 -0.76808
8.84 -0.768689
8.85 -0.771957
8.86 -0.778556
8.87 -0.789057
8.88 -0.803036
8.89 -0.820763
8.9 -0.841295
8.91 -0.864272
8.92 -0.888967
8.93 -0.914673
8.94 -0.94079
8.95 -0.966712
8.96 -0.991902
8.97 -1.01599
8.98 -1.03867
8.99 -1.05959
9 -1.07881
9.01 -1.09593
9.02 -1.11114
9.03 -1.12426
9.04 -1.13526
9.05 -1.14422
9.06 -1.15082
9.07 -1.15529
9.08 -1.15727
9.09 -1.15679
9.1 -1.15369
9.11 -1.14763
9.12 -1.13873
9.13 -1.12629
9.14 -1.11054
9.15 -1.091
9.16 -1.06741
9.17 -1.03984
9.18 -1.0075
9.19 -0.9709
9.2 -0.929387
9.21 -0.883277
9.22 -0.832629
9.23 -0.777397
9.24 -0.718408
9.25 -0.65564
9.26 -0.59028
9.27 -0.522994
9.28 -0.454943
9.29 -0.387271
9.3 -0.321572
9.31 -0.258945
9.32 -0.201296
9.33 -0.149801
9.34 -0.105749
9.35 -0.0709488
9.36 -0.0452679
9.37 -0.0309496
9.38 -0.026888
9.39 -0.0338011
9.4 -0.0511659
9.41 -0.0775851
9.42 -0.112904
9.43 -0.154432
9.44 -0.201095
9.45 -0.250469
9.46 -0.300633
9.47 -0.349336
9.48 -0.394983
9.49 -0.435168
9.5 -0.469188
9.51 -0.495625
9.52 -0.5139
9.53 -0.524431
9.54 -0.526593
9.55 -0.522314
9.56 -0.512017
9.57 -0.497682
9.58 -0.480892
9.59 -0.463524
9.6 -0.447282
9.61 -0.434227
9.62 -0.425422
9.63 -0.422289
9.64 -0.425664
9.65 -0.435492
9.66 -0.452632
9.67 -0.475685
9.68 -0.504625
9.69 -0.53799
9.7 -0.574672
9.71 -0.613433
9.72 -0.652869
9.73 -0.691745
9.74 -0.72909
9.75 -0.763997
9.76 -0.795831
9.77 -0.824463
9.78 -0.849267
9.79 -0.870748
9.8 -0.888508
9.81 -0.902761
9.82 -0.913318
9.83 -0.919417
9.84 -0.920795
9.85 -0.915264
9.86 -0.901916
9.87 -0.878
9.88 -0.840601
9.89 -0.787806
9.9 -0.713702
9.91 -0.617987
9.92 -0.494589
9.93 -0.34229
9.94 -0.158862
9.95 0.0594241
9.96 0.309191
9.97 0.594773
9.98 0.909674
9.99 1.25275
10 1.61878
10.01 2.00086
10.02 2.39298
10.03 2.78597
10.04 3.17087
10.05 3.53862
10.06 3.88067
10.07 4.1855
10.08 4.44988
10.09 4.65953
10.1 4.81568
10.11 4.91071
10.12 4.9424
10.13 4.91458
10.14 4.82093
10.15 4.6739
10.16 4.47213
10.17 4.22617
10.18 3.9432
10.19 3.63042
10.2 3.29937
10.21 2.95725
10.22 2.61428
10.23 2.27827
10.24 1.95708
10.25 1.6552
10.26 1.38071
10.27 1.13293
10.28 0.917025
10.29 0.731311
10.3 0.574951
10.31 0.44759
10.32 0.343322
10.33 0.261822
10.34 0.196196
10.35 0.143525
10.36 0.0993217
10.37 0.0595968
10.38 0.0211341
10.39 -0.0188657
10.4 -0.0627095
10.41 -0.111573
10.42 -0.166077
10.43 -0.226633
10.44 -0.292097
10.45 -0.362191
10.46 -0.435059
10.47 -0.509488
10.48 -0.583823
10.49 -0.656742
10.5 -0.72652
10.51 -0.792509
10.52 -0.853331
10.53 -0.908657
10.54 -0.958129
10.55 -1.00117
10.56 -1.03849
10.57 -1.06931
10.58 -1.09463
10.59 -1.11425
10.6 -1.12836
10.61 -1.13743
10.62 -1.1408
10.63 -1.13923
10.64 -1.13202
10.65 -1.11943
10.66 -1.10137
10.67 -1.07745
10.68 -1.04842
10.69 -1.01374
10.7 -0.974537
10.71 -0.931142
10.72 -0.884499
10.73 -0.835787
10.74 -0.78615
10.75 -0.737043
10.76 -0.690027
10.77 -0.646506
10.78 -0.607784
10.79 -0.575606
10.8 -0.550219
10.81 -0.533611
10.82 -0.525214
10.83 -0.525771
10.84 -0.535123
10.85 -0.552268
10.86 -0.577431
10.87 -0.608531
10.88 -0.645077
10.89 -0.685336
10.9 -0.728026
10.91 -0.771786
10.92 -0.815326
10.93 -0.857335
10.94 -0.897028
10.95 -0.933514
10.96 -0.966207
10.97 -0.995076
10.98 -1.01947
10.99 -1.04009
11 -1.05673
11.01 -1.07004
11.02 -1.08043
11.03 -1.08829
11.04 -1.09435
11.05 -1.09889
11.06 -1.10257
11.07 -1.10573
11.08 -1.10875
11.09 -1.11189
11.1 -1.11544
11.11 -1.11949
11.12 -1.12416
11.13 -1.12945
11.14 -1.13526
11.15 -1.14143
11.16 -1.14764
11.17 -1.15339
11.18 -1.15812
11.19 -1.16095
11.2 -1.16076
11.21 -1.15662
11.22 -1.14626
11.23 -1.12895
11.24 -1.10191
11.25 -1.06369
11.26 -1.01244
11.27 -0.945087
11.28 -0.86179
11.29 -0.758333
11.3 -0.636049
11.31 -0.493089
11.32 -0.32944
11.33 -0.147145
11.34 0.0547447
11.35 0.271295
11.36 0.50116
11.37 0.739495
11.38 0.982126
11.39 1.22374
11.4 1.45955
11.41 1.68248
11.42 1.88853
11.43 2.07152
11.44 2.22617
11.45 2.3507
11.46 2.43708
11.47 2.48848
11.48 2.49946
11.49 2.47256
11.5 2.40903
11.51 2.30893
11.52 2.17945
11.53 2.02067
11.54 1.84112
11.55 1.64465
11.56 1.43741
11.57 1.22523
11.58 1.01366
11.59 0.807386
11.6 0.611479
11.61 0.42903
11.62 0.262457
11.63 0.114796
11.64 -0.0153875
11.65 -0.125484
11.66 -0.218899
11.67 -0.29612
11.68 -0.359479
11.69 -0.412205
11.7 -0.455873
11.71 -0.494331
11.72 -0.529494
11.73 -0.563851
11.74 -0.599012
11.75 -0.636387
11.76 -0.676303
11.77 -0.71921
11.78 -0.764222
11.79 -0.810493
11.8 -0.856461
11.81 -0.900577
11.82 -0.940341
11.83 -0.974419
11.84 -1.00009
11.85 -1.01592
11.86 -1.02048
11.87 -1.01152
11.88 -0.989719
11.89 -0.952483
11.9 -0.901562
11.91 -0.836347
11.92 -0.757526
11.93 -0.666956
11.94 -0.564443
11.95 -0.453159
11.96 -0.333818
11.97 -0.208897
11.98 -0.0802673
11.99 0.0500348
12 0.179928
12.01 0.307066
12.02 0.429736
12.03 0.545759
12.04 0.653061
12.05 0.750665
12.06 0.835301
12.07 0.907404
12.08 0.964182
12.09 1.00552
12.1 1.03083
12.11 1.03855
12.12 1.03064
12.13 1.00505
12.14 0.96464
12.15 0.909571
12.16 0.841436
12.17 0.76282
12.18 0.674657
12.19 0.580553
12.2 0.482311
12.21 0.382817
12.22 0.284335
12.23 0.189472
12.24 0.0996298
12.25 0.0173853
12.26 -0.0569819
12.27 -0.122303
12.28 -0.178332
12.29 -0.225999
12.3 -0.264975
12.31 -0.297619
12.32 -0.324682
12.33 -0.348278
12.34 -0.370075
12.35 -0.391885
12.36 -0.415129
12.37 -0.441425
12.38 -0.471275
12.39 -0.505271
12.4 -0.54328
