# xPDFsuite Configuration #
[PDF]
wavelength = 0.1432
dataformat = twotheta
inputfile = 1_1Pd_CeO2_cycle-00262.chi
backgroundfile = background-00000.chi
mode = xray
bgscale = 1.007
composition = CeO2
outputtype = gr
qmaxinst = 28.8974762299
qmin = 0.5
qmax = 27.9
rmax = 50.0
rmin = 0.0
rstep = 0.01
rpoly = 1.8657

[Misc]
inputdir = G:/SankarDec16/1Pd/Chi
savedir = D:/DATA/APS_CeO2/1Pd
backgroundfilefull = G:/SankarDec16/Background/background-00000.chi

#### start data
#S 1
#L r($\AA$)  G($\AA^{-2}$)
0 0
0.01 -0.00748807
0.02 -0.0144135
0.03 -0.0201967
0.04 -0.0244011
0.05 -0.0267833
0.06 -0.0269518
0.07 -0.0251656
0.08 -0.0212975
0.09 -0.0158426
0.1 -0.00914284
0.11 -0.00172241
0.12 0.00584506
0.13 0.0129178
0.14 0.0190378
0.15 0.0236464
0.16 0.0264138
0.17 0.0272068
0.18 0.0257551
0.19 0.022438
0.2 0.0172658
0.21 0.0108147
0.22 0.00350975
0.23 -0.00406099
0.24 -0.0113561
0.25 -0.0176839
0.26 -0.0227119
0.27 -0.0259277
0.28 -0.027124
0.29 -0.0262834
0.3 -0.0232698
0.31 -0.0185654
0.32 -0.0123176
0.33 -0.00515823
0.34 0.00242454
0.35 0.00980495
0.36 0.0164987
0.37 0.0217962
0.38 0.0255051
0.39 0.0271836
0.4 0.0267558
0.41 0.0243221
0.42 0.0198867
0.43 0.0140131
0.44 0.00697941
0.45 -0.000555559
0.46 -0.00806281
0.47 -0.0149071
0.48 -0.0206839
0.49 -0.0246979
0.5 -0.0269065
0.51 -0.0269585
0.52 -0.0249141
0.53 -0.0209866
0.54 -0.0153213
0.55 -0.00853763
0.56 -0.00103195
0.57 0.00653976
0.58 0.0136319
0.59 0.0196287
0.6 0.0242241
0.61 0.0267693
0.62 0.0273737
0.63 0.0257938
0.64 0.0222231
0.65 0.0169789
0.66 0.0103418
0.67 0.0029587
0.68 -0.00467335
0.69 -0.0119309
0.7 -0.0182769
0.71 -0.0231427
0.72 -0.0263357
0.73 -0.0272828
0.74 -0.026241
0.75 -0.023085
0.76 -0.0181331
0.77 -0.0117917
0.78 -0.00446299
0.79 0.00320857
0.8 0.01065
0.81 0.0172994
0.82 0.0226549
0.83 0.0262225
0.84 0.027932
0.85 0.0273152
0.86 0.0247633
0.87 0.0202758
0.88 0.0142792
0.89 0.00724731
0.9 -0.000318254
0.91 -0.00781092
0.92 -0.0146166
0.93 -0.0202687
0.94 -0.0243346
0.95 -0.0264317
0.96 -0.0266231
0.97 -0.0245921
0.98 -0.020848
0.99 -0.0155362
1 -0.00918213
1.01 -0.00230966
1.02 0.00448298
1.03 0.0106697
1.04 0.0156091
1.05 0.0189718
1.06 0.0204241
1.07 0.0197329
1.08 0.0171253
1.09 0.0124835
1.1 0.00645753
1.11 -0.000615092
1.12 -0.00807591
1.13 -0.0153242
1.14 -0.0215984
1.15 -0.0264517
1.16 -0.0291321
1.17 -0.0294372
1.18 -0.027083
1.19 -0.0219257
1.2 -0.0143736
1.21 -0.00439274
1.22 0.00715676
1.23 0.0198031
1.24 0.0327247
1.25 0.0451957
1.26 0.0562822
1.27 0.0654821
1.28 0.0718728
1.29 0.0752199
1.3 0.0751502
1.31 0.0714188
1.32 0.0644679
1.33 0.0540586
1.34 0.0411568
1.35 0.0260994
1.36 0.0097016
1.37 -0.00729186
1.38 -0.0240677
1.39 -0.0399624
1.4 -0.0541499
1.41 -0.0662167
1.42 -0.0757097
1.43 -0.0822401
1.44 -0.0860025
1.45 -0.0865573
1.46 -0.084553
1.47 -0.0800123
1.48 -0.0734012
1.49 -0.0651803
1.5 -0.0556722
1.51 -0.0454408
1.52 -0.0348011
1.53 -0.0241391
1.54 -0.0137131
1.55 -0.00376196
1.56 0.00563247
1.57 0.0142691
1.58 0.0222112
1.59 0.0293627
1.6 0.0357228
1.61 0.0412936
1.62 0.0459289
1.63 0.0496703
1.64 0.0522728
1.65 0.0536952
1.66 0.0537596
1.67 0.0522465
1.68 0.0491954
1.69 0.044233
1.7 0.0376131
1.71 0.029217
1.72 0.0192399
1.73 0.00795134
1.74 -0.00443075
1.75 -0.0173961
1.76 -0.0305454
1.77 -0.0433626
1.78 -0.0553817
1.79 -0.0660743
1.8 -0.075231
1.81 -0.0822589
1.82 -0.0873191
1.83 -0.0902034
1.84 -0.0911172
1.85 -0.0903923
1.86 -0.0883137
1.87 -0.0855327
1.88 -0.0825607
1.89 -0.0800295
1.9 -0.0784879
1.91 -0.0785229
1.92 -0.0803155
1.93 -0.0844268
1.94 -0.0905502
1.95 -0.0987237
1.96 -0.108504
1.97 -0.119332
1.98 -0.130527
1.99 -0.141276
2 -0.150589
2.01 -0.15768
2.02 -0.161707
2.03 -0.161749
2.04 -0.157701
2.05 -0.148429
2.06 -0.134561
2.07 -0.115733
2.08 -0.0924122
2.09 -0.0652405
2.1 -0.0345499
2.11 -0.00151305
2.12 0.0333344
2.13 0.0690128
2.14 0.104871
2.15 0.140273
2.16 0.174894
2.17 0.208361
2.18 0.240841
2.19 0.272427
2.2 0.30352
2.21 0.334562
2.22 0.366124
2.23 0.398593
2.24 0.432495
2.25 0.467913
2.26 0.504854
2.27 0.543024
2.28 0.581738
2.29 0.620003
2.3 0.656656
2.31 0.690081
2.32 0.718587
2.33 0.740806
2.34 0.754121
2.35 0.758235
2.36 0.750541
2.37 0.73116
2.38 0.699391
2.39 0.654854
2.4 0.599423
2.41 0.532619
2.42 0.457841
2.43 0.376486
2.44 0.291478
2.45 0.205501
2.46 0.12169
2.47 0.0423601
2.48 -0.0292156
2.49 -0.0915311
2.5 -0.142847
2.51 -0.181624
2.52 -0.208838
2.53 -0.222904
2.54 -0.22676
2.55 -0.22101
2.56 -0.208154
2.57 -0.19071
2.58 -0.171145
2.59 -0.152197
2.6 -0.136541
2.61 -0.126083
2.62 -0.122509
2.63 -0.127301
2.64 -0.140022
2.65 -0.161803
2.66 -0.190487
2.67 -0.225357
2.68 -0.264258
2.69 -0.305049
2.7 -0.345308
2.71 -0.382957
2.72 -0.415436
2.73 -0.441411
2.74 -0.459554
2.75 -0.468804
2.76 -0.470024
2.77 -0.462509
2.78 -0.448713
2.79 -0.429699
2.8 -0.40783
2.81 -0.385321
2.82 -0.364777
2.83 -0.348036
2.84 -0.337654
2.85 -0.334607
2.86 -0.339936
2.87 -0.354301
2.88 -0.376448
2.89 -0.406541
2.9 -0.441832
2.91 -0.480782
2.92 -0.520732
2.93 -0.559334
2.94 -0.593614
2.95 -0.622015
2.96 -0.641792
2.97 -0.652352
2.98 -0.652874
2.99 -0.643007
3 -0.624492
3.01 -0.597484
3.02 -0.565198
3.03 -0.529519
3.04 -0.493412
3.05 -0.459393
3.06 -0.430651
3.07 -0.408626
3.08 -0.396085
3.09 -0.393359
3.1 -0.401045
3.11 -0.419183
3.12 -0.445742
3.13 -0.480184
3.14 -0.519138
3.15 -0.560478
3.16 -0.601192
3.17 -0.638863
3.18 -0.670406
3.19 -0.694799
3.2 -0.709695
3.21 -0.715331
3.22 -0.711717
3.23 -0.699598
3.24 -0.681396
3.25 -0.658742
3.26 -0.635013
3.27 -0.613015
3.28 -0.595866
3.29 -0.585786
3.3 -0.586057
3.31 -0.596732
3.32 -0.619912
3.33 -0.654247
3.34 -0.698859
3.35 -0.751886
3.36 -0.80995
3.37 -0.870057
3.38 -0.928257
3.39 -0.980721
3.4 -1.02384
3.41 -1.05534
3.42 -1.07143
3.43 -1.073
3.44 -1.05804
3.45 -1.0291
3.46 -0.988008
3.47 -0.937832
3.48 -0.883112
3.49 -0.828239
3.5 -0.777856
3.51 -0.736701
3.52 -0.708622
3.53 -0.695548
3.54 -0.70079
3.55 -0.721746
3.56 -0.758416
3.57 -0.805459
3.58 -0.857797
3.59 -0.907643
3.6 -0.947656
3.61 -0.965489
3.62 -0.954721
3.63 -0.903438
3.64 -0.803246
3.65 -0.649756
3.66 -0.430797
3.67 -0.152189
3.68 0.194281
3.69 0.599904
3.7 1.06039
3.71 1.56829
3.72 2.10841
3.73 2.67042
3.74 3.23571
3.75 3.78822
3.76 4.3098
3.77 4.78663
3.78 5.1958
3.79 5.5332
3.8 5.77731
3.81 5.92747
3.82 5.97718
3.83 5.92059
3.84 5.77072
3.85 5.51834
3.86 5.18705
3.87 4.78114
3.88 4.31728
3.89 3.81222
3.9 3.27973
3.91 2.73876
3.92 2.20464
3.93 1.69164
3.94 1.21192
3.95 0.778293
3.96 0.392838
3.97 0.0692988
3.98 -0.199099
3.99 -0.407883
4 -0.561502
4.01 -0.667007
4.02 -0.726236
4.03 -0.752406
4.04 -0.749633
4.05 -0.728846
4.06 -0.69703
4.07 -0.661513
4.08 -0.628024
4.09 -0.602184
4.1 -0.586051
4.11 -0.582173
4.12 -0.590652
4.13 -0.610101
4.14 -0.639616
4.15 -0.675345
4.16 -0.714797
4.17 -0.754178
4.18 -0.790392
4.19 -0.819968
4.2 -0.841338
4.21 -0.850955
4.22 -0.849305
4.23 -0.8349
4.24 -0.808201
4.25 -0.770477
4.26 -0.721831
4.27 -0.665153
4.28 -0.601159
4.29 -0.532255
4.3 -0.459876
4.31 -0.385452
4.32 -0.310236
4.33 -0.235066
4.34 -0.16048
4.35 -0.0868056
4.36 -0.0141226
4.37 0.0576395
4.38 0.128424
4.39 0.198332
4.4 0.267052
4.41 0.334252
4.42 0.399271
4.43 0.460949
4.44 0.51855
4.45 0.569768
4.46 0.613962
4.47 0.648949
4.48 0.67328
4.49 0.68626
4.5 0.685372
4.51 0.671835
4.52 0.643762
4.53 0.602684
4.54 0.549145
4.55 0.484044
4.56 0.410166
4.57 0.328436
4.58 0.242309
4.59 0.153816
4.6 0.0656725
4.61 -0.0200209
4.62 -0.100619
4.63 -0.175192
4.64 -0.241622
4.65 -0.299791
4.66 -0.349309
4.67 -0.390023
4.68 -0.423441
4.69 -0.449486
4.7 -0.470463
4.71 -0.487316
4.72 -0.501704
4.73 -0.515011
4.74 -0.528497
4.75 -0.543044
4.76 -0.559478
4.77 -0.577964
4.78 -0.598511
4.79 -0.620837
4.8 -0.644215
4.81 -0.667912
4.82 -0.690979
4.83 -0.712446
4.84 -0.731402
4.85 -0.747304
4.86 -0.75919
4.87 -0.767332
4.88 -0.771229
4.89 -0.771513
4.9 -0.768611
4.91 -0.763184
4.92 -0.756285
4.93 -0.748752
4.94 -0.741629
4.95 -0.735823
4.96 -0.732129
4.97 -0.730967
4.98 -0.73305
4.99 -0.738061
5 -0.746275
5.01 -0.757101
5.02 -0.770127
5.03 -0.784785
5.04 -0.800307
5.05 -0.816081
5.06 -0.831462
5.07 -0.845912
5.08 -0.859024
5.09 -0.870629
5.1 -0.880398
5.11 -0.888548
5.12 -0.894895
5.13 -0.899615
5.14 -0.902653
5.15 -0.903752
5.16 -0.902813
5.17 -0.898848
5.18 -0.891453
5.19 -0.879268
5.2 -0.860955
5.21 -0.835458
5.22 -0.800083
5.23 -0.754621
5.24 -0.69617
5.25 -0.624485
5.26 -0.538541
5.27 -0.437241
5.28 -0.322415
5.29 -0.192845
5.3 -0.0522469
5.31 0.0979849
5.32 0.254325
5.33 0.413093
5.34 0.569786
5.35 0.720399
5.36 0.859258
5.37 0.98256
5.38 1.08607
5.39 1.16464
5.4 1.21818
5.41 1.24005
5.42 1.23351
5.43 1.19608
5.44 1.12944
5.45 1.03701
5.46 0.919217
5.47 0.783164
5.48 0.631241
5.49 0.469928
5.5 0.303955
5.51 0.138823
5.52 -0.021187
5.53 -0.170297
5.54 -0.3064
5.55 -0.425657
5.56 -0.526323
5.57 -0.608506
5.58 -0.669966
5.59 -0.714277
5.6 -0.740844
5.61 -0.753322
5.62 -0.753892
5.63 -0.745008
5.64 -0.730127
5.65 -0.711116
5.66 -0.690709
5.67 -0.670433
5.68 -0.651519
5.69 -0.634398
5.7 -0.619251
5.71 -0.605284
5.72 -0.591615
5.73 -0.576879
5.74 -0.559707
5.75 -0.538379
5.76 -0.512185
5.77 -0.479211
5.78 -0.43985
5.79 -0.393522
5.8 -0.340892
5.81 -0.283246
5.82 -0.221765
5.83 -0.15886
5.84 -0.0967718
5.85 -0.0380406
5.86 0.0149182
5.87 0.0591453
5.88 0.0936606
5.89 0.114929
5.9 0.123619
5.91 0.118131
5.92 0.098777
5.93 0.0669248
5.94 0.0225157
5.95 -0.0310796
5.96 -0.0928065
5.97 -0.159525
5.98 -0.22897
5.99 -0.29857
6 -0.366304
6.01 -0.429719
6.02 -0.487962
6.03 -0.539671
6.04 -0.584478
6.05 -0.622818
6.06 -0.654517
6.07 -0.681349
6.08 -0.703943
6.09 -0.724057
6.1 -0.742968
6.11 -0.762066
6.12 -0.782315
6.13 -0.804797
6.14 -0.829616
6.15 -0.85698
6.16 -0.886441
6.17 -0.917228
6.18 -0.948349
6.19 -0.978623
6.2 -1.00661
6.21 -1.03122
6.22 -1.05143
6.23 -1.06611
6.24 -1.07547
6.25 -1.07858
6.26 -1.07665
6.27 -1.07001
6.28 -1.05987
6.29 -1.04757
6.3 -1.03437
6.31 -1.02157
6.32 -1.01023
6.33 -1.0008
6.34 -0.993278
6.35 -0.986934
6.36 -0.980278
6.37 -0.970617
6.38 -0.955235
6.39 -0.929918
6.4 -0.890067
6.41 -0.832177
6.42 -0.748484
6.43 -0.638038
6.44 -0.493002
6.45 -0.312521
6.46 -0.0940119
6.47 0.165604
6.48 0.461445
6.49 0.796998
6.5 1.16289
6.51 1.55607
6.52 1.96828
6.53 2.3906
6.54 2.81311
6.55 3.22573
6.56 3.61578
6.57 3.97366
6.58 4.2893
6.59 4.54996
6.6 4.75424
6.61 4.88562
6.62 4.94964
6.63 4.93868
6.64 4.85393
6.65 4.70161
6.66 4.47857
6.67 4.20061
6.68 3.86926
6.69 3.49867
6.7 3.09835
6.71 2.67913
6.72 2.25314
6.73 1.83146
6.74 1.4235
6.75 1.03902
6.76 0.685788
6.77 0.367381
6.78 0.0928532
6.79 -0.14152
6.8 -0.329931
6.81 -0.476942
6.82 -0.584373
6.83 -0.654092
6.84 -0.69416
6.85 -0.705337
6.86 -0.696794
6.87 -0.672032
6.88 -0.636663
6.89 -0.595357
6.9 -0.551772
6.91 -0.509148
6.92 -0.469982
6.93 -0.43557
6.94 -0.406675
6.95 -0.383751
6.96 -0.365834
6.97 -0.352959
6.98 -0.343558
6.99 -0.337012
7 -0.332387
7.01 -0.329006
7.02 -0.326633
7.03 -0.325111
7.04 -0.324864
7.05 -0.326409
7.06 -0.330525
7.07 -0.338408
7.08 -0.350541
7.09 -0.368645
7.1 -0.39264
7.11 -0.423434
7.12 -0.461055
7.13 -0.504863
7.14 -0.554851
7.15 -0.609157
7.16 -0.666863
7.17 -0.725967
7.18 -0.784763
7.19 -0.841134
7.2 -0.893707
7.21 -0.940035
7.22 -0.979649
7.23 -1.01112
7.24 -1.03403
7.25 -1.04887
7.26 -1.05516
7.27 -1.05494
7.28 -1.0487
7.29 -1.03849
7.3 -1.02587
7.31 -1.01261
7.32 -1.00018
7.33 -0.990225
7.34 -0.983331
7.35 -0.980187
7.36 -0.980665
7.37 -0.983983
7.38 -0.989131
7.39 -0.994234
7.4 -0.997066
7.41 -0.995239
7.42 -0.986267
7.43 -0.966818
7.44 -0.93578
7.45 -0.888812
7.46 -0.826342
7.47 -0.746073
7.48 -0.647757
7.49 -0.53273
7.5 -0.400133
7.51 -0.254141
7.52 -0.095719
7.53 0.0708745
7.54 0.242269
7.55 0.414244
7.56 0.582944
7.57 0.743113
7.58 0.891869
7.59 1.02473
7.6 1.13839
7.61 1.23157
7.62 1.29939
7.63 1.34415
7.64 1.36237
7.65 1.3563
7.66 1.3266
7.67 1.2737
7.68 1.20201
7.69 1.11131
7.7 1.00698
7.71 0.890926
7.72 0.766711
7.73 0.63768
7.74 0.506747
7.75 0.376951
7.76 0.251234
7.77 0.131837
7.78 0.0208016
7.79 -0.0793661
7.8 -0.168493
7.81 -0.243465
7.82 -0.305324
7.83 -0.352557
7.84 -0.385115
7.85 -0.403975
7.86 -0.407888
7.87 -0.399619
7.88 -0.378718
7.89 -0.347537
7.9 -0.307533
7.91 -0.260325
7.92 -0.208611
7.93 -0.154225
7.94 -0.0999178
7.95 -0.0480587
7.96 -0.00122158
7.97 0.0388363
7.98 0.0688942
7.99 0.0886608
8 0.0954256
8.01 0.0892054
8.02 0.0695536
8.03 0.0358755
8.04 -0.00967058
8.05 -0.0676508
8.06 -0.134732
8.07 -0.209597
8.08 -0.289595
8.09 -0.372124
8.1 -0.454556
8.11 -0.534541
8.12 -0.609435
8.13 -0.677623
8.14 -0.737709
8.15 -0.788192
8.16 -0.829789
8.17 -0.861287
8.18 -0.884763
8.19 -0.90078
8.2 -0.911104
8.21 -0.917693
8.22 -0.922187
8.23 -0.926547
8.24 -0.932298
8.25 -0.940455
8.26 -0.951511
8.27 -0.965468
8.28 -0.981224
8.29 -0.997255
8.3 -1.01118
8.31 -1.01995
8.32 -1.01983
8.33 -1.0079
8.34 -0.978105
8.35 -0.92921
8.36 -0.855141
8.37 -0.754616
8.38 -0.625457
8.39 -0.464664
8.4 -0.275643
8.41 -0.0551312
8.42 0.190272
8.43 0.458834
8.44 0.745024
8.45 1.04241
8.46 1.3447
8.47 1.64417
8.48 1.93251
8.49 2.20244
8.5 2.44694
8.51 2.65687
8.52 2.83061
8.53 2.95681
8.54 3.03814
8.55 3.06915
8.56 3.04962
8.57 2.98343
8.58 2.8672
8.59 2.71136
8.6 2.516
8.61 2.2901
8.62 2.03967
8.63 1.77113
8.64 1.49302
8.65 1.21175
8.66 0.934485
8.67 0.667448
8.68 0.416365
8.69 0.184256
8.7 -0.0225167
8.71 -0.205265
8.72 -0.359732
8.73 -0.487767
8.74 -0.590004
8.75 -0.666738
8.76 -0.722881
8.77 -0.758285
8.78 -0.778843
8.79 -0.786702
8.8 -0.785622
8.81 -0.779072
8.82 -0.76973
8.83 -0.760449
8.84 -0.753445
8.85 -0.750284
8.86 -0.752044
8.87 -0.759741
8.88 -0.772883
8.89 -0.792085
8.9 -0.815973
8.91 -0.844065
8.92 -0.875201
8.93 -0.908159
8.94 -0.941844
8.95 -0.975087
8.96 -1.00679
8.97 -1.03617
8.98 -1.0626
8.99 -1.08538
9 -1.1047
9.01 -1.11995
9.02 -1.13178
9.03 -1.14022
9.04 -1.1457
9.05 -1.14882
9.06 -1.14976
9.07 -1.14923
9.08 -1.14739
9.09 -1.14455
9.1 -1.14078
9.11 -1.13591
9.12 -1.12983
9.13 -1.12187
9.14 -1.1117
9.15 -1.09849
9.16 -1.08143
9.17 -1.06006
9.18 -1.03293
9.19 -1.00022
9.2 -0.960693
9.21 -0.914506
9.22 -0.861588
9.23 -0.801788
9.24 -0.736362
9.25 -0.66537
9.26 -0.590709
9.27 -0.513524
9.28 -0.435669
9.29 -0.35887
9.3 -0.285521
9.31 -0.217035
9.32 -0.155979
9.33 -0.103652
9.34 -0.0614443
9.35 -0.0312481
9.36 -0.0123983
9.37 -0.00703347
9.38 -0.0132243
9.39 -0.0311574
9.4 -0.0595462
9.41 -0.0963581
9.42 -0.140599
9.43 -0.18924
9.44 -0.240534
9.45 -0.29194
9.46 -0.341445
9.47 -0.386737
9.48 -0.426773
9.49 -0.459281
9.5 -0.484391
9.51 -0.501226
9.52 -0.509966
9.53 -0.511647
9.54 -0.506454
9.55 -0.49661
9.56 -0.483153
9.57 -0.468124
9.58 -0.453138
9.59 -0.44005
9.6 -0.42999
9.61 -0.424787
9.62 -0.424687
9.63 -0.430525
9.64 -0.442385
9.65 -0.45964
9.66 -0.482332
9.67 -0.508878
9.68 -0.538676
9.69 -0.570307
9.7 -0.602716
9.71 -0.634782
9.72 -0.665752
9.73 -0.694736
9.74 -0.721612
9.75 -0.746133
9.76 -0.768454
9.77 -0.789006
9.78 -0.808029
9.79 -0.82613
9.8 -0.843494
9.81 -0.860216
9.82 -0.875995
9.83 -0.889892
9.84 -0.900912
9.85 -0.906457
9.86 -0.9047
9.87 -0.892172
9.88 -0.865111
9.89 -0.821019
9.9 -0.753054
9.91 -0.660824
9.92 -0.537637
9.93 -0.382408
9.94 -0.193027
9.95 0.0340601
9.96 0.294696
9.97 0.592813
9.98 0.920935
9.99 1.27717
10 1.65541
10.01 2.04813
10.02 2.4483
10.03 2.84663
10.04 3.23345
10.05 3.59977
10.06 3.93709
10.07 4.23395
10.08 4.48788
10.09 4.68486
10.1 4.82711
10.11 4.90765
10.12 4.92515
10.13 4.88408
10.14 4.77905
10.15 4.62281
10.16 4.41468
10.17 4.1653
10.18 3.88192
10.19 3.57182
10.2 3.24596
10.21 2.91147
10.22 2.57777
10.23 2.2522
10.24 1.94194
10.25 1.65089
10.26 1.38647
10.27 1.14763
10.28 0.939002
10.29 0.758733
10.3 0.605863
10.31 0.47991
10.32 0.375309
10.33 0.291711
10.34 0.222757
10.35 0.165793
10.36 0.116762
10.37 0.0720598
10.38 0.0288627
10.39 -0.0153697
10.4 -0.0626413
10.41 -0.114019
10.42 -0.170063
10.43 -0.231138
10.44 -0.296299
10.45 -0.365308
10.46 -0.436608
10.47 -0.50917
10.48 -0.581591
10.49 -0.652747
10.5 -0.721146
10.51 -0.786224
10.52 -0.84675
10.53 -0.902389
10.54 -0.95276
10.55 -0.99724
10.56 -1.03638
10.57 -1.0693
10.58 -1.0968
10.59 -1.11854
10.6 -1.13455
10.61 -1.14519
10.62 -1.14965
10.63 -1.14872
10.64 -1.14163
10.65 -1.12869
10.66 -1.10988
10.67 -1.08488
10.68 -1.05456
10.69 -1.01848
10.7 -0.977905
10.71 -0.933248
10.72 -0.885545
10.73 -0.83601
10.74 -0.785853
10.75 -0.736487
10.76 -0.689481
10.77 -0.646177
10.78 -0.607825
10.79 -0.576113
10.8 -0.551219
10.81 -0.535079
10.82 -0.527089
10.83 -0.527965
10.84 -0.537546
10.85 -0.554845
10.86 -0.58011
10.87 -0.611299
10.88 -0.64796
10.89 -0.688392
10.9 -0.731335
10.91 -0.775439
10.92 -0.819391
10.93 -0.86185
10.94 -0.901966
10.95 -0.938774
10.96 -0.971591
10.97 -1.00032
10.98 -1.02416
10.99 -1.04382
11 -1.05899
11.01 -1.07033
11.02 -1.07831
11.03 -1.08333
11.04 -1.0863
11.05 -1.08764
11.06 -1.0882
11.07 -1.08854
11.08 -1.08926
11.09 -1.0908
11.1 -1.09372
11.11 -1.09813
11.12 -1.10436
11.13 -1.11232
11.14 -1.1219
11.15 -1.13284
11.16 -1.14452
11.17 -1.15628
11.18 -1.16715
11.19 -1.17594
11.2 -1.18116
11.21 -1.18159
11.22 -1.17451
11.23 -1.15914
11.24 -1.13237
11.25 -1.09278
11.26 -1.03856
11.27 -0.966662
11.28 -0.877642
11.29 -0.76744
11.3 -0.637897
11.31 -0.487536
11.32 -0.31682
11.33 -0.12815
11.34 0.0788837
11.35 0.299216
11.36 0.531106
11.37 0.76969
11.38 1.01079
11.39 1.2491
11.4 1.48022
11.41 1.69721
11.42 1.89661
11.43 2.07261
11.44 2.22042
11.45 2.33864
11.46 2.41978
11.47 2.46718
11.48 2.47577
11.49 2.44813
11.5 2.38551
11.51 2.28797
11.52 2.16234
11.53 2.00852
11.54 1.83457
11.55 1.64396
11.56 1.44238
11.57 1.23533
11.58 1.02786
11.59 0.824549
11.6 0.630152
11.61 0.447782
11.62 0.279903
11.63 0.12963
11.64 -0.00409213
11.65 -0.118439
11.66 -0.216346
11.67 -0.297935
11.68 -0.365117
11.69 -0.420852
11.7 -0.466287
11.71 -0.505276
11.72 -0.53952
11.73 -0.571655
11.74 -0.603452
11.75 -0.63655
11.76 -0.671707
11.77 -0.709765
11.78 -0.7503
11.79 -0.792913
11.8 -0.836479
11.81 -0.879653
11.82 -0.920396
11.83 -0.957195
11.84 -0.987494
11.85 -1.00956
11.86 -1.02165
11.87 -1.02113
11.88 -1.00811
11.89 -0.979407
11.9 -0.936215
11.91 -0.877334
11.92 -0.802907
11.93 -0.714573
11.94 -0.611532
11.95 -0.497247
11.96 -0.372197
11.97 -0.239272
11.98 -0.100717
11.99 0.0409804
12 0.182997
12.01 0.322334
12.02 0.456549
12.03 0.582761
12.04 0.698222
12.05 0.801641
12.06 0.889003
12.07 0.960999
12.08 1.0145
12.09 1.04977
12.1 1.06658
12.11 1.06376
12.12 1.0441
12.13 1.00611
12.14 0.953508
12.15 0.887145
12.16 0.809346
12.17 0.723083
12.18 0.630062
12.19 0.53373
12.2 0.436276
12.21 0.340276
12.22 0.247708
12.23 0.16085
12.24 0.0803491
12.25 0.00827317
12.26 -0.0558876
12.27 -0.11161
12.28 -0.159324
12.29 -0.200338
12.3 -0.235012
12.31 -0.265595
12.32 -0.293171
12.33 -0.319587
12.34 -0.346247
12.35 -0.374652
12.36 -0.405552
12.37 -0.440083
12.38 -0.478056
12.39 -0.519478
12.4 -0.563622
