# xPDFsuite Configuration #
[PDF]
wavelength = 0.1432
dataformat = twotheta
inputfile = 1_1Pd_CeO2_cycle-00415.chi
backgroundfile = background-00000.chi
mode = xray
bgscale = 1.007
composition = CeO2
outputtype = gr
qmaxinst = 28.8974762299
qmin = 0.5
qmax = 27.9
rmax = 50.0
rmin = 0.0
rstep = 0.01
rpoly = 1.8657

[Misc]
inputdir = G:/SankarDec16/1Pd/Chi
savedir = D:/DATA/APS_CeO2/1Pd
backgroundfilefull = G:/SankarDec16/Background/background-00000.chi

#### start data
#S 1
#L r($\AA$)  G($\AA^{-2}$)
0 0
0.01 -0.00422413
0.02 -0.00812798
0.03 -0.0113819
0.04 -0.013738
0.05 -0.0150588
0.06 -0.0151236
0.07 -0.0140815
0.08 -0.0118636
0.09 -0.00875362
0.1 -0.00494894
0.11 -0.000750443
0.12 0.00351611
0.13 0.00748299
0.14 0.0108939
0.15 0.0134327
0.16 0.0149171
0.17 0.0152767
0.18 0.0143654
0.19 0.0124049
0.2 0.00940998
0.21 0.00571292
0.22 0.00156057
0.23 -0.00270855
0.24 -0.00678959
0.25 -0.0102865
0.26 -0.0130202
0.27 -0.0147046
0.28 -0.0152326
0.29 -0.0146048
0.3 -0.0127573
0.31 -0.00997302
0.32 -0.00634993
0.33 -0.00225174
0.34 0.00203806
0.35 0.00616064
0.36 0.00984811
0.37 0.0126967
0.38 0.0146141
0.39 0.0153591
0.4 0.0149058
0.41 0.0133261
0.42 0.0106418
0.43 0.00718264
0.44 0.00312482
0.45 -0.00115516
0.46 -0.00535198
0.47 -0.00910499
0.48 -0.0121975
0.49 -0.0142391
0.5 -0.0152294
0.51 -0.0149853
0.52 -0.0135634
0.53 -0.0111035
0.54 -0.00771293
0.55 -0.00375101
0.56 0.000536588
0.57 0.00478001
0.58 0.00866815
0.59 0.0118571
0.6 0.0141931
0.61 0.0153199
0.62 0.0153292
0.63 0.0141059
0.64 0.0117872
0.65 0.00857361
0.66 0.00465307
0.67 0.000395933
0.68 -0.00389509
0.69 -0.00787578
0.7 -0.0112455
0.71 -0.0136946
0.72 -0.0151407
0.73 -0.0152794
0.74 -0.0142904
0.75 -0.012132
0.76 -0.00901414
0.77 -0.00518745
0.78 -0.000909231
0.79 0.00345868
0.8 0.00757442
0.81 0.0111377
0.82 0.0138754
0.83 0.0155296
0.84 0.0160929
0.85 0.0153304
0.86 0.0134972
0.87 0.0106261
0.88 0.00698499
0.89 0.0028567
0.9 -0.00145299
0.91 -0.00561639
0.92 -0.0092833
0.93 -0.0122222
0.94 -0.0142155
0.95 -0.0150874
0.96 -0.0149123
0.97 -0.0135665
0.98 -0.0113654
0.99 -0.00843664
1 -0.00509849
1.01 -0.00165129
1.02 0.00155109
1.03 0.00425512
1.04 0.00611498
1.05 0.00701074
1.06 0.00681348
1.07 0.00547453
1.08 0.0031885
1.09 9.10499e-06
1.1 -0.00365546
1.11 -0.00751369
1.12 -0.0111426
1.13 -0.0141822
1.14 -0.0161296
1.15 -0.0168051
1.16 -0.0157494
1.17 -0.0129506
1.18 -0.00831056
1.19 -0.00184739
1.2 0.00607862
1.21 0.0153524
1.22 0.0253511
1.23 0.0356478
1.24 0.0456326
1.25 0.0547876
1.26 0.0623815
1.27 0.0681291
1.28 0.0713089
1.29 0.0718157
1.3 0.06938
1.31 0.0638245
1.32 0.0555292
1.33 0.0442688
1.34 0.0308321
1.35 0.0154546
1.36 -0.00121707
1.37 -0.018577
1.38 -0.0359723
1.39 -0.0527992
1.4 -0.0683307
1.41 -0.0821119
1.42 -0.0936405
1.43 -0.102405
1.44 -0.108427
1.45 -0.111024
1.46 -0.110644
1.47 -0.107027
1.48 -0.100415
1.49 -0.0911288
1.5 -0.0792219
1.51 -0.0653675
1.52 -0.0497301
1.53 -0.0329318
1.54 -0.015384
1.55 0.00240311
1.56 0.0199684
1.57 0.0367144
1.58 0.0522978
1.59 0.0661621
1.6 0.0779113
1.61 0.0872895
1.62 0.0936833
1.63 0.0972438
1.64 0.0974028
1.65 0.0943937
1.66 0.0881577
1.67 0.0787306
1.68 0.0666572
1.69 0.0518974
1.7 0.035315
1.71 0.0172815
1.72 -0.00148126
1.73 -0.0203247
1.74 -0.0384678
1.75 -0.0553673
1.76 -0.0701939
1.77 -0.0825896
1.78 -0.0921065
1.79 -0.0983554
1.8 -0.101588
1.81 -0.101393
1.82 -0.0985591
1.83 -0.0932724
1.84 -0.0862495
1.85 -0.0782152
1.86 -0.0699599
1.87 -0.0622777
1.88 -0.056082
1.89 -0.0519666
1.9 -0.0505273
1.91 -0.052306
1.92 -0.0571504
1.93 -0.0655451
1.94 -0.0766856
1.95 -0.0903375
1.96 -0.105659
1.97 -0.121772
1.98 -0.137618
1.99 -0.152227
2 -0.164294
2.01 -0.173013
2.02 -0.177471
2.03 -0.176732
2.04 -0.170895
2.05 -0.158816
2.06 -0.141455
2.07 -0.118584
2.08 -0.0909172
2.09 -0.0593027
2.1 -0.024284
2.11 0.0128204
2.12 0.0512894
2.13 0.0900702
2.14 0.128424
2.15 0.16563
2.16 0.201407
2.17 0.235247
2.18 0.267423
2.19 0.297957
2.2 0.327263
2.21 0.355806
2.22 0.384073
2.23 0.412554
2.24 0.441692
2.25 0.471672
2.26 0.502542
2.27 0.534092
2.28 0.565819
2.29 0.596881
2.3 0.626382
2.31 0.652982
2.32 0.675316
2.33 0.69229
2.34 0.701767
2.35 0.70356
2.36 0.695556
2.37 0.677908
2.38 0.650079
2.39 0.611791
2.4 0.564596
2.41 0.508098
2.42 0.445054
2.43 0.376551
2.44 0.304891
2.45 0.232181
2.46 0.160808
2.47 0.092588
2.48 0.0299733
2.49 -0.0258802
2.5 -0.0736769
2.51 -0.112283
2.52 -0.142414
2.53 -0.162914
2.54 -0.17593
2.55 -0.181881
2.56 -0.182548
2.57 -0.17971
2.58 -0.175038
2.59 -0.170444
2.6 -0.167668
2.61 -0.167973
2.62 -0.172405
2.63 -0.181821
2.64 -0.195882
2.65 -0.215092
2.66 -0.238029
2.67 -0.264046
2.68 -0.291686
2.69 -0.319574
2.7 -0.346065
2.71 -0.370037
2.72 -0.389894
2.73 -0.405073
2.74 -0.414968
2.75 -0.419242
2.76 -0.418739
2.77 -0.413461
2.78 -0.405163
2.79 -0.394876
2.8 -0.384273
2.81 -0.37479
2.82 -0.368242
2.83 -0.365461
2.84 -0.368003
2.85 -0.376022
2.86 -0.389792
2.87 -0.409203
2.88 -0.433002
2.89 -0.4606
2.9 -0.489961
2.91 -0.519565
2.92 -0.547461
2.93 -0.572112
2.94 -0.591349
2.95 -0.604673
2.96 -0.610368
2.97 -0.608713
2.98 -0.599688
2.99 -0.583754
3 -0.562675
3.01 -0.537408
3.02 -0.510462
3.03 -0.483734
3.04 -0.459505
3.05 -0.439482
3.06 -0.426095
3.07 -0.419707
3.08 -0.422103
3.09 -0.432731
3.1 -0.451405
3.11 -0.477368
3.12 -0.508531
3.13 -0.543595
3.14 -0.57982
3.15 -0.615059
3.16 -0.646921
3.17 -0.673727
3.18 -0.693073
3.19 -0.70492
3.2 -0.707778
3.21 -0.702668
3.22 -0.690272
3.23 -0.671993
3.24 -0.650277
3.25 -0.627332
3.26 -0.605959
3.27 -0.5889
3.28 -0.578682
3.29 -0.576866
3.3 -0.586078
3.31 -0.605591
3.32 -0.636749
3.33 -0.677638
3.34 -0.726894
3.35 -0.782227
3.36 -0.840388
3.37 -0.898095
3.38 -0.952027
3.39 -0.99861
3.4 -1.03488
3.41 -1.05919
3.42 -1.06848
3.43 -1.06419
3.44 -1.04498
3.45 -1.0137
3.46 -0.972419
3.47 -0.924321
3.48 -0.873545
3.49 -0.824351
3.5 -0.780564
3.51 -0.746315
3.52 -0.7246
3.53 -0.716637
3.54 -0.724738
3.55 -0.745996
3.56 -0.779585
3.57 -0.820218
3.58 -0.862779
3.59 -0.899694
3.6 -0.924474
3.61 -0.925353
3.62 -0.897209
3.63 -0.829276
3.64 -0.714528
3.65 -0.549637
3.66 -0.324133
3.67 -0.0441299
3.68 0.297128
3.69 0.691086
3.7 1.13329
3.71 1.61644
3.72 2.12667
3.73 2.65409
3.74 3.18218
3.75 3.69633
3.76 4.18038
3.77 4.62224
3.78 5.00135
3.79 5.31457
3.8 5.54266
3.81 5.68537
3.82 5.73696
3.83 5.69223
3.84 5.5629
3.85 5.34035
3.86 5.04567
3.87 4.68225
3.88 4.26465
3.89 3.80759
3.9 3.32266
3.91 2.82693
3.92 2.33342
3.93 1.85507
3.94 1.4027
3.95 0.98776
3.96 0.612806
3.97 0.29015
3.98 0.0147963
3.99 -0.208701
4 -0.383381
4.01 -0.514716
4.02 -0.60329
4.03 -0.660297
4.04 -0.68833
4.05 -0.696746
4.06 -0.691252
4.07 -0.677857
4.08 -0.662035
4.09 -0.64815
4.1 -0.638974
4.11 -0.636807
4.12 -0.642396
4.13 -0.65522
4.14 -0.674947
4.15 -0.699064
4.16 -0.725891
4.17 -0.752718
4.18 -0.777262
4.19 -0.796891
4.2 -0.810341
4.21 -0.814795
4.22 -0.810479
4.23 -0.796074
4.24 -0.77174
4.25 -0.738314
4.26 -0.695613
4.27 -0.645844
4.28 -0.589333
4.29 -0.527962
4.3 -0.462805
4.31 -0.394952
4.32 -0.325556
4.33 -0.255239
4.34 -0.184701
4.35 -0.114306
4.36 -0.0443303
4.37 0.0250893
4.38 0.0937137
4.39 0.161463
4.4 0.227906
4.41 0.292684
4.42 0.355173
4.43 0.414353
4.44 0.469669
4.45 0.519151
4.46 0.562379
4.47 0.597535
4.48 0.623448
4.49 0.639551
4.5 0.643662
4.51 0.636771
4.52 0.617106
4.53 0.585811
4.54 0.543124
4.55 0.48948
4.56 0.427118
4.57 0.356304
4.58 0.279986
4.59 0.199552
4.6 0.117229
4.61 0.0348926
4.62 -0.0453589
4.63 -0.122251
4.64 -0.193893
4.65 -0.259618
4.66 -0.318648
4.67 -0.370262
4.68 -0.4152
4.69 -0.452646
4.7 -0.484179
4.71 -0.509986
4.72 -0.531109
4.73 -0.548617
4.74 -0.56314
4.75 -0.575894
4.76 -0.587443
4.77 -0.598534
4.78 -0.609597
4.79 -0.620969
4.8 -0.632749
4.81 -0.645017
4.82 -0.657602
4.83 -0.670351
4.84 -0.683019
4.85 -0.695394
4.86 -0.70719
4.87 -0.718316
4.88 -0.728555
4.89 -0.737915
4.9 -0.746383
4.91 -0.753973
4.92 -0.760861
4.93 -0.767054
4.94 -0.772768
4.95 -0.778063
4.96 -0.783036
4.97 -0.787752
4.98 -0.792203
4.99 -0.79642
5 -0.800351
5.01 -0.803996
5.02 -0.807344
5.03 -0.810409
5.04 -0.813282
5.05 -0.816065
5.06 -0.818939
5.07 -0.822118
5.08 -0.825843
5.09 -0.83029
5.1 -0.835743
5.11 -0.842151
5.12 -0.849588
5.13 -0.857732
5.14 -0.866178
5.15 -0.87417
5.16 -0.880908
5.17 -0.884812
5.18 -0.884847
5.19 -0.879089
5.2 -0.865761
5.21 -0.843623
5.22 -0.809657
5.23 -0.763966
5.24 -0.70367
5.25 -0.629039
5.26 -0.539486
5.27 -0.434507
5.28 -0.316462
5.29 -0.184853
5.3 -0.043715
5.31 0.105063
5.32 0.257754
5.33 0.410747
5.34 0.559444
5.35 0.700446
5.36 0.828386
5.37 0.940223
5.38 1.0324
5.39 1.10064
5.4 1.14544
5.41 1.16122
5.42 1.15147
5.43 1.11437
5.44 1.0518
5.45 0.966982
5.46 0.860548
5.47 0.738693
5.48 0.603523
5.49 0.460496
5.5 0.313525
5.51 0.167081
5.52 0.024621
5.53 -0.109273
5.54 -0.232932
5.55 -0.343335
5.56 -0.439095
5.57 -0.520262
5.58 -0.584973
5.59 -0.635935
5.6 -0.672449
5.61 -0.697184
5.62 -0.711579
5.63 -0.71717
5.64 -0.716529
5.65 -0.710516
5.66 -0.701292
5.67 -0.689651
5.68 -0.676433
5.69 -0.662047
5.7 -0.646354
5.71 -0.629234
5.72 -0.609926
5.73 -0.587888
5.74 -0.5624
5.75 -0.53255
5.76 -0.498351
5.77 -0.458794
5.78 -0.414691
5.79 -0.366073
5.8 -0.313876
5.81 -0.259323
5.82 -0.203783
5.83 -0.14899
5.84 -0.0969579
5.85 -0.0494241
5.86 -0.00814879
5.87 0.0247269
5.88 0.0488584
5.89 0.0616402
5.9 0.0640434
5.91 0.055054
5.92 0.0351958
5.93 0.00571754
5.94 -0.0332603
5.95 -0.0790926
5.96 -0.130931
5.97 -0.186439
5.98 -0.243972
5.99 -0.301721
6 -0.358278
6.01 -0.412006
6.02 -0.462349
6.03 -0.508448
6.04 -0.55011
6.05 -0.587657
6.06 -0.621035
6.07 -0.651395
6.08 -0.679155
6.09 -0.7054
6.1 -0.730884
6.11 -0.75638
6.12 -0.782391
6.13 -0.809385
6.14 -0.837311
6.15 -0.866074
6.16 -0.895213
6.17 -0.924151
6.18 -0.952
6.19 -0.97812
6.2 -1.00143
6.21 -1.0214
6.22 -1.03744
6.23 -1.04898
6.24 -1.05641
6.25 -1.05926
6.26 -1.05861
6.27 -1.05482
6.28 -1.04881
6.29 -1.04151
6.3 -1.03369
6.31 -1.02601
6.32 -1.01886
6.33 -1.01211
6.34 -1.00522
6.35 -0.996879
6.36 -0.985643
6.37 -0.968326
6.38 -0.9428
6.39 -0.905043
6.4 -0.851175
6.41 -0.778526
6.42 -0.680369
6.43 -0.556749
6.44 -0.401176
6.45 -0.21373
6.46 0.00721032
6.47 0.263588
6.48 0.55062
6.49 0.87057
6.5 1.21506
6.51 1.58098
6.52 1.96097
6.53 2.34739
6.54 2.73139
6.55 3.10478
6.56 3.45656
6.57 3.77891
6.58 4.06342
6.59 4.29937
6.6 4.4859
6.61 4.60886
6.62 4.67324
6.63 4.67242
6.64 4.60732
6.65 4.48311
6.66 4.29659
6.67 4.06116
6.68 3.77744
6.69 3.45727
6.7 3.10835
6.71 2.73933
6.72 2.36076
6.73 1.98128
6.74 1.60951
6.75 1.25358
6.76 0.920493
6.77 0.613912
6.78 0.341841
6.79 0.102184
6.8 -0.0994873
6.81 -0.266046
6.82 -0.39819
6.83 -0.496476
6.84 -0.567194
6.85 -0.609767
6.86 -0.631863
6.87 -0.635712
6.88 -0.625829
6.89 -0.606343
6.9 -0.579868
6.91 -0.550062
6.92 -0.518915
6.93 -0.488383
6.94 -0.459647
6.95 -0.433678
6.96 -0.410529
6.97 -0.390761
6.98 -0.373798
6.99 -0.359651
7 -0.348036
7.01 -0.33866
7.02 -0.331761
7.03 -0.327114
7.04 -0.325307
7.05 -0.326573
7.06 -0.331454
7.07 -0.340813
7.08 -0.354708
7.09 -0.374469
7.1 -0.399679
7.11 -0.430935
7.12 -0.468065
7.13 -0.510407
7.14 -0.557863
7.15 -0.608845
7.16 -0.662582
7.17 -0.717437
7.18 -0.772035
7.19 -0.824672
7.2 -0.874237
7.21 -0.918738
7.22 -0.957762
7.23 -0.990088
7.24 -1.01529
7.25 -1.03365
7.26 -1.04461
7.27 -1.04971
7.28 -1.04912
7.29 -1.04439
7.3 -1.03663
7.31 -1.02709
7.32 -1.01702
7.33 -1.00749
7.34 -0.999181
7.35 -0.992603
7.36 -0.987764
7.37 -0.984219
7.38 -0.981205
7.39 -0.977501
7.4 -0.971404
7.41 -0.9612
7.42 -0.945003
7.43 -0.920221
7.44 -0.88602
7.45 -0.838883
7.46 -0.779112
7.47 -0.704737
7.48 -0.6154
7.49 -0.512033
7.5 -0.393646
7.51 -0.263531
7.52 -0.122157
7.53 0.0270962
7.54 0.181602
7.55 0.338045
7.56 0.493093
7.57 0.642522
7.58 0.783575
7.59 0.912361
7.6 1.02573
7.61 1.12218
7.62 1.19712
7.63 1.25199
7.64 1.28321
7.65 1.29218
7.66 1.279
7.67 1.24339
7.68 1.18906
7.69 1.11507
7.7 1.02632
7.71 0.924171
7.72 0.811816
7.73 0.692515
7.74 0.568793
7.75 0.444051
7.76 0.321085
7.77 0.202521
7.78 0.0906315
7.79 -0.0118439
7.8 -0.104304
7.81 -0.183488
7.82 -0.250083
7.83 -0.302439
7.84 -0.340367
7.85 -0.364774
7.86 -0.374424
7.87 -0.372089
7.88 -0.357409
7.89 -0.332783
7.9 -0.299723
7.91 -0.25989
7.92 -0.215906
7.93 -0.169553
7.94 -0.123378
7.95 -0.0795281
7.96 -0.0402586
7.97 -0.00704512
7.98 0.0174022
7.99 0.03297
8 0.0374737
8.01 0.0310758
8.02 0.0135211
8.03 -0.0155653
8.04 -0.0543369
8.05 -0.103206
8.06 -0.159465
8.07 -0.222091
8.08 -0.289044
8.09 -0.358333
8.1 -0.42807
8.11 -0.496467
8.12 -0.561678
8.13 -0.62252
8.14 -0.678013
8.15 -0.727119
8.16 -0.770293
8.17 -0.806693
8.18 -0.837668
8.19 -0.863519
8.2 -0.885309
8.21 -0.904216
8.22 -0.921042
8.23 -0.936929
8.24 -0.952442
8.25 -0.967948
8.26 -0.98336
8.27 -0.998031
8.28 -1.01107
8.29 -1.02042
8.3 -1.02452
8.31 -1.02056
8.32 -1.00566
8.33 -0.977834
8.34 -0.932079
8.35 -0.868232
8.36 -0.781498
8.37 -0.671528
8.38 -0.537018
8.39 -0.376014
8.4 -0.191793
8.41 0.0178727
8.42 0.247288
8.43 0.494737
8.44 0.755512
8.45 1.02432
8.46 1.29583
8.47 1.56391
8.48 1.82167
8.49 2.06328
8.5 2.28305
8.51 2.47343
8.52 2.63316
8.53 2.75271
8.54 2.83421
8.55 2.87288
8.56 2.8682
8.57 2.82313
8.58 2.73416
8.59 2.60984
8.6 2.44944
8.61 2.26021
8.62 2.04677
8.63 1.81394
8.64 1.56914
8.65 1.31703
8.66 1.06427
8.67 0.816036
8.68 0.577571
8.69 0.352108
8.7 0.145346
8.71 -0.0427473
8.72 -0.207949
8.73 -0.350872
8.74 -0.471274
8.75 -0.568474
8.76 -0.646155
8.77 -0.703173
8.78 -0.744443
8.79 -0.771234
8.8 -0.786575
8.81 -0.793636
8.82 -0.794368
8.83 -0.792
8.84 -0.788417
8.85 -0.785667
8.86 -0.785153
8.87 -0.788242
8.88 -0.795175
8.89 -0.806928
8.9 -0.822836
8.91 -0.842871
8.92 -0.866363
8.93 -0.892402
8.94 -0.920305
8.95 -0.948922
8.96 -0.97739
8.97 -1.00483
8.98 -1.03054
8.99 -1.05376
9 -1.07439
9.01 -1.09172
9.02 -1.10612
9.03 -1.11745
9.04 -1.12595
9.05 -1.13206
9.06 -1.13586
9.07 -1.13799
9.08 -1.13852
9.09 -1.13781
9.1 -1.1359
9.11 -1.13268
9.12 -1.12809
9.13 -1.12149
9.14 -1.11262
9.15 -1.10068
9.16 -1.08492
9.17 -1.06489
9.18 -1.03919
9.19 -1.00798
9.2 -0.970055
9.21 -0.925564
9.22 -0.874437
9.23 -0.81653
9.24 -0.753086
9.25 -0.684176
9.26 -0.611678
9.27 -0.536729
9.28 -0.461161
9.29 -0.386667
9.3 -0.315588
9.31 -0.249283
9.32 -0.190225
9.33 -0.139628
9.34 -0.0987841
9.35 -0.0694376
9.36 -0.0508792
9.37 -0.0450422
9.38 -0.0500082
9.39 -0.0658497
9.4 -0.0912543
9.41 -0.124255
9.42 -0.163811
9.43 -0.20711
9.44 -0.252474
9.45 -0.297597
9.46 -0.34067
9.47 -0.379642
9.48 -0.413685
9.49 -0.440855
9.5 -0.461427
9.51 -0.474772
9.52 -0.481226
9.53 -0.481834
9.54 -0.476984
9.55 -0.46867
9.56 -0.457983
9.57 -0.446716
9.58 -0.436301
9.59 -0.428378
9.6 -0.423778
9.61 -0.424083
9.62 -0.429283
9.63 -0.439984
9.64 -0.456069
9.65 -0.47683
9.66 -0.502117
9.67 -0.530444
9.68 -0.561131
9.69 -0.592886
9.7 -0.624739
9.71 -0.65565
9.72 -0.685033
9.73 -0.71204
9.74 -0.736672
9.75 -0.758698
9.76 -0.778272
9.77 -0.795799
9.78 -0.811391
9.79 -0.825612
9.8 -0.838469
9.81 -0.849984
9.82 -0.859787
9.83 -0.866857
9.84 -0.870334
9.85 -0.867655
9.86 -0.857315
9.87 -0.836146
9.88 -0.800866
9.89 -0.749421
9.9 -0.675769
9.91 -0.579886
9.92 -0.455981
9.93 -0.303387
9.94 -0.12046
9.95 0.0956939
9.96 0.341236
9.97 0.619436
9.98 0.923666
9.99 1.25222
10 1.59977
10.01 1.95983
10.02 2.32642
10.03 2.69159
10.04 3.04714
10.05 3.38544
10.06 3.69923
10.07 3.97876
10.08 4.22182
10.09 4.41631
10.1 4.56391
10.11 4.65833
10.12 4.69796
10.13 4.68625
10.14 4.61771
10.15 4.50291
10.16 4.34025
10.17 4.13832
10.18 3.90271
10.19 3.63868
10.2 3.3558
10.21 3.05897
10.22 2.7569
10.23 2.45554
10.24 2.16134
10.25 1.87847
10.26 1.61338
10.27 1.36672
10.28 1.14307
10.29 0.942227
10.3 0.764485
10.31 0.610744
10.32 0.477171
10.33 0.364916
10.34 0.268991
10.35 0.188034
10.36 0.119038
10.37 0.058757
10.38 0.00539674
10.39 -0.0442882
10.4 -0.0919782
10.41 -0.139619
10.42 -0.18846
10.43 -0.239652
10.44 -0.293453
10.45 -0.35052
10.46 -0.410338
10.47 -0.472734
10.48 -0.537054
10.49 -0.602482
10.5 -0.668159
10.51 -0.733137
10.52 -0.796319
10.53 -0.856796
10.54 -0.913698
10.55 -0.965805
10.56 -1.01293
10.57 -1.05351
10.58 -1.08777
10.59 -1.11483
10.6 -1.13436
10.61 -1.14667
10.62 -1.15073
10.63 -1.14778
10.64 -1.13722
10.65 -1.11998
10.66 -1.09656
10.67 -1.06732
10.68 -1.03363
10.69 -0.995807
10.7 -0.955337
10.71 -0.91304
10.72 -0.870065
10.73 -0.827406
10.74 -0.786264
10.75 -0.747331
10.76 -0.711747
10.77 -0.680064
10.78 -0.652828
10.79 -0.630844
10.8 -0.613798
10.81 -0.602647
10.82 -0.596675
10.83 -0.59613
10.84 -0.60077
10.85 -0.609975
10.86 -0.623953
10.87 -0.641637
10.88 -0.663024
10.89 -0.687394
10.9 -0.71431
10.91 -0.74343
10.92 -0.774093
10.93 -0.806052
10.94 -0.838705
10.95 -0.871677
10.96 -0.90449
10.97 -0.936756
10.98 -0.967885
10.99 -0.997613
11 -1.02533
11.01 -1.05074
11.02 -1.07351
11.03 -1.09313
11.04 -1.10978
11.05 -1.12284
11.06 -1.13279
11.07 -1.13954
11.08 -1.1434
11.09 -1.14491
11.1 -1.14433
11.11 -1.1425
11.12 -1.13987
11.13 -1.13713
11.14 -1.13474
11.15 -1.13316
11.16 -1.13245
11.17 -1.13268
11.18 -1.13335
11.19 -1.13379
11.2 -1.13287
11.21 -1.12939
11.22 -1.12104
11.23 -1.10658
11.24 -1.08301
11.25 -1.0485
11.26 -1.00096
11.27 -0.937069
11.28 -0.856953
11.29 -0.756364
11.3 -0.636809
11.31 -0.496654
11.32 -0.336218
11.33 -0.157834
11.34 0.038942
11.35 0.249043
11.36 0.470724
11.37 0.699134
11.38 0.930141
11.39 1.15855
11.4 1.38011
11.41 1.5882
11.42 1.77961
11.43 1.94895
11.44 2.0919
11.45 2.20735
11.46 2.28858
11.47 2.33889
11.48 2.35389
11.49 2.33609
11.5 2.28679
11.51 2.20613
11.52 2.10023
11.53 1.96894
11.54 1.81928
11.55 1.65408
11.56 1.47806
11.57 1.29581
11.58 1.11117
11.59 0.92809
11.6 0.750141
11.61 0.579943
11.62 0.419513
11.63 0.271326
11.64 0.134905
11.65 0.0125742
11.66 -0.0974786
11.67 -0.194969
11.68 -0.280841
11.69 -0.356933
11.7 -0.423346
11.71 -0.482753
11.72 -0.535671
11.73 -0.583804
11.74 -0.628173
11.75 -0.669486
11.76 -0.708662
11.77 -0.745768
11.78 -0.781157
11.79 -0.814574
11.8 -0.845607
11.81 -0.873908
11.82 -0.898243
11.83 -0.918344
11.84 -0.932731
11.85 -0.940717
11.86 -0.941416
11.87 -0.933251
11.88 -0.916432
11.89 -0.888756
11.9 -0.850917
11.91 -0.801843
11.92 -0.741258
11.93 -0.669979
11.94 -0.586782
11.95 -0.493877
11.96 -0.390948
11.97 -0.279808
11.98 -0.16183
11.99 -0.0384555
12 0.0878988
12.01 0.215278
12.02 0.341177
12.03 0.463125
12.04 0.578379
12.05 0.685197
12.06 0.779687
12.07 0.861554
12.08 0.927411
12.09 0.976709
12.1 1.0086
12.11 1.02127
12.12 1.0169
12.13 0.993387
12.14 0.954099
12.15 0.899485
12.16 0.831605
12.17 0.753438
12.18 0.66638
12.19 0.574225
12.2 0.479062
12.21 0.383761
12.22 0.290496
12.23 0.201703
12.24 0.118382
12.25 0.0427234
12.26 -0.0254674
12.27 -0.085494
12.28 -0.137576
12.29 -0.182858
12.3 -0.221497
12.31 -0.255639
12.32 -0.286179
12.33 -0.314866
12.34 -0.343002
12.35 -0.371923
12.36 -0.402422
12.37 -0.435441
12.38 -0.47092
