# xPDFsuite Configuration #
[PDF]
wavelength = 0.1432
dataformat = twotheta
inputfile = 1_1Pd_CeO2_cycle-00321.chi
backgroundfile = background-00000.chi
mode = xray
bgscale = 1.007
composition = CeO2
outputtype = gr
qmaxinst = 28.8974762299
qmin = 0.5
qmax = 27.9
rmax = 50.0
rmin = 0.0
rstep = 0.01
rpoly = 1.8657

[Misc]
inputdir = G:/SankarDec16/1Pd/Chi
savedir = D:/DATA/APS_CeO2/1Pd
backgroundfilefull = G:/SankarDec16/Background/background-00000.chi

#### start data
#S 1
#L r($\AA$)  G($\AA^{-2}$)
0 0
0.01 -0.00501083
0.02 -0.00964341
0.03 -0.0135083
0.04 -0.0163123
0.05 -0.0178925
0.06 -0.0179871
0.07 -0.0167711
0.08 -0.0141613
0.09 -0.0104916
0.1 -0.00599348
0.11 -0.00102098
0.12 0.00404082
0.13 0.00875905
0.14 0.0128286
0.15 0.015875
0.16 0.01768
0.17 0.0181575
0.18 0.0171305
0.19 0.0148576
0.2 0.0113512
0.21 0.00700117
0.22 0.00209622
0.23 -0.0029661
0.24 -0.00782402
0.25 -0.0120113
0.26 -0.015311
0.27 -0.017382
0.28 -0.0180919
0.29 -0.0174356
0.3 -0.01533
0.31 -0.0121044
0.32 -0.00786642
0.33 -0.00304318
0.34 0.00203394
0.35 0.00694298
0.36 0.0113634
0.37 0.0148188
0.38 0.0171905
0.39 0.0181884
0.4 0.0177722
0.41 0.0160183
0.42 0.012942
0.43 0.00892711
0.44 0.00417153
0.45 -0.000881437
0.46 -0.005874
0.47 -0.0103803
0.48 -0.0141371
0.49 -0.0166812
0.5 -0.0179987
0.51 -0.0178645
0.52 -0.0163329
0.53 -0.0135586
0.54 -0.00965452
0.55 -0.00504046
0.56 5.04785e-06
0.57 0.00504402
0.58 0.00971008
0.59 0.0135942
0.6 0.0165039
0.61 0.018012
0.62 0.0182105
0.63 0.0169507
0.64 0.0143792
0.65 0.0107213
0.66 0.00618293
0.67 0.00119911
0.68 -0.00388456
0.69 -0.00865674
0.7 -0.0127606
0.71 -0.0158238
0.72 -0.0177344
0.73 -0.0181219
0.74 -0.0171794
0.75 -0.0148418
0.76 -0.0113401
0.77 -0.00695887
0.78 -0.00198517
0.79 0.00315242
0.8 0.00806045
0.81 0.0123749
0.82 0.0157679
0.83 0.0179234
0.84 0.0188149
0.85 0.0181495
0.86 0.0162094
0.87 0.0130155
0.88 0.00886934
0.89 0.00409633
0.9 -0.000954732
0.91 -0.00588925
0.92 -0.0102958
0.93 -0.0138841
0.94 -0.0163831
0.95 -0.017564
0.96 -0.0174941
0.97 -0.0159985
0.98 -0.0134348
0.99 -0.00993041
1 -0.00585019
1.01 -0.00154722
1.02 0.00256746
1.03 0.00617068
1.04 0.00884279
1.05 0.010406
1.06 0.0106744
1.07 0.00954412
1.08 0.00720963
1.09 0.00366665
1.1 -0.000622567
1.11 -0.0053689
1.12 -0.0100984
1.13 -0.0143943
1.14 -0.0176992
1.15 -0.0197566
1.16 -0.0200368
1.17 -0.0184643
1.18 -0.0148822
1.19 -0.00924868
1.2 -0.00191461
1.21 0.00707187
1.22 0.0170497
1.23 0.0276129
1.24 0.0381242
1.25 0.048031
1.26 0.0565883
1.27 0.0634496
1.28 0.0678754
1.29 0.0697131
1.3 0.0686681
1.31 0.0645391
1.32 0.0576872
1.33 0.0478767
1.34 0.0358885
1.35 0.0219535
1.36 0.00671298
1.37 -0.00923429
1.38 -0.0252533
1.39 -0.040757
1.4 -0.0550598
1.41 -0.0677428
1.42 -0.0783575
1.43 -0.0864674
1.44 -0.0921272
1.45 -0.0947859
1.46 -0.0948908
1.47 -0.0922808
1.48 -0.0872272
1.49 -0.080049
1.5 -0.0708545
1.51 -0.0602098
1.52 -0.0482814
1.53 -0.0355486
1.54 -0.0223154
1.55 -0.0089344
1.56 0.00429548
1.57 0.0170022
1.58 0.0289858
1.59 0.0399159
1.6 0.0495597
1.61 0.0577611
1.62 0.0641321
1.63 0.0687392
1.64 0.0711821
1.65 0.071546
1.66 0.0697183
1.67 0.0656164
1.68 0.0595246
1.69 0.0512518
1.7 0.0413279
1.71 0.0298649
1.72 0.0172775
1.73 0.00397379
1.74 -0.00962905
1.75 -0.0230699
1.76 -0.0358575
1.77 -0.0476301
1.78 -0.0580316
1.79 -0.0667162
1.8 -0.0737084
1.81 -0.0786573
1.82 -0.0819383
1.83 -0.0835763
1.84 -0.0839393
1.85 -0.0834322
1.86 -0.0824713
1.87 -0.0815635
1.88 -0.081214
1.89 -0.0818096
1.9 -0.0836975
1.91 -0.0871793
1.92 -0.0921769
1.93 -0.0988804
1.94 -0.106816
1.95 -0.115734
1.96 -0.125062
1.97 -0.134223
1.98 -0.142426
1.99 -0.149136
2 -0.153426
2.01 -0.154888
2.02 -0.152979
2.03 -0.147189
2.04 -0.137749
2.05 -0.12404
2.06 -0.106883
2.07 -0.0862951
2.08 -0.0629043
2.09 -0.0373656
2.1 -0.0101713
2.11 0.0178719
2.12 0.0462769
2.13 0.0745381
2.14 0.102362
2.15 0.129591
2.16 0.156338
2.17 0.182811
2.18 0.209463
2.19 0.236844
2.2 0.265591
2.21 0.296206
2.22 0.329508
2.23 0.365521
2.24 0.404803
2.25 0.446959
2.26 0.491666
2.27 0.53818
2.28 0.585341
2.29 0.63164
2.3 0.67555
2.31 0.71502
2.32 0.748086
2.33 0.773272
2.34 0.7877
2.35 0.791348
2.36 0.781541
2.37 0.758788
2.38 0.722644
2.39 0.673085
2.4 0.612388
2.41 0.540456
2.42 0.461005
2.43 0.375752
2.44 0.287825
2.45 0.199981
2.46 0.115507
2.47 0.0365057
2.48 -0.0337639
2.49 -0.0940992
2.5 -0.142987
2.51 -0.179186
2.52 -0.203939
2.53 -0.215985
2.54 -0.21841
2.55 -0.212026
2.56 -0.199396
2.57 -0.183003
2.58 -0.165312
2.59 -0.148812
2.6 -0.136031
2.61 -0.128575
2.62 -0.127877
2.63 -0.13512
2.64 -0.149694
2.65 -0.172416
2.66 -0.201142
2.67 -0.235033
2.68 -0.272014
2.69 -0.310102
2.7 -0.347031
2.71 -0.38106
2.72 -0.409926
2.73 -0.43264
2.74 -0.448189
2.75 -0.455867
2.76 -0.456641
2.77 -0.450175
2.78 -0.438758
2.79 -0.42353
2.8 -0.406648
2.81 -0.390044
2.82 -0.376032
2.83 -0.365988
2.84 -0.362018
2.85 -0.364661
2.86 -0.374537
2.87 -0.391849
2.88 -0.415249
2.89 -0.444407
2.9 -0.476839
2.91 -0.510899
2.92 -0.544203
2.93 -0.574779
2.94 -0.599986
2.95 -0.61888
2.96 -0.629237
2.97 -0.631037
2.98 -0.623976
2.99 -0.608274
3 -0.585833
3.01 -0.557429
3.02 -0.526029
3.03 -0.493703
3.04 -0.463169
3.05 -0.436561
3.06 -0.416787
3.07 -0.404597
3.08 -0.402264
3.09 -0.409471
3.1 -0.42626
3.11 -0.452051
3.12 -0.484566
3.13 -0.522604
3.14 -0.562947
3.15 -0.603218
3.16 -0.640575
3.17 -0.672919
3.18 -0.697355
3.19 -0.713522
3.2 -0.719473
3.21 -0.716079
3.22 -0.703864
3.23 -0.684153
3.24 -0.659657
3.25 -0.632613
3.26 -0.60634
3.27 -0.583901
3.28 -0.56832
3.29 -0.561578
3.3 -0.566842
3.31 -0.583608
3.32 -0.613679
3.33 -0.655165
3.34 -0.706769
3.35 -0.766155
3.36 -0.829682
3.37 -0.893885
3.38 -0.954828
3.39 -1.00848
3.4 -1.05131
3.41 -1.08123
3.42 -1.09454
3.43 -1.09257
3.44 -1.07354
3.45 -1.04042
3.46 -0.995355
3.47 -0.941771
3.48 -0.884382
3.49 -0.827921
3.5 -0.776979
3.51 -0.736406
3.52 -0.709953
3.53 -0.699367
3.54 -0.70782
3.55 -0.73237
3.56 -0.772769
3.57 -0.82336
3.58 -0.8788
3.59 -0.931012
3.6 -0.972556
3.61 -0.990791
3.62 -0.979393
3.63 -0.926361
3.64 -0.823403
3.65 -0.666295
3.66 -0.442966
3.67 -0.159526
3.68 0.192066
3.69 0.602856
3.7 1.06836
3.71 1.58096
3.72 2.12535
3.73 2.69105
3.74 3.2595
3.75 3.81459
3.76 4.33824
3.77 4.81672
3.78 5.22715
3.79 5.56557
3.8 5.81051
3.81 5.9614
3.82 6.01176
3.83 5.95573
3.84 5.80633
3.85 5.55423
3.86 5.22295
3.87 4.81668
3.88 4.35197
3.89 3.8455
3.9 3.31087
3.91 2.76711
3.92 2.22944
3.93 1.71225
3.94 1.22777
3.95 0.788958
3.96 0.398122
3.97 0.0692291
3.98 -0.204251
3.99 -0.41757
4 -0.574928
4.01 -0.683224
4.02 -0.743998
4.03 -0.770539
4.04 -0.766773
4.05 -0.7438
4.06 -0.7087
4.07 -0.668975
4.08 -0.630685
4.09 -0.599704
4.1 -0.578476
4.11 -0.569886
4.12 -0.574385
4.13 -0.590813
4.14 -0.618645
4.15 -0.654002
4.16 -0.694646
4.17 -0.736629
4.18 -0.776779
4.19 -0.81147
4.2 -0.838766
4.21 -0.854888
4.22 -0.85988
4.23 -0.851903
4.24 -0.83103
4.25 -0.798262
4.26 -0.753292
4.27 -0.698989
4.28 -0.635779
4.29 -0.566175
4.3 -0.491652
4.31 -0.413744
4.32 -0.334045
4.33 -0.253545
4.34 -0.173216
4.35 -0.093674
4.36 -0.0153474
4.37 0.0615802
4.38 0.13672
4.39 0.210114
4.4 0.281226
4.41 0.349791
4.42 0.415177
4.43 0.476316
4.44 0.532724
4.45 0.582236
4.46 0.624521
4.47 0.657614
4.48 0.680309
4.49 0.692064
4.5 0.690569
4.51 0.677027
4.52 0.64964
4.53 0.609815
4.54 0.557993
4.55 0.494898
4.56 0.423098
4.57 0.343268
4.58 0.25866
4.59 0.17107
4.6 0.0830392
4.61 -0.003399
4.62 -0.0857614
4.63 -0.162967
4.64 -0.232921
4.65 -0.295267
4.66 -0.34943
4.67 -0.394992
4.68 -0.433187
4.69 -0.463601
4.7 -0.488329
4.71 -0.508031
4.72 -0.524185
4.73 -0.538123
4.74 -0.550924
4.75 -0.56368
4.76 -0.577189
4.77 -0.591904
4.78 -0.608045
4.79 -0.625616
4.8 -0.644197
4.81 -0.663397
4.82 -0.682505
4.83 -0.700835
4.84 -0.717664
4.85 -0.732507
4.86 -0.744577
4.87 -0.753947
4.88 -0.760144
4.89 -0.76353
4.9 -0.764336
4.91 -0.762964
4.92 -0.760185
4.93 -0.756543
4.94 -0.752874
4.95 -0.749848
4.96 -0.748118
4.97 -0.748072
4.98 -0.750304
4.99 -0.754681
5 -0.761498
5.01 -0.770402
5.02 -0.781164
5.03 -0.793451
5.04 -0.806708
5.05 -0.820576
5.06 -0.834533
5.07 -0.848203
5.08 -0.861239
5.09 -0.87344
5.1 -0.884491
5.11 -0.894406
5.12 -0.902889
5.13 -0.909877
5.14 -0.915112
5.15 -0.918088
5.16 -0.918555
5.17 -0.915256
5.18 -0.907771
5.19 -0.894613
5.2 -0.874464
5.21 -0.846374
5.22 -0.807705
5.23 -0.758512
5.24 -0.696066
5.25 -0.620394
5.26 -0.530699
5.27 -0.426154
5.28 -0.30871
5.29 -0.177425
5.3 -0.0359735
5.31 0.114155
5.32 0.269506
5.33 0.426549
5.34 0.58089
5.35 0.72881
5.36 0.864849
5.37 0.985473
5.38 1.08667
5.39 1.16356
5.4 1.21611
5.41 1.23792
5.42 1.23214
5.43 1.19631
5.44 1.13197
5.45 1.04232
5.46 0.927592
5.47 0.794582
5.48 0.645379
5.49 0.486201
5.5 0.32154
5.51 0.156637
5.52 -0.00422601
5.53 -0.155503
5.54 -0.294863
5.55 -0.418431
5.56 -0.524215
5.57 -0.612027
5.58 -0.679311
5.59 -0.729273
5.6 -0.760913
5.61 -0.777579
5.62 -0.781163
5.63 -0.773809
5.64 -0.759003
5.65 -0.738327
5.66 -0.71482
5.67 -0.690051
5.68 -0.665556
5.69 -0.64213
5.7 -0.620314
5.71 -0.599765
5.72 -0.580054
5.73 -0.560186
5.74 -0.539125
5.75 -0.515507
5.76 -0.488598
5.77 -0.456812
5.78 -0.420215
5.79 -0.378192
5.8 -0.331085
5.81 -0.279789
5.82 -0.225108
5.83 -0.168969
5.84 -0.113134
5.85 -0.0597471
5.86 -0.0108699
5.87 0.0309133
5.88 0.0646091
5.89 0.0870236
5.9 0.0984975
5.91 0.097397
5.92 0.0837103
5.93 0.0584079
5.94 0.0210565
5.95 -0.0254712
5.96 -0.0805933
5.97 -0.141574
5.98 -0.206497
5.99 -0.273167
6 -0.33955
6.01 -0.403528
6.02 -0.463927
6.03 -0.51935
6.04 -0.569116
6.05 -0.613274
6.06 -0.651295
6.07 -0.684475
6.08 -0.713004
6.09 -0.738267
6.1 -0.761224
6.11 -0.78294
6.12 -0.804408
6.13 -0.826444
6.14 -0.849471
6.15 -0.87377
6.16 -0.899223
6.17 -0.925429
6.18 -0.951778
6.19 -0.977502
6.2 -1.0016
6.21 -1.0233
6.22 -1.04181
6.23 -1.0563
6.24 -1.06686
6.25 -1.07274
6.26 -1.07479
6.27 -1.07316
6.28 -1.06868
6.29 -1.06229
6.3 -1.05475
6.31 -1.04699
6.32 -1.03955
6.33 -1.03261
6.34 -1.02591
6.35 -1.01844
6.36 -1.0089
6.37 -0.994404
6.38 -0.972703
6.39 -0.939776
6.4 -0.891481
6.41 -0.824782
6.42 -0.73244
6.43 -0.613955
6.44 -0.462048
6.45 -0.276188
6.46 -0.0540896
6.47 0.207018
6.48 0.50242
6.49 0.835352
6.5 1.19693
6.51 1.58426
6.52 1.98952
6.53 2.40429
6.54 2.81909
6.55 3.22437
6.56 3.60794
6.57 3.96057
6.58 4.27247
6.59 4.53122
6.6 4.7353
6.61 4.86841
6.62 4.93568
6.63 4.92936
6.64 4.85025
6.65 4.70413
6.66 4.48743
6.67 4.21552
6.68 3.88947
6.69 3.52316
6.7 3.12581
6.71 2.70803
6.72 2.28206
6.73 1.85882
6.74 1.4481
6.75 1.05981
6.76 0.70207
6.77 0.378838
6.78 0.0995543
6.79 -0.139169
6.8 -0.331139
6.81 -0.480714
6.82 -0.589546
6.83 -0.659363
6.84 -0.698393
6.85 -0.70736
6.86 -0.695812
6.87 -0.667472
6.88 -0.628328
6.89 -0.583389
6.9 -0.536735
6.91 -0.491833
6.92 -0.451549
6.93 -0.417271
6.94 -0.389846
6.95 -0.369766
6.96 -0.355799
6.97 -0.347898
6.98 -0.344042
6.99 -0.34329
7 -0.344264
7.01 -0.345927
7.02 -0.347534
7.03 -0.348762
7.04 -0.349626
7.05 -0.350625
7.06 -0.352501
7.07 -0.356469
7.08 -0.363387
7.09 -0.375127
7.1 -0.392168
7.11 -0.415824
7.12 -0.446655
7.13 -0.48444
7.14 -0.529772
7.15 -0.580951
7.16 -0.637535
7.17 -0.697518
7.18 -0.759223
7.19 -0.820501
7.2 -0.879529
7.21 -0.933694
7.22 -0.981874
7.23 -1.02218
7.24 -1.0536
7.25 -1.07614
7.26 -1.08865
7.27 -1.09298
7.28 -1.08909
7.29 -1.07903
7.3 -1.06431
7.31 -1.04671
7.32 -1.02821
7.33 -1.0106
7.34 -0.995185
7.35 -0.983125
7.36 -0.974943
7.37 -0.970369
7.38 -0.969102
7.39 -0.969488
7.4 -0.969857
7.41 -0.967845
7.42 -0.961012
7.43 -0.946008
7.44 -0.92122
7.45 -0.882133
7.46 -0.828437
7.47 -0.757324
7.48 -0.667865
7.49 -0.560849
7.5 -0.434663
7.51 -0.293243
7.52 -0.136949
7.53 0.0299956
7.54 0.204285
7.55 0.381708
7.56 0.557882
7.57 0.727413
7.58 0.886631
7.59 1.03055
7.6 1.15514
7.61 1.25854
7.62 1.3351
7.63 1.38682
7.64 1.40959
7.65 1.40555
7.66 1.37529
7.67 1.31915
7.68 1.24205
7.69 1.14385
7.7 1.03069
7.71 0.904943
7.72 0.770864
7.73 0.632375
7.74 0.493114
7.75 0.356451
7.76 0.225926
7.77 0.103896
7.78 -0.00748423
7.79 -0.105643
7.8 -0.190853
7.81 -0.260082
7.82 -0.315078
7.83 -0.35477
7.84 -0.379751
7.85 -0.391531
7.86 -0.389554
7.87 -0.376865
7.88 -0.353575
7.89 -0.322116
7.9 -0.284028
7.91 -0.240958
7.92 -0.195151
7.93 -0.14831
7.94 -0.10249
7.95 -0.0595908
7.96 -0.0215338
7.97 0.0104527
7.98 0.0338741
7.99 0.0486954
8 0.0527979
8.01 0.0462687
8.02 0.0287479
8.03 -0.000310721
8.04 -0.0392311
8.05 -0.0886697
8.06 -0.146033
8.07 -0.210464
8.08 -0.279988
8.09 -0.352566
8.1 -0.426313
8.11 -0.499199
8.12 -0.569216
8.13 -0.63489
8.14 -0.694977
8.15 -0.748114
8.16 -0.794591
8.17 -0.833229
8.18 -0.865396
8.19 -0.891286
8.2 -0.912048
8.21 -0.929078
8.22 -0.943363
8.23 -0.956453
8.24 -0.969276
8.25 -0.982605
8.26 -0.996709
8.27 -1.01136
8.28 -1.02572
8.29 -1.03812
8.3 -1.04672
8.31 -1.04868
8.32 -1.04072
8.33 -1.02037
8.34 -0.982029
8.35 -0.92487
8.36 -0.843252
8.37 -0.736168
8.38 -0.601666
8.39 -0.436979
8.4 -0.245405
8.41 -0.0238685
8.42 0.221337
8.43 0.488548
8.44 0.772474
8.45 1.06695
8.46 1.36588
8.47 1.66183
8.48 1.94668
8.49 2.21333
8.5 2.45489
8.51 2.66234
8.52 2.83402
8.53 2.95869
8.54 3.03889
8.55 3.06917
8.56 3.04923
8.57 2.98288
8.58 2.86669
8.59 2.71105
8.6 2.51604
8.61 2.29061
8.62 2.04081
8.63 1.7731
8.64 1.49603
8.65 1.21609
8.66 0.940412
8.67 0.675252
8.68 0.426296
8.69 0.196485
8.7 -0.00791267
8.71 -0.188352
8.72 -0.340757
8.73 -0.467154
8.74 -0.568361
8.75 -0.644913
8.76 -0.701775
8.77 -0.73908
8.78 -0.762635
8.79 -0.774666
8.8 -0.778844
8.81 -0.778441
8.82 -0.775993
8.83 -0.773976
8.84 -0.774305
8.85 -0.77815
8.86 -0.786229
8.87 -0.799103
8.88 -0.816101
8.89 -0.837318
8.9 -0.861428
8.91 -0.887723
8.92 -0.915073
8.93 -0.942494
8.94 -0.968923
8.95 -0.993749
8.96 -1.01615
8.97 -1.03591
8.98 -1.05285
8.99 -1.06687
9 -1.07848
9.01 -1.0877
9.02 -1.09532
9.03 -1.10168
9.04 -1.10732
9.05 -1.11265
9.06 -1.11796
9.07 -1.12339
9.08 -1.1289
9.09 -1.13424
9.1 -1.13901
9.11 -1.1425
9.12 -1.14415
9.13 -1.1427
9.14 -1.13761
9.15 -1.12767
9.16 -1.11195
9.17 -1.09007
9.18 -1.06046
9.19 -1.02378
9.2 -0.978939
9.21 -0.92661
9.22 -0.867133
9.23 -0.800857
9.24 -0.72944
9.25 -0.653477
9.26 -0.575071
9.27 -0.495692
9.28 -0.41733
9.29 -0.341625
9.3 -0.271072
9.31 -0.206655
9.32 -0.150798
9.33 -0.104341
9.34 -0.0683017
9.35 -0.0441236
9.36 -0.0307948
9.37 -0.029976
9.38 -0.0395749
9.39 -0.0595019
9.4 -0.0883669
9.41 -0.124232
9.42 -0.166027
9.43 -0.211112
9.44 -0.257872
9.45 -0.304162
9.46 -0.348289
9.47 -0.388309
9.48 -0.423458
9.49 -0.451831
9.5 -0.47367
9.51 -0.488286
9.52 -0.495905
9.53 -0.497457
9.54 -0.493133
9.55 -0.484844
9.56 -0.473487
9.57 -0.460802
9.58 -0.448173
9.59 -0.437199
9.6 -0.428866
9.61 -0.424792
9.62 -0.425238
9.63 -0.431009
9.64 -0.442279
9.65 -0.458589
9.66 -0.480156
9.67 -0.505637
9.68 -0.534683
9.69 -0.566085
9.7 -0.598962
9.71 -0.632379
9.72 -0.665537
9.73 -0.69765
9.74 -0.728362
9.75 -0.757284
9.76 -0.784282
9.77 -0.809478
9.78 -0.832706
9.79 -0.854299
9.8 -0.874012
9.81 -0.89173
9.82 -0.906969
9.83 -0.918582
9.84 -0.925781
9.85 -0.925873
9.86 -0.917489
9.87 -0.897419
9.88 -0.862383
9.89 -0.810355
9.9 -0.735093
9.91 -0.636598
9.92 -0.508775
9.93 -0.350819
9.94 -0.160859
9.95 0.0643899
9.96 0.32107
9.97 0.612987
9.98 0.933294
9.99 1.28045
10 1.64898
10.01 2.03198
10.02 2.42322
10.03 2.81391
10.04 3.19519
10.05 3.55844
10.06 3.89549
10.07 4.19529
10.08 4.45501
10.09 4.66086
10.1 4.81431
10.11 4.90801
10.12 4.93987
10.13 4.91361
10.14 4.82295
10.15 4.6799
10.16 4.48289
10.17 4.24198
10.18 3.96396
10.19 3.65554
10.2 3.32797
10.21 2.98796
10.22 2.6457
10.23 2.3088
10.24 1.98515
10.25 1.6795
10.26 1.40004
10.27 1.14663
10.28 0.924783
10.29 0.73333
10.3 0.571864
10.31 0.440543
10.32 0.333645
10.33 0.25132
10.34 0.186558
10.35 0.136525
10.36 0.0965433
10.37 0.0622484
10.38 0.0301195
10.39 -0.00324029
10.4 -0.0406514
10.41 -0.0838434
10.42 -0.133906
10.43 -0.191809
10.44 -0.256498
10.45 -0.328195
10.46 -0.404769
10.47 -0.485019
10.48 -0.566973
10.49 -0.648809
10.5 -0.728366
10.51 -0.804301
10.52 -0.874606
10.53 -0.938334
10.54 -0.994613
10.55 -1.04225
10.56 -1.08191
10.57 -1.11229
10.58 -1.13472
10.59 -1.14905
10.6 -1.15583
10.61 -1.15611
10.62 -1.1497
10.63 -1.13812
10.64 -1.12134
10.65 -1.10024
10.66 -1.07528
10.67 -1.04669
10.68 -1.01523
10.69 -0.980871
10.7 -0.944385
10.71 -0.906046
10.72 -0.866403
10.73 -0.826064
10.74 -0.785694
10.75 -0.746015
10.76 -0.707954
10.77 -0.672325
10.78 -0.639957
10.79 -0.612057
10.8 -0.588883
10.81 -0.572006
10.82 -0.561256
10.83 -0.557472
10.84 -0.56091
10.85 -0.571114
10.86 -0.588802
10.87 -0.612523
10.88 -0.642374
10.89 -0.677101
10.9 -0.715793
10.91 -0.757496
10.92 -0.800819
10.93 -0.844707
10.94 -0.88793
10.95 -0.9294
10.96 -0.968063
10.97 -1.00337
10.98 -1.0341
10.99 -1.06047
11 -1.08171
11.01 -1.0981
11.02 -1.10982
11.03 -1.11695
11.04 -1.12048
11.05 -1.12059
11.06 -1.11844
11.07 -1.1147
11.08 -1.11029
11.09 -1.10599
11.1 -1.10272
11.11 -1.10095
11.12 -1.1014
11.13 -1.10428
11.14 -1.10966
11.15 -1.11757
11.16 -1.12734
11.17 -1.13846
11.18 -1.14975
11.19 -1.15997
11.2 -1.16741
11.21 -1.17061
11.22 -1.16668
11.23 -1.15454
11.24 -1.13092
11.25 -1.09421
11.26 -1.0425
11.27 -0.972624
11.28 -0.885181
11.29 -0.776067
11.3 -0.647245
11.31 -0.497297
11.32 -0.326796
11.33 -0.138247
11.34 0.0686736
11.35 0.288844
11.36 0.520488
11.37 0.75876
11.38 0.999529
11.39 1.23757
11.4 1.46859
11.41 1.68579
11.42 1.88583
11.43 2.063
11.44 2.21264
11.45 2.33333
11.46 2.41769
11.47 2.46889
11.48 2.48184
11.49 2.45891
11.5 2.40116
11.51 2.30841
11.52 2.18724
11.53 2.03724
11.54 1.8663
11.55 1.67764
11.56 1.47679
11.57 1.26925
11.58 1.05988
11.59 0.853507
11.6 0.654894
11.61 0.467435
11.62 0.293839
11.63 0.137512
11.64 -0.00227279
11.65 -0.122337
11.66 -0.225359
11.67 -0.311173
11.68 -0.381471
11.69 -0.439172
11.7 -0.485201
11.71 -0.523635
11.72 -0.556143
11.73 -0.58562
11.74 -0.614057
11.75 -0.643343
11.76 -0.674551
11.77 -0.708814
11.78 -0.745953
11.79 -0.785807
11.8 -0.827429
11.81 -0.869507
11.82 -0.910155
11.83 -0.947673
11.84 -0.979495
11.85 -1.00366
11.86 -1.01825
11.87 -1.02039
11.88 -1.00997
11.89 -0.983577
11.9 -0.942246
11.91 -0.88463
11.92 -0.810793
11.93 -0.722414
11.94 -0.618663
11.95 -0.503202
11.96 -0.376617
11.97 -0.242016
11.98 -0.101835
11.99 0.0412114
12 0.184169
12.01 0.323824
12.02 0.457725
12.03 0.58293
12.04 0.696738
12.05 0.798005
12.06 0.882839
12.07 0.952192
12.08 1.00317
12.09 1.0363
12.1 1.05158
12.11 1.04812
12.12 1.02875
12.13 0.992232
12.14 0.942153
12.15 0.879363
12.16 0.806018
12.17 0.724821
12.18 0.637227
12.19 0.546308
12.2 0.453884
12.21 0.362188
12.22 0.272902
12.23 0.187936
12.24 0.107923
12.25 0.0346117
12.26 -0.0322879
12.27 -0.092231
12.28 -0.14541
12.29 -0.192764
12.3 -0.234338
12.31 -0.271888
12.32 -0.306049
12.33 -0.338235
12.34 -0.369491
12.35 -0.400876
12.36 -0.433122
12.37 -0.466985
12.38 -0.502533
12.39 -0.5398
12.4 -0.57833
