# xPDFsuite Configuration #
[PDF]
wavelength = 0.1432
dataformat = twotheta
inputfile = 1_1Pd_CeO2_cycle-00236.chi
backgroundfile = background-00000.chi
mode = xray
bgscale = 1.007
composition = CeO2
outputtype = gr
qmaxinst = 28.8974762299
qmin = 0.5
qmax = 27.9
rmax = 50.0
rmin = 0.0
rstep = 0.01
rpoly = 1.8657

[Misc]
inputdir = G:/SankarDec16/1Pd/Chi
savedir = D:/DATA/APS_CeO2/1Pd
backgroundfilefull = G:/SankarDec16/Background/background-00000.chi

#### start data
#S 1
#L r($\AA$)  G($\AA^{-2}$)
0 0
0.01 -0.00549062
0.02 -0.0105686
0.03 -0.0148088
0.04 -0.0178912
0.05 -0.0196371
0.06 -0.0197597
0.07 -0.0184488
0.08 -0.0156114
0.09 -0.0116106
0.1 -0.00669723
0.11 -0.00125595
0.12 0.00429263
0.13 0.00947779
0.14 0.0139638
0.15 0.017341
0.16 0.0193679
0.17 0.0199469
0.18 0.0188802
0.19 0.0164462
0.2 0.0126527
0.21 0.00792255
0.22 0.00256752
0.23 -0.00298098
0.24 -0.00832608
0.25 -0.0129607
0.26 -0.0166412
0.27 -0.0189925
0.28 -0.0198628
0.29 -0.0192401
0.3 -0.0170251
0.31 -0.0135717
0.32 -0.00898866
0.33 -0.00373939
0.34 0.00181804
0.35 0.00722474
0.36 0.0121261
0.37 0.0160018
0.38 0.018712
0.39 0.0199331
0.4 0.0196104
0.41 0.0178182
0.42 0.0145605
0.43 0.0102509
0.44 0.005094
0.45 -0.000427213
0.46 -0.00592483
0.47 -0.0109334
0.48 -0.015157
0.49 -0.0180864
0.5 -0.0196917
0.51 -0.0197164
0.52 -0.0182055
0.53 -0.0153166
0.54 -0.0111572
0.55 -0.00618155
0.56 -0.000681226
0.57 0.00486335
0.58 0.0100524
0.59 0.0144351
0.6 0.0177883
0.61 0.0196373
0.62 0.0200638
0.63 0.0188907
0.64 0.016261
0.65 0.0124084
0.66 0.00753973
0.67 0.00212908
0.68 -0.00345849
0.69 -0.00876685
0.7 -0.013403
0.71 -0.016951
0.72 -0.0192714
0.73 -0.0199454
0.74 -0.0191629
0.75 -0.0168338
0.76 -0.0131924
0.77 -0.0085372
0.78 -0.00316387
0.79 0.00245607
0.8 0.00790273
0.81 0.0127659
0.82 0.0166792
0.83 0.0192824
0.84 0.0205261
0.85 0.0200696
0.86 0.0182005
0.87 0.0149204
0.88 0.0105422
0.89 0.00541274
0.9 -0.000100771
0.91 -0.00555656
0.92 -0.0105071
0.93 -0.0146146
0.94 -0.0175661
0.95 -0.0190871
0.96 -0.0192273
0.97 -0.017763
0.98 -0.0150685
0.99 -0.0112566
1 -0.00671419
1.01 -0.00182496
1.02 0.00296995
1.03 0.00729209
1.04 0.0106725
1.05 0.0128796
1.06 0.0136772
1.07 0.0129064
1.08 0.0107451
1.09 0.00712578
1.1 0.00253522
1.11 -0.0027595
1.12 -0.00826108
1.13 -0.0135189
1.14 -0.0179509
1.15 -0.0212339
1.16 -0.0227941
1.17 -0.0224917
1.18 -0.0201157
1.19 -0.0155632
1.2 -0.00915586
1.21 -0.000871115
1.22 0.00862327
1.23 0.0189594
1.24 0.0294978
1.25 0.0396718
1.26 0.0487461
1.27 0.0563228
1.28 0.0616632
1.29 0.0645677
1.3 0.0647196
1.31 0.061893
1.32 0.0564176
1.33 0.048048
1.34 0.03754
1.35 0.0251161
1.36 0.0114058
1.37 -0.00300168
1.38 -0.0174826
1.39 -0.0314624
1.4 -0.0442774
1.41 -0.0555307
1.42 -0.0648051
1.43 -0.0717097
1.44 -0.0763251
1.45 -0.0781844
1.46 -0.0777485
1.47 -0.074931
1.48 -0.0700421
1.49 -0.0634204
1.5 -0.055245
1.51 -0.0460327
1.52 -0.0360002
1.53 -0.0255576
1.54 -0.0149768
1.55 -0.00455225
1.56 0.00552014
1.57 0.014943
1.58 0.0236388
1.59 0.0313844
1.6 0.0380604
1.61 0.0435956
1.62 0.0477368
1.63 0.0505631
1.64 0.0517916
1.65 0.0514862
1.66 0.049553
1.67 0.0459084
1.68 0.0407423
1.69 0.0338742
1.7 0.0256875
1.71 0.0162425
1.72 0.00584914
1.73 -0.00517198
1.74 -0.0164863
1.75 -0.0276984
1.76 -0.0383827
1.77 -0.0482042
1.78 -0.0568295
1.79 -0.0639229
1.8 -0.0694811
1.81 -0.0731575
1.82 -0.0752785
1.83 -0.0758551
1.84 -0.0752312
1.85 -0.0737986
1.86 -0.0719836
1.87 -0.0703011
1.88 -0.0693036
1.89 -0.0694173
1.9 -0.0710511
1.91 -0.0745897
1.92 -0.0799845
1.93 -0.0875551
1.94 -0.0968041
1.95 -0.107551
1.96 -0.119206
1.97 -0.131142
1.98 -0.142536
1.99 -0.152701
2 -0.160601
2.01 -0.165643
2.02 -0.16711
2.03 -0.164268
2.04 -0.157224
2.05 -0.145059
2.06 -0.128578
2.07 -0.107611
2.08 -0.082757
2.09 -0.0547209
2.1 -0.0239599
2.11 0.00845766
2.12 0.0419525
2.13 0.0757031
2.14 0.10916
2.15 0.141829
2.16 0.173563
2.17 0.204142
2.18 0.233883
2.19 0.263021
2.2 0.292063
2.21 0.3215
2.22 0.352002
2.23 0.383893
2.24 0.417746
2.25 0.453553
2.26 0.491275
2.27 0.530556
2.28 0.570613
2.29 0.610417
2.3 0.648717
2.31 0.683865
2.32 0.714134
2.33 0.738138
2.34 0.753254
2.35 0.759183
2.36 0.75332
2.37 0.735779
2.38 0.705846
2.39 0.663108
2.4 0.609404
2.41 0.544166
2.42 0.470739
2.43 0.390409
2.44 0.306004
2.45 0.220141
2.46 0.135812
2.47 0.0553591
2.48 -0.018051
2.49 -0.0828315
2.5 -0.137199
2.51 -0.179514
2.52 -0.210559
2.53 -0.228573
2.54 -0.236247
2.55 -0.233924
2.56 -0.223841
2.57 -0.208325
2.58 -0.189514
2.59 -0.170152
2.6 -0.152663
2.61 -0.139066
2.62 -0.131089
2.63 -0.130348
2.64 -0.136744
2.65 -0.151646
2.66 -0.173357
2.67 -0.201563
2.68 -0.23457
2.69 -0.270582
2.7 -0.30773
2.71 -0.344005
2.72 -0.377303
2.73 -0.406197
2.74 -0.42938
2.75 -0.445702
2.76 -0.455563
2.77 -0.458074
2.78 -0.454996
2.79 -0.446911
2.8 -0.435534
2.81 -0.42256
2.82 -0.409855
2.83 -0.399023
2.84 -0.391959
2.85 -0.389616
2.86 -0.392886
2.87 -0.402387
2.88 -0.417351
2.89 -0.437968
2.9 -0.46232
2.91 -0.489315
2.92 -0.51703
2.93 -0.543755
2.94 -0.567308
2.95 -0.586555
2.96 -0.599491
2.97 -0.605712
2.98 -0.604657
2.99 -0.596148
3 -0.581518
3.01 -0.56103
3.02 -0.537089
3.03 -0.511212
3.04 -0.48565
3.05 -0.46227
3.06 -0.443505
3.07 -0.430291
3.08 -0.42466
3.09 -0.426672
3.1 -0.436613
3.11 -0.454289
3.12 -0.477994
3.13 -0.507028
3.14 -0.538753
3.15 -0.571353
3.16 -0.602478
3.17 -0.630325
3.18 -0.652515
3.19 -0.668541
3.2 -0.676756
3.21 -0.677703
3.22 -0.671719
3.23 -0.659813
3.24 -0.644139
3.25 -0.626539
3.26 -0.609719
3.27 -0.596239
3.28 -0.588619
3.29 -0.588509
3.3 -0.598559
3.31 -0.618303
3.32 -0.649195
3.33 -0.689551
3.34 -0.738151
3.35 -0.792833
3.36 -0.850406
3.37 -0.907605
3.38 -0.961037
3.39 -1.00702
3.4 -1.04242
3.41 -1.06545
3.42 -1.07279
3.43 -1.06584
3.44 -1.0431
3.45 -1.00746
3.46 -0.961057
3.47 -0.907272
3.48 -0.850569
3.49 -0.795623
3.5 -0.746712
3.51 -0.708542
3.52 -0.684662
3.53 -0.676678
3.54 -0.68764
3.55 -0.714557
3.56 -0.757144
3.57 -0.809782
3.58 -0.867175
3.59 -0.921328
3.6 -0.964879
3.61 -0.985295
3.62 -0.976294
3.63 -0.925934
3.64 -0.825926
3.65 -0.672005
3.66 -0.45205
3.67 -0.172051
3.68 0.176161
3.69 0.583775
3.7 1.04645
3.71 1.55673
3.72 2.09937
3.73 2.66408
3.74 3.2322
3.75 3.78768
3.76 4.31234
3.77 4.79233
3.78 5.20464
3.79 5.54509
3.8 5.79202
3.81 5.94465
3.82 5.99633
3.83 5.94103
3.84 5.79174
3.85 5.53899
3.86 5.20645
3.87 4.79835
3.88 4.33143
3.89 3.82259
3.9 3.28571
3.91 2.74006
3.92 2.20118
3.93 1.68367
3.94 1.19997
3.95 0.76323
3.96 0.37567
3.97 0.0514184
3.98 -0.216384
3.99 -0.423116
4 -0.573329
4.01 -0.674282
4.02 -0.727962
4.03 -0.748025
4.04 -0.738908
4.05 -0.711993
4.06 -0.674662
4.07 -0.634712
4.08 -0.598071
4.09 -0.570887
4.1 -0.555129
4.11 -0.553556
4.12 -0.566163
4.13 -0.591311
4.14 -0.627943
4.15 -0.671656
4.16 -0.719595
4.17 -0.767407
4.18 -0.811521
4.19 -0.847912
4.2 -0.874747
4.21 -0.887875
4.22 -0.887845
4.23 -0.872916
4.24 -0.843646
4.25 -0.801569
4.26 -0.746928
4.27 -0.683214
4.28 -0.61151
4.29 -0.53482
4.3 -0.455074
4.31 -0.37427
4.32 -0.293941
4.33 -0.215514
4.34 -0.139466
4.35 -0.0663494
4.36 0.00388028
4.37 0.0715779
4.38 0.136882
4.39 0.200492
4.4 0.262514
4.41 0.323205
4.42 0.382398
4.43 0.439499
4.44 0.493995
4.45 0.544154
4.46 0.58919
4.47 0.627087
4.48 0.656196
4.49 0.675466
4.5 0.682094
4.51 0.676663
4.52 0.656782
4.53 0.62338
4.54 0.576477
4.55 0.516389
4.56 0.445728
4.57 0.36483
4.58 0.277387
4.59 0.185301
4.6 0.0915635
4.61 -0.00130127
4.62 -0.0902908
4.63 -0.173783
4.64 -0.249095
4.65 -0.315476
4.66 -0.371993
4.67 -0.417896
4.68 -0.454547
4.69 -0.481287
4.7 -0.500719
4.71 -0.513695
4.72 -0.522211
4.73 -0.528123
4.74 -0.533111
4.75 -0.538776
4.76 -0.546561
4.77 -0.557265
4.78 -0.571449
4.79 -0.589425
4.8 -0.610565
4.81 -0.634705
4.82 -0.660531
4.83 -0.687118
4.84 -0.713162
4.85 -0.7376
4.86 -0.758988
4.87 -0.776861
4.88 -0.790056
4.89 -0.798571
4.9 -0.802281
4.91 -0.801256
4.92 -0.796492
4.93 -0.788272
4.94 -0.778062
4.95 -0.766754
4.96 -0.755583
4.97 -0.745519
4.98 -0.737786
4.99 -0.732814
5 -0.731553
5.01 -0.73403
5.02 -0.74037
5.03 -0.750566
5.04 -0.763874
5.05 -0.780189
5.06 -0.798419
5.07 -0.817997
5.08 -0.838052
5.09 -0.85786
5.1 -0.876557
5.11 -0.893651
5.12 -0.90829
5.13 -0.920086
5.14 -0.928497
5.15 -0.932771
5.16 -0.932841
5.17 -0.927302
5.18 -0.91624
5.19 -0.898394
5.2 -0.872931
5.21 -0.839361
5.22 -0.795579
5.23 -0.742021
5.24 -0.67647
5.25 -0.599168
5.26 -0.509525
5.27 -0.406871
5.28 -0.292909
5.29 -0.166756
5.3 -0.0315591
5.31 0.111473
5.32 0.259386
5.33 0.409103
5.34 0.556785
5.35 0.699042
5.36 0.83093
5.37 0.949084
5.38 1.04968
5.39 1.12796
5.4 1.18363
5.41 1.21034
5.42 1.21072
5.43 1.18203
5.44 1.12532
5.45 1.04337
5.46 0.93589
5.47 0.809352
5.48 0.665379
5.49 0.510016
5.5 0.347582
5.51 0.183182
5.52 0.0213285
5.53 -0.132509
5.54 -0.275538
5.55 -0.40368
5.56 -0.514547
5.57 -0.60759
5.58 -0.67986
5.59 -0.734291
5.6 -0.76953
5.61 -0.78879
5.62 -0.793837
5.63 -0.786723
5.64 -0.771111
5.65 -0.748549
5.66 -0.722413
5.67 -0.694436
5.68 -0.666441
5.69 -0.639473
5.7 -0.614351
5.71 -0.590896
5.72 -0.568907
5.73 -0.547449
5.74 -0.52554
5.75 -0.501835
5.76 -0.475461
5.77 -0.444805
5.78 -0.409708
5.79 -0.369429
5.8 -0.324128
5.81 -0.274562
5.82 -0.221384
5.83 -0.166467
5.84 -0.11149
5.85 -0.0586221
5.86 -0.00995635
5.87 0.0318574
5.88 0.0657127
5.89 0.0883121
5.9 0.099883
5.91 0.0986893
5.92 0.0846433
5.93 0.0586926
5.94 0.0203672
5.95 -0.0273791
5.96 -0.0839144
5.97 -0.146373
5.98 -0.212714
5.99 -0.280581
6 -0.347836
6.01 -0.412171
6.02 -0.472391
6.03 -0.527008
6.04 -0.575349
6.05 -0.617546
6.06 -0.653121
6.07 -0.68358
6.08 -0.709271
6.09 -0.731801
6.1 -0.752335
6.11 -0.772174
6.12 -0.792403
6.13 -0.814087
6.14 -0.837584
6.15 -0.863239
6.16 -0.89083
6.17 -0.919779
6.18 -0.949309
6.19 -0.978344
6.2 -1.0056
6.21 -1.02998
6.22 -1.05045
6.23 -1.06586
6.24 -1.07623
6.25 -1.08051
6.26 -1.07971
6.27 -1.07399
6.28 -1.06438
6.29 -1.05212
6.3 -1.03828
6.31 -1.02422
6.32 -1.01095
6.33 -0.999057
6.34 -0.988649
6.35 -0.979185
6.36 -0.969392
6.37 -0.956838
6.38 -0.938998
6.39 -0.911897
6.4 -0.87111
6.41 -0.813188
6.42 -0.730542
6.43 -0.622059
6.44 -0.479928
6.45 -0.303064
6.46 -0.0886953
6.47 0.166505
6.48 0.45793
6.49 0.789373
6.5 1.15167
6.51 1.54205
6.52 1.95238
6.53 2.3738
6.54 2.79654
6.55 3.21031
6.56 3.60243
6.57 3.96303
6.58 4.28182
6.59 4.54578
6.6 4.75325
6.61 4.88739
6.62 4.95355
6.63 4.94391
6.64 4.85952
6.65 4.70663
6.66 4.482
6.67 4.20168
6.68 3.86729
6.69 3.4933
6.7 3.08946
6.71 2.66693
6.72 2.23809
6.73 1.81438
6.74 1.40533
6.75 1.0209
6.76 0.668925
6.77 0.3529
6.78 0.0818981
6.79 -0.148135
6.8 -0.331553
6.81 -0.47329
6.82 -0.575478
6.83 -0.640376
6.84 -0.676294
6.85 -0.68443
6.86 -0.674029
6.87 -0.648827
6.88 -0.61448
6.89 -0.575537
6.9 -0.535672
6.91 -0.497731
6.92 -0.464033
6.93 -0.435455
6.94 -0.412414
6.95 -0.394945
6.96 -0.381808
6.97 -0.372579
6.98 -0.365604
6.99 -0.360014
7 -0.354826
7.01 -0.349482
7.02 -0.343718
7.03 -0.337775
7.04 -0.332243
7.05 -0.328058
7.06 -0.326335
7.07 -0.328674
7.08 -0.335838
7.09 -0.349979
7.1 -0.371115
7.11 -0.400392
7.12 -0.437889
7.13 -0.482864
7.14 -0.535341
7.15 -0.593093
7.16 -0.655059
7.17 -0.718858
7.18 -0.782486
7.19 -0.843469
7.2 -0.900181
7.21 -0.949809
7.22 -0.991794
7.23 -1.02451
7.24 -1.0475
7.25 -1.06135
7.26 -1.06558
7.27 -1.06251
7.28 -1.0528
7.29 -1.03881
7.3 -1.02235
7.31 -1.00548
7.32 -0.989916
7.33 -0.977574
7.34 -0.969115
7.35 -0.965384
7.36 -0.966276
7.37 -0.97092
7.38 -0.978318
7.39 -0.986329
7.4 -0.992619
7.41 -0.994544
7.42 -0.989415
7.43 -0.97367
7.44 -0.946041
7.45 -0.90196
7.46 -0.841811
7.47 -0.763182
7.48 -0.66581
7.49 -0.551087
7.5 -0.418142
7.51 -0.271321
7.52 -0.111639
7.53 0.0564943
7.54 0.229607
7.55 0.403381
7.56 0.573883
7.57 0.735803
7.58 0.886244
7.59 1.02073
7.6 1.13599
7.61 1.23078
7.62 1.3003
7.63 1.34688
7.64 1.36712
7.65 1.36326
7.66 1.33596
7.67 1.28563
7.68 1.21661
7.69 1.12855
7.7 1.02672
7.71 0.912855
7.72 0.790361
7.73 0.662463
7.74 0.53184
7.75 0.401535
7.76 0.274313
7.77 0.152464
7.78 0.0380535
7.79 -0.0663638
7.8 -0.160388
7.81 -0.240791
7.82 -0.308308
7.83 -0.36119
7.84 -0.399094
7.85 -0.422772
7.86 -0.43063
7.87 -0.425358
7.88 -0.406232
7.89 -0.375602
7.9 -0.334904
7.91 -0.285749
7.92 -0.231085
7.93 -0.172793
7.94 -0.113987
7.95 -0.0572541
7.96 -0.00548349
7.97 0.0393068
7.98 0.0735692
7.99 0.0968715
8 0.106242
8.01 0.101654
8.02 0.0826221
8.03 0.0485316
8.04 0.00174641
8.05 -0.0582536
8.06 -0.127826
8.07 -0.205457
8.08 -0.288229
8.09 -0.373321
8.1 -0.457834
8.11 -0.539318
8.12 -0.614937
8.13 -0.683079
8.14 -0.742355
8.15 -0.791314
8.16 -0.830877
8.17 -0.859963
8.18 -0.880923
8.19 -0.894543
8.2 -0.902848
8.21 -0.907965
8.22 -0.911805
8.23 -0.916329
8.24 -0.923221
8.25 -0.9334
8.26 -0.947278
8.27 -0.964721
8.28 -0.98435
8.29 -1.00441
8.3 -1.02219
8.31 -1.03435
8.32 -1.03686
8.33 -1.02662
8.34 -0.997218
8.35 -0.947502
8.36 -0.871205
8.37 -0.767204
8.38 -0.633452
8.39 -0.467135
8.4 -0.272028
8.41 -0.0451666
8.42 0.206436
8.43 0.480663
8.44 0.771591
8.45 1.07255
8.46 1.37679
8.47 1.67665
8.48 1.96353
8.49 2.23031
8.5 2.47008
8.51 2.67383
8.52 2.84039
8.53 2.95868
8.54 3.03185
8.55 3.05489
8.56 3.02804
8.57 2.9555
8.58 2.8344
8.59 2.67524
8.6 2.47847
8.61 2.25299
8.62 2.0048
8.63 1.74026
8.64 1.4675
8.65 1.19278
8.66 0.922732
8.67 0.66322
8.68 0.419503
8.69 0.194232
8.7 -0.00673224
8.71 -0.184858
8.72 -0.336279
8.73 -0.462881
8.74 -0.565343
8.75 -0.643993
8.76 -0.703414
8.77 -0.743412
8.78 -0.769399
8.79 -0.783238
8.8 -0.788266
8.81 -0.787601
8.82 -0.783471
8.83 -0.778516
8.84 -0.774575
8.85 -0.773112
8.86 -0.775111
8.87 -0.781492
8.88 -0.792009
8.89 -0.807247
8.9 -0.826241
8.91 -0.848718
8.92 -0.873875
8.93 -0.900821
8.94 -0.928836
8.95 -0.957
8.96 -0.984563
8.97 -1.01089
8.98 -1.03549
8.99 -1.05781
9 -1.07788
9.01 -1.09518
9.02 -1.11004
9.03 -1.12237
9.04 -1.13233
9.05 -1.14021
9.06 -1.14594
9.07 -1.14996
9.08 -1.15214
9.09 -1.15263
9.1 -1.15135
9.11 -1.14798
9.12 -1.1425
9.13 -1.13411
9.14 -1.12272
9.15 -1.10758
9.16 -1.08806
9.17 -1.06394
9.18 -1.03398
9.19 -0.998558
9.2 -0.95668
9.21 -0.908648
9.22 -0.854513
9.23 -0.794256
9.24 -0.729076
9.25 -0.659119
9.26 -0.586106
9.27 -0.511109
9.28 -0.435811
9.29 -0.36175
9.3 -0.291119
9.31 -0.225148
9.32 -0.166192
9.33 -0.115411
9.34 -0.0740848
9.35 -0.0439767
9.36 -0.0244844
9.37 -0.0176555
9.38 -0.0217411
9.39 -0.0369979
9.4 -0.0623146
9.41 -0.095852
9.42 -0.136821
9.43 -0.182391
9.44 -0.23104
9.45 -0.280379
9.46 -0.328525
9.47 -0.373317
9.48 -0.413656
9.49 -0.447387
9.5 -0.474455
9.51 -0.493926
9.52 -0.505801
9.53 -0.510907
9.54 -0.509219
9.55 -0.502732
9.56 -0.492237
9.57 -0.479591
9.58 -0.46625
9.59 -0.453886
9.6 -0.443664
9.61 -0.437257
9.62 -0.435094
9.63 -0.438055
9.64 -0.446397
9.65 -0.459722
9.66 -0.478283
9.67 -0.500767
9.68 -0.526841
9.69 -0.555313
9.7 -0.585323
9.71 -0.615982
9.72 -0.646526
9.73 -0.676273
9.74 -0.704932
9.75 -0.73224
9.76 -0.75819
9.77 -0.782975
9.78 -0.806639
9.79 -0.829477
9.8 -0.851401
9.81 -0.872234
9.82 -0.891454
9.83 -0.907851
9.84 -0.920402
9.85 -0.926267
9.86 -0.923764
9.87 -0.909408
9.88 -0.879586
9.89 -0.832032
9.9 -0.760084
9.91 -0.663684
9.92 -0.536413
9.93 -0.377479
9.94 -0.185013
9.95 0.0442494
9.96 0.306102
9.97 0.604214
9.98 0.931241
9.99 1.28527
10 1.66033
10.01 2.04913
10.02 2.44484
10.03 2.8385
10.04 3.22076
10.05 3.58293
10.06 3.91678
10.07 4.21118
10.08 4.46373
10.09 4.66071
10.1 4.80423
10.11 4.88736
10.12 4.90863
10.13 4.87229
10.14 4.77279
10.15 4.62248
10.16 4.42041
10.17 4.17687
10.18 3.8988
10.19 3.59315
10.2 3.27075
10.21 2.93841
10.22 2.60559
10.23 2.27954
10.24 1.9675
10.25 1.67359
10.26 1.40529
10.27 1.16193
10.28 0.948332
10.29 0.76297
10.3 0.605142
10.31 0.474657
10.32 0.366092
10.33 0.279362
10.34 0.2081
10.35 0.149737
10.36 0.100176
10.37 0.0556738
10.38 0.0133477
10.39 -0.029603
10.4 -0.0753286
10.41 -0.125118
10.42 -0.179696
10.43 -0.239607
10.44 -0.303969
10.45 -0.372668
10.46 -0.444087
10.47 -0.517176
10.48 -0.590418
10.49 -0.662544
10.5 -0.731881
10.51 -0.797693
10.52 -0.858536
10.53 -0.913931
10.54 -0.96338
10.55 -1.00612
10.56 -1.04279
10.57 -1.07242
10.58 -1.09602
10.59 -1.11336
10.6 -1.12472
10.61 -1.13069
10.62 -1.13078
10.63 -1.12599
10.64 -1.11585
10.65 -1.10086
10.66 -1.08115
10.67 -1.05657
10.68 -1.02787
10.69 -0.994718
10.7 -0.958077
10.71 -0.918225
10.72 -0.875899
10.73 -0.831997
10.74 -0.787382
10.75 -0.74316
10.76 -0.700531
10.77 -0.660609
10.78 -0.624453
10.79 -0.593527
10.8 -0.56813
10.81 -0.550044
10.82 -0.538977
10.83 -0.535778
10.84 -0.540589
10.85 -0.552764
10.86 -0.572903
10.87 -0.599305
10.88 -0.631901
10.89 -0.669247
10.9 -0.710292
10.91 -0.753934
10.92 -0.798753
10.93 -0.843587
10.94 -0.887278
10.95 -0.928744
10.96 -0.967007
10.97 -1.00163
10.98 -1.03147
10.99 -1.05688
11 -1.07718
11.01 -1.09275
11.02 -1.10382
11.03 -1.11054
11.04 -1.1139
11.05 -1.11408
11.06 -1.11223
11.07 -1.10894
11.08 -1.10509
11.09 -1.10141
11.1 -1.09871
11.11 -1.09745
11.12 -1.09827
11.13 -1.10134
11.14 -1.10673
11.15 -1.11445
11.16 -1.12385
11.17 -1.13444
11.18 -1.1451
11.19 -1.15461
11.2 -1.16132
11.21 -1.16382
11.22 -1.15926
11.23 -1.1466
11.24 -1.12259
11.25 -1.08566
11.26 -1.03389
11.27 -0.964138
11.28 -0.87698
11.29 -0.768331
11.3 -0.640125
11.31 -0.490948
11.32 -0.321365
11.33 -0.133866
11.34 0.0718613
11.35 0.290719
11.36 0.520923
11.37 0.757648
11.38 0.996781
11.39 1.23312
11.4 1.4624
11.41 1.6779
11.42 1.8763
11.43 2.05197
11.44 2.20032
11.45 2.31999
11.46 2.40369
11.47 2.45461
11.48 2.46773
11.49 2.44542
11.5 2.38873
11.51 2.29746
11.52 2.17808
11.53 2.03014
11.54 1.86136
11.55 1.67485
11.56 1.47595
11.57 1.27006
11.58 1.06182
11.59 0.856025
11.6 0.657266
11.61 0.468931
11.62 0.293732
11.63 0.13508
11.64 -0.00757956
11.65 -0.130986
11.66 -0.237564
11.67 -0.326942
11.68 -0.400545
11.69 -0.461083
11.7 -0.50914
11.71 -0.548709
11.72 -0.581187
11.73 -0.609432
11.74 -0.635414
11.75 -0.660988
11.76 -0.687483
11.77 -0.716097
11.78 -0.74703
11.79 -0.780387
11.8 -0.815602
11.81 -0.851679
11.82 -0.887187
11.83 -0.920605
11.84 -0.949752
11.85 -0.972771
11.86 -0.987804
11.87 -0.992092
11.88 -0.985224
11.89 -0.963763
11.9 -0.928289
11.91 -0.877154
11.92 -0.809973
11.93 -0.728021
11.94 -0.629944
11.95 -0.519137
11.96 -0.395728
11.97 -0.262668
11.98 -0.122276
11.99 0.0228715
12 0.169509
12.01 0.314423
12.02 0.454636
12.03 0.586875
12.04 0.707922
12.05 0.816165
12.06 0.9071
12.07 0.98136
12.08 1.03551
12.09 1.06987
12.1 1.08431
12.11 1.07773
12.12 1.05332
12.13 1.00982
12.14 0.951423
12.15 0.879345
12.16 0.796341
12.17 0.705665
12.18 0.609478
12.19 0.511259
12.2 0.413474
12.21 0.318631
12.22 0.228623
12.23 0.145637
12.24 0.0699364
12.25 0.00338374
12.26 -0.0549793
12.27 -0.104972
12.28 -0.147424
12.29 -0.183908
12.3 -0.215209
12.31 -0.243607
12.32 -0.270448
12.33 -0.297522
12.34 -0.326162
12.35 -0.357797
12.36 -0.39283
12.37 -0.432228
12.38 -0.475391
12.39 -0.522028
