# xPDFsuite Configuration #
[PDF]
wavelength = 0.1432
dataformat = twotheta
inputfile = 1_1Pd_CeO2_cycle-00371.chi
backgroundfile = background-00000.chi
mode = xray
bgscale = 1.007
composition = CeO2
outputtype = gr
qmaxinst = 28.8974762299
qmin = 0.5
qmax = 27.9
rmax = 50.0
rmin = 0.0
rstep = 0.01
rpoly = 1.8657

[Misc]
inputdir = G:/SankarDec16/1Pd/Chi
savedir = D:/DATA/APS_CeO2/1Pd
backgroundfilefull = G:/SankarDec16/Background/background-00000.chi

#### start data
#S 1
#L r($\AA$)  G($\AA^{-2}$)
0 0
0.01 -0.00564562
0.02 -0.0108652
0.03 -0.01522
0.04 -0.0183799
0.05 -0.0201611
0.06 -0.0202689
0.07 -0.0189002
0.08 -0.0159612
0.09 -0.0118279
0.1 -0.00676111
0.11 -0.00115931
0.12 0.00454365
0.13 0.00986029
0.14 0.0144468
0.15 0.0178812
0.16 0.0199177
0.17 0.020459
0.18 0.0193054
0.19 0.0167479
0.2 0.0128003
0.21 0.00790165
0.22 0.00237677
0.23 -0.00332664
0.24 -0.00880097
0.25 -0.0135212
0.26 -0.0172425
0.27 -0.0195806
0.28 -0.020386
0.29 -0.0196525
0.3 -0.017286
0.31 -0.0136571
0.32 -0.00888667
0.33 -0.00345543
0.34 0.00226353
0.35 0.00779503
0.36 0.0127778
0.37 0.0166752
0.38 0.0193533
0.39 0.0204845
0.4 0.0200231
0.41 0.0180547
0.42 0.0145956
0.43 0.010078
0.44 0.00472397
0.45 -0.000967162
0.46 -0.00659262
0.47 -0.0116727
0.48 -0.0159107
0.49 -0.0187845
0.5 -0.0202777
0.51 -0.0201363
0.52 -0.0184206
0.53 -0.0153041
0.54 -0.0109133
0.55 -0.00572059
0.56 -3.90662e-05
0.57 0.00563796
0.58 0.0108979
0.59 0.0152798
0.6 0.0185664
0.61 0.020276
0.62 0.0205112
0.63 0.0191036
0.64 0.0162176
0.65 0.0121062
0.66 0.00700005
0.67 0.00138911
0.68 -0.0043382
0.69 -0.00971832
0.7 -0.0143493
0.71 -0.0178115
0.72 -0.0199778
0.73 -0.0204305
0.74 -0.0193858
0.75 -0.0167694
0.76 -0.0128406
0.77 -0.00791892
0.78 -0.00232674
0.79 0.00345342
0.8 0.00897922
0.81 0.0138405
0.82 0.0176679
0.83 0.0201054
0.84 0.0211227
0.85 0.0203899
0.86 0.0182241
0.87 0.0146491
0.88 0.0100046
0.89 0.00465718
0.9 -0.00099921
0.91 -0.0065199
0.92 -0.0114398
0.93 -0.0154315
0.94 -0.0181884
0.95 -0.0194521
0.96 -0.0192987
0.97 -0.0175305
0.98 -0.0145529
0.99 -0.0105109
1 -0.00581964
1.01 -0.000881191
1.02 0.00383413
1.03 0.0079569
1.04 0.0110033
1.05 0.0127662
1.06 0.0130264
1.07 0.011655
1.08 0.00886896
1.09 0.00464483
1.1 -0.000490478
1.11 -0.0062213
1.12 -0.012011
1.13 -0.0173838
1.14 -0.0217103
1.15 -0.0246813
1.16 -0.0256898
1.17 -0.0246258
1.18 -0.02129
1.19 -0.0156048
1.2 -0.00794272
1.21 0.0016882
1.22 0.0125577
1.23 0.0242497
1.24 0.03607
1.25 0.0474094
1.26 0.0574687
1.27 0.0658359
1.28 0.0717097
1.29 0.0748874
1.3 0.0750273
1.31 0.0718807
1.32 0.0658039
1.33 0.0565045
1.34 0.0447953
1.35 0.0308848
1.36 0.0154314
1.37 -0.000942987
1.38 -0.0176037
1.39 -0.0339141
1.4 -0.0491843
1.41 -0.0629526
1.42 -0.0747468
1.43 -0.084101
1.44 -0.0910361
1.45 -0.0949688
1.46 -0.0963123
1.47 -0.0948659
1.48 -0.0908607
1.49 -0.0845833
1.5 -0.0760789
1.51 -0.0659032
1.52 -0.0541528
1.53 -0.0413019
1.54 -0.0276262
1.55 -0.013456
1.56 0.000869744
1.57 0.0150054
1.58 0.0286591
1.59 0.0414626
1.6 0.0530896
1.61 0.0632903
1.62 0.0715514
1.63 0.0778417
1.64 0.0816034
1.65 0.0828358
1.66 0.0813176
1.67 0.0768559
1.68 0.0697547
1.69 0.0596891
1.7 0.0473272
1.71 0.0327794
1.72 0.0165922
1.73 -0.000673844
1.74 -0.0184373
1.75 -0.0360191
1.76 -0.0526906
1.77 -0.0678806
1.78 -0.0810164
1.79 -0.0915122
1.8 -0.0993437
1.81 -0.103864
1.82 -0.105586
1.83 -0.104433
1.84 -0.100895
1.85 -0.0955541
1.86 -0.0889629
1.87 -0.0819768
1.88 -0.0753616
1.89 -0.0698611
1.9 -0.0661452
1.91 -0.0648951
1.92 -0.0662091
1.93 -0.0707415
1.94 -0.0779711
1.95 -0.0878901
1.96 -0.099889
1.97 -0.113251
1.98 -0.127155
1.99 -0.140628
2 -0.152541
2.01 -0.162003
2.02 -0.168081
2.03 -0.169775
2.04 -0.166983
2.05 -0.158486
2.06 -0.144985
2.07 -0.126096
2.08 -0.102327
2.09 -0.0743695
2.1 -0.0425624
2.11 -0.00815778
2.12 0.0283021
2.13 0.0657756
2.14 0.103579
2.15 0.141033
2.16 0.177762
2.17 0.213335
2.18 0.247856
2.19 0.281339
2.2 0.314098
2.21 0.346501
2.22 0.378983
2.23 0.411901
2.24 0.445634
2.25 0.480257
2.26 0.515725
2.27 0.551715
2.28 0.587642
2.29 0.622496
2.3 0.655326
2.31 0.684632
2.32 0.708944
2.33 0.727101
2.34 0.736774
2.35 0.73784
2.36 0.728012
2.37 0.707537
2.38 0.675883
2.39 0.632822
2.4 0.580112
2.41 0.517426
2.42 0.447827
2.43 0.372605
2.44 0.294356
2.45 0.215433
2.46 0.138576
2.47 0.0657461
2.48 -0.000252972
2.49 -0.0581975
2.5 -0.106657
2.51 -0.144399
2.52 -0.172326
2.53 -0.189179
2.54 -0.197502
2.55 -0.197859
2.56 -0.19238
2.57 -0.183172
2.58 -0.17228
2.59 -0.16192
2.6 -0.154228
2.61 -0.150669
2.62 -0.152505
2.63 -0.160779
2.64 -0.175037
2.65 -0.195948
2.66 -0.221725
2.67 -0.251607
2.68 -0.283799
2.69 -0.316584
2.7 -0.347945
2.71 -0.376424
2.72 -0.400015
2.73 -0.41793
2.74 -0.429335
2.75 -0.433697
2.76 -0.431976
2.77 -0.424027
2.78 -0.411984
2.79 -0.39703
2.8 -0.381216
2.81 -0.366349
2.82 -0.354688
2.83 -0.347411
2.84 -0.346551
2.85 -0.352492
2.86 -0.365758
2.87 -0.386451
2.88 -0.413151
2.89 -0.445438
2.9 -0.480803
2.91 -0.51754
2.92 -0.553237
2.93 -0.585906
2.94 -0.612841
2.95 -0.633122
2.96 -0.644445
2.97 -0.646797
2.98 -0.639834
2.99 -0.623725
3 -0.600404
3.01 -0.570553
3.02 -0.537223
3.03 -0.50246
3.04 -0.469041
3.05 -0.439185
3.06 -0.415869
3.07 -0.399993
3.08 -0.393964
3.09 -0.39763
3.1 -0.4112
3.11 -0.434294
3.12 -0.464728
3.13 -0.501571
3.14 -0.541587
3.15 -0.582554
3.16 -0.621633
3.17 -0.656655
3.18 -0.68474
3.19 -0.705271
3.2 -0.716196
3.21 -0.718095
3.22 -0.711248
3.23 -0.696665
3.24 -0.676824
3.25 -0.653566
3.26 -0.630094
3.27 -0.609187
3.28 -0.593753
3.29 -0.585776
3.3 -0.588289
3.31 -0.60108
3.32 -0.625978
3.33 -0.661463
3.34 -0.706516
3.35 -0.759181
3.36 -0.816182
3.37 -0.874528
3.38 -0.930552
3.39 -0.980622
3.4 -1.02144
3.41 -1.05099
3.42 -1.06585
3.43 -1.06704
3.44 -1.05283
3.45 -1.02579
3.46 -0.987732
3.47 -0.941638
3.48 -0.891735
3.49 -0.842164
3.5 -0.797099
3.51 -0.760836
3.52 -0.736731
3.53 -0.726347
3.54 -0.732404
3.55 -0.752264
3.56 -0.785487
3.57 -0.826897
3.58 -0.871489
3.59 -0.911705
3.6 -0.940785
3.61 -0.946811
3.62 -0.92415
3.63 -0.861596
3.64 -0.751547
3.65 -0.590201
3.66 -0.366339
3.67 -0.0858717
3.68 0.258641
3.69 0.658665
3.7 1.10989
3.71 1.60505
3.72 2.12973
3.73 2.67394
3.74 3.22023
3.75 3.75335
3.76 4.25624
3.77 4.71597
3.78 5.11084
3.79 5.43716
3.8 5.67451
3.81 5.82233
3.82 5.87439
3.83 5.82499
3.84 5.6864
3.85 5.44948
3.86 5.13653
3.87 4.75122
3.88 4.30915
3.89 3.82605
3.9 3.31456
3.91 2.79289
3.92 2.27525
3.93 1.77549
3.94 1.30529
3.95 0.877023
3.96 0.493213
3.97 0.167205
3.98 -0.106786
3.99 -0.324018
4 -0.488143
4.01 -0.605436
4.02 -0.67701
4.03 -0.715321
4.04 -0.723774
4.05 -0.712823
4.06 -0.689062
4.07 -0.65949
4.08 -0.629998
4.09 -0.605988
4.1 -0.590066
4.11 -0.58497
4.12 -0.591294
4.13 -0.608112
4.14 -0.634985
4.15 -0.668451
4.16 -0.706428
4.17 -0.7453
4.18 -0.782104
4.19 -0.813417
4.2 -0.837445
4.21 -0.850542
4.22 -0.852778
4.23 -0.842352
4.24 -0.819324
4.25 -0.784656
4.26 -0.738033
4.27 -0.682271
4.28 -0.617809
4.29 -0.547164
4.3 -0.471853
4.31 -0.393503
4.32 -0.313756
4.33 -0.233797
4.34 -0.15463
4.35 -0.0770324
4.36 -0.00150785
4.37 0.0717539
4.38 0.14226
4.39 0.210229
4.4 0.27514
4.41 0.336978
4.42 0.395321
4.43 0.4494
4.44 0.49902
4.45 0.542443
4.46 0.57957
4.47 0.608819
4.48 0.62924
4.49 0.640395
4.5 0.640301
4.51 0.62992
4.52 0.607607
4.53 0.574432
4.54 0.53061
4.55 0.476545
4.56 0.414333
4.57 0.344236
4.58 0.269033
4.59 0.190058
4.6 0.109439
4.61 0.0289605
4.62 -0.0493486
4.63 -0.124295
4.64 -0.194061
4.65 -0.258045
4.66 -0.315533
4.67 -0.365883
4.68 -0.409866
4.69 -0.44678
4.7 -0.478199
4.71 -0.504387
4.72 -0.526405
4.73 -0.545307
4.74 -0.561768
4.75 -0.576894
4.76 -0.59124
4.77 -0.60542
4.78 -0.619755
4.79 -0.634429
4.8 -0.649393
4.81 -0.664511
4.82 -0.679485
4.83 -0.69396
4.84 -0.707547
4.85 -0.719967
4.86 -0.730744
4.87 -0.7399
4.88 -0.747116
4.89 -0.752569
4.9 -0.756357
4.91 -0.758664
4.92 -0.759931
4.93 -0.760409
4.94 -0.760604
4.95 -0.760871
4.96 -0.761593
4.97 -0.76302
4.98 -0.765489
4.99 -0.768997
5 -0.773741
5.01 -0.779604
5.02 -0.786533
5.03 -0.794447
5.04 -0.803111
5.05 -0.812483
5.06 -0.822321
5.07 -0.832542
5.08 -0.843013
5.09 -0.853621
5.1 -0.864237
5.11 -0.874704
5.12 -0.884749
5.13 -0.89405
5.14 -0.902143
5.15 -0.908253
5.16 -0.911849
5.17 -0.91136
5.18 -0.906175
5.19 -0.89458
5.2 -0.875145
5.21 -0.846931
5.22 -0.807261
5.23 -0.756436
5.24 -0.691868
5.25 -0.613907
5.26 -0.522052
5.27 -0.415845
5.28 -0.29747
5.29 -0.166425
5.3 -0.0264333
5.31 0.120786
5.32 0.271776
5.33 0.423154
5.34 0.570586
5.35 0.710802
5.36 0.838635
5.37 0.95106
5.38 1.04452
5.39 1.11472
5.4 1.16191
5.41 1.1804
5.42 1.17338
5.43 1.13876
5.44 1.07812
5.45 0.994478
5.46 0.888099
5.47 0.765163
5.48 0.627512
5.49 0.480685
5.5 0.328631
5.51 0.17592
5.52 0.0263385
5.53 -0.115338
5.54 -0.246999
5.55 -0.365267
5.56 -0.46833
5.57 -0.555921
5.58 -0.625682
5.59 -0.680236
5.6 -0.718482
5.61 -0.743125
5.62 -0.755572
5.63 -0.757376
5.64 -0.751479
5.65 -0.738815
5.66 -0.722093
5.67 -0.70243
5.68 -0.681137
5.69 -0.659016
5.7 -0.636428
5.71 -0.613471
5.72 -0.589812
5.73 -0.564986
5.74 -0.538373
5.75 -0.50913
5.76 -0.476978
5.77 -0.440914
5.78 -0.401263
5.79 -0.357803
5.8 -0.311048
5.81 -0.261858
5.82 -0.211172
5.83 -0.160479
5.84 -0.111419
5.85 -0.0656227
5.86 -0.0247407
5.87 0.00916014
5.88 0.0355089
5.89 0.0517087
5.9 0.0583279
5.91 0.0541382
5.92 0.0393088
5.93 0.0147802
5.94 -0.0196924
5.95 -0.0616638
5.96 -0.1106
5.97 -0.164244
5.98 -0.221038
5.99 -0.279224
6 -0.337199
6.01 -0.393324
6.02 -0.44671
6.03 -0.49632
6.04 -0.541683
6.05 -0.582883
6.06 -0.619599
6.07 -0.652845
6.08 -0.682838
6.09 -0.710634
6.1 -0.736968
6.11 -0.762632
6.12 -0.788297
6.13 -0.814513
6.14 -0.841465
6.15 -0.869225
6.16 -0.89753
6.17 -0.92594
6.18 -0.953742
6.19 -0.980297
6.2 -1.00461
6.21 -1.02604
6.22 -1.04394
6.23 -1.05758
6.24 -1.06717
6.25 -1.07205
6.26 -1.07312
6.27 -1.07057
6.28 -1.0652
6.29 -1.05789
6.3 -1.04934
6.31 -1.04039
6.32 -1.0315
6.33 -1.02279
6.34 -1.01394
6.35 -1.00396
6.36 -0.991612
6.37 -0.974101
6.38 -0.949378
6.39 -0.913632
6.4 -0.863005
6.41 -0.794695
6.42 -0.701898
6.43 -0.58423
6.44 -0.434845
6.45 -0.253288
6.46 -0.0374109
6.47 0.215423
6.48 0.500781
6.49 0.821814
6.5 1.17018
6.51 1.54327
6.52 1.9338
6.53 2.33387
6.54 2.7347
6.55 3.12721
6.56 3.50002
6.57 3.84429
6.58 4.15072
6.59 4.40745
6.6 4.61282
6.61 4.75119
6.62 4.82712
6.63 4.83294
6.64 4.76903
6.65 4.64059
6.66 4.44369
6.67 4.19279
6.68 3.88838
6.69 3.5435
6.7 3.16671
6.71 2.76779
6.72 2.35863
6.73 1.94923
6.74 1.54937
6.75 1.16847
6.76 0.814568
6.77 0.491815
6.78 0.209405
6.79 -0.0353114
6.8 -0.236126
6.81 -0.396706
6.82 -0.518242
6.83 -0.601939
6.84 -0.655391
6.85 -0.678789
6.86 -0.681167
6.87 -0.665763
6.88 -0.638154
6.89 -0.603147
6.9 -0.56437
6.91 -0.525445
6.92 -0.488954
6.93 -0.456504
6.94 -0.429037
6.95 -0.407163
6.96 -0.390062
6.97 -0.37779
6.98 -0.368807
6.99 -0.362426
7 -0.357622
7.01 -0.353638
7.02 -0.350056
7.03 -0.346709
7.04 -0.343878
7.05 -0.342124
7.06 -0.342258
7.07 -0.345558
7.08 -0.352717
7.09 -0.365636
7.1 -0.384516
7.11 -0.410538
7.12 -0.444021
7.13 -0.484517
7.14 -0.532363
7.15 -0.585677
7.16 -0.643766
7.17 -0.704508
7.18 -0.766119
7.19 -0.826341
7.2 -0.883459
7.21 -0.934795
7.22 -0.979475
7.23 -1.01573
7.24 -1.04279
7.25 -1.06091
7.26 -1.06925
7.27 -1.06987
7.28 -1.06305
7.29 -1.05101
7.3 -1.03543
7.31 -1.01827
7.32 -1.00141
7.33 -0.986768
7.34 -0.975366
7.35 -0.968264
7.36 -0.965697
7.37 -0.967086
7.38 -0.971795
7.39 -0.977842
7.4 -0.983172
7.41 -0.985166
7.42 -0.981147
7.43 -0.967511
7.44 -0.942722
7.45 -0.902056
7.46 -0.845521
7.47 -0.77041
7.48 -0.676115
7.49 -0.563796
7.5 -0.432235
7.51 -0.285782
7.52 -0.12527
7.53 0.0447409
7.54 0.220638
7.55 0.397868
7.56 0.572124
7.57 0.737717
7.58 0.891358
7.59 1.02815
7.6 1.14447
7.61 1.2389
7.62 1.30629
7.63 1.34918
7.64 1.36407
7.65 1.35358
7.66 1.31873
7.67 1.2604
7.68 1.18346
7.69 1.0883
7.7 0.980644
7.71 0.862891
7.72 0.73892
7.73 0.612133
7.74 0.485755
7.75 0.362413
7.76 0.245034
7.77 0.135318
7.78 0.0348494
7.79 -0.0544666
7.8 -0.133061
7.81 -0.198592
7.82 -0.252566
7.83 -0.294109
7.84 -0.323612
7.85 -0.342159
7.86 -0.349003
7.87 -0.346423
7.88 -0.334101
7.89 -0.313783
7.9 -0.286464
7.91 -0.253168
7.92 -0.215825
7.93 -0.175522
7.94 -0.134328
7.95 -0.0938917
7.96 -0.0561804
7.97 -0.0226802
7.98 0.00405994
7.99 0.0234289
8 0.0330422
8.01 0.0324578
8.02 0.0209079
8.03 -0.00261223
8.04 -0.0367025
8.05 -0.0824483
8.06 -0.137291
8.07 -0.200544
8.08 -0.270196
8.09 -0.344028
8.1 -0.420069
8.11 -0.49589
8.12 -0.569237
8.13 -0.638259
8.14 -0.701401
8.15 -0.756945
8.16 -0.80502
8.17 -0.8441
8.18 -0.875594
8.19 -0.899581
8.2 -0.917279
8.21 -0.930269
8.22 -0.939633
8.23 -0.947276
8.24 -0.95435
8.25 -0.961956
8.26 -0.970636
8.27 -0.980476
8.28 -0.990802
8.29 -1.00026
8.3 -1.00701
8.31 -1.00836
8.32 -1.00106
8.33 -0.982552
8.34 -0.947282
8.35 -0.89418
8.36 -0.817598
8.37 -0.716321
8.38 -0.588275
8.39 -0.430587
8.4 -0.246386
8.41 -0.0325315
8.42 0.204825
8.43 0.464099
8.44 0.740105
8.45 1.02677
8.46 1.31815
8.47 1.60689
8.48 1.88508
8.49 2.14577
8.5 2.38225
8.51 2.58579
8.52 2.7548
8.53 2.87846
8.54 2.95929
8.55 2.99209
8.56 2.97664
8.57 2.91665
8.58 2.80888
8.59 2.66328
8.6 2.4799
8.61 2.26726
8.62 2.03101
8.63 1.77719
8.64 1.51384
8.65 1.24686
8.66 0.982987
8.67 0.727953
8.68 0.487036
8.69 0.263041
8.7 0.0617305
8.71 -0.118027
8.72 -0.272383
8.73 -0.402967
8.74 -0.510306
8.75 -0.594585
8.76 -0.660144
8.77 -0.706671
8.78 -0.739351
8.79 -0.759898
8.8 -0.771474
8.81 -0.777074
8.82 -0.778739
8.83 -0.779067
8.84 -0.779741
8.85 -0.782203
8.86 -0.7874
8.87 -0.796196
8.88 -0.808445
8.89 -0.824667
8.9 -0.844055
8.91 -0.866369
8.92 -0.890907
8.93 -0.916891
8.94 -0.943662
8.95 -0.970421
8.96 -0.996472
8.97 -1.02125
8.98 -1.04429
8.99 -1.06506
9 -1.08359
9.01 -1.09934
9.02 -1.11262
9.03 -1.12331
9.04 -1.13152
9.05 -1.13756
9.06 -1.14135
9.07 -1.14334
9.08 -1.14348
9.09 -1.14199
9.1 -1.13888
9.11 -1.13399
9.12 -1.12738
9.13 -1.11849
9.14 -1.10726
9.15 -1.09311
9.16 -1.0755
9.17 -1.05416
9.18 -1.02797
9.19 -0.99711
9.2 -0.960528
9.21 -0.918282
9.22 -0.870199
9.23 -0.815964
9.24 -0.7565
9.25 -0.691557
9.26 -0.622644
9.27 -0.550509
9.28 -0.476609
9.29 -0.402443
9.3 -0.329932
9.31 -0.260578
9.32 -0.196677
9.33 -0.139725
9.34 -0.0912758
9.35 -0.0534414
9.36 -0.0260605
9.37 -0.0116387
9.38 -0.00881908
9.39 -0.018291
9.4 -0.0393033
9.41 -0.0701549
9.42 -0.110452
9.43 -0.157124
9.44 -0.208791
9.45 -0.26273
9.46 -0.316785
9.47 -0.368443
9.48 -0.41609
9.49 -0.457102
9.5 -0.490937
9.51 -0.516181
9.52 -0.532409
9.53 -0.54026
9.54 -0.539265
9.55 -0.531636
9.56 -0.518003
9.57 -0.50056
9.58 -0.481054
9.59 -0.461534
9.6 -0.443717
9.61 -0.429795
9.62 -0.42072
9.63 -0.417895
9.64 -0.422043
9.65 -0.432961
9.66 -0.451382
9.67 -0.475738
9.68 -0.505856
9.69 -0.540149
9.7 -0.577414
9.71 -0.61631
9.72 -0.655445
9.73 -0.69351
9.74 -0.729621
9.75 -0.762888
9.76 -0.792753
9.77 -0.819181
9.78 -0.841612
9.79 -0.860655
9.8 -0.875987
9.81 -0.887893
9.82 -0.896241
9.83 -0.900332
9.84 -0.899921
9.85 -0.892896
9.86 -0.878353
9.87 -0.853603
9.88 -0.81579
9.89 -0.763032
9.9 -0.689569
9.91 -0.595101
9.92 -0.473733
9.93 -0.324298
9.94 -0.144658
9.95 0.0687737
9.96 0.312695
9.97 0.59127
9.98 0.89819
9.99 1.23234
10 1.58866
10.01 1.96052
10.02 2.34215
10.03 2.72474
10.04 3.09973
10.05 3.45846
10.06 3.79276
10.07 4.09164
10.08 4.352
10.09 4.56022
10.1 4.71742
10.11 4.81629
10.12 4.85463
10.13 4.83602
10.14 4.75424
10.15 4.62108
10.16 4.43501
10.17 4.20594
10.18 3.94055
10.19 3.64543
10.2 3.33157
10.21 3.00549
10.22 2.67704
10.23 2.3535
10.24 2.04238
10.25 1.74811
10.26 1.47832
10.27 1.23275
10.28 1.01636
10.29 0.827893
10.3 0.666791
10.31 0.532985
10.32 0.421127
10.33 0.331177
10.34 0.256761
10.35 0.195294
10.36 0.142642
10.37 0.0950239
10.38 0.0495111
10.39 0.0032889
10.4 -0.0458138
10.41 -0.099069
10.42 -0.157177
10.43 -0.220631
10.44 -0.288497
10.45 -0.360574
10.46 -0.435189
10.47 -0.511209
10.48 -0.587049
10.49 -0.661411
10.5 -0.732532
10.51 -0.799718
10.52 -0.86147
10.53 -0.917354
10.54 -0.966896
10.55 -1.00936
10.56 -1.04544
10.57 -1.07421
10.58 -1.09676
10.59 -1.11289
10.6 -1.12294
10.61 -1.12757
10.62 -1.12631
10.63 -1.12021
10.64 -1.10888
10.65 -1.09285
10.66 -1.0723
10.67 -1.04718
10.68 -1.01824
10.69 -0.985283
10.7 -0.949283
10.71 -0.910602
10.72 -0.87003
10.73 -0.828453
10.74 -0.786818
10.75 -0.746116
10.76 -0.707554
10.77 -0.672108
10.78 -0.640711
10.79 -0.614652
10.8 -0.594032
10.81 -0.580363
10.82 -0.573158
10.83 -0.572993
10.84 -0.579764
10.85 -0.592722
10.86 -0.612126
10.87 -0.636401
10.88 -0.665282
10.89 -0.697488
10.9 -0.732095
10.91 -0.768158
10.92 -0.804649
10.93 -0.840674
10.94 -0.875532
10.95 -0.908547
10.96 -0.939198
10.97 -0.967346
10.98 -0.992424
10.99 -1.01481
11 -1.03422
11.01 -1.05101
11.02 -1.06537
11.03 -1.07746
11.04 -1.08779
11.05 -1.09642
11.06 -1.10389
11.07 -1.11038
11.08 -1.1162
11.09 -1.12162
11.1 -1.12683
11.11 -1.13204
11.12 -1.13735
11.13 -1.14282
11.14 -1.14842
11.15 -1.15399
11.16 -1.1593
11.17 -1.16383
11.18 -1.16705
11.19 -1.16809
11.2 -1.16583
11.21 -1.15939
11.22 -1.14651
11.23 -1.12652
11.24 -1.09674
11.25 -1.05584
11.26 -1.00211
11.27 -0.932675
11.28 -0.847843
11.29 -0.743709
11.3 -0.621705
11.31 -0.480222
11.32 -0.319404
11.33 -0.141286
11.34 0.0548622
11.35 0.264379
11.36 0.485908
11.37 0.714928
11.38 0.94756
11.39 1.17888
11.4 1.40454
11.41 1.61803
11.42 1.81577
11.43 1.99209
11.44 2.1422
11.45 2.26451
11.46 2.3516
11.47 2.40637
11.48 2.42372
11.49 2.40586
11.5 2.35379
11.51 2.2673
11.52 2.15288
11.53 2.01017
11.54 1.84696
11.55 1.66646
11.56 1.47412
11.57 1.27534
11.58 1.07484
11.59 0.877268
11.6 0.687159
11.61 0.507666
11.62 0.341257
11.63 0.190985
11.64 0.0560202
11.65 -0.0608975
11.66 -0.162413
11.67 -0.248567
11.68 -0.321077
11.69 -0.382674
11.7 -0.434338
11.71 -0.479661
11.72 -0.52013
11.73 -0.558156
11.74 -0.595321
11.75 -0.633013
11.76 -0.671929
11.77 -0.712634
11.78 -0.754746
11.79 -0.797754
11.8 -0.840532
11.81 -0.88187
11.82 -0.919703
11.83 -0.952822
11.84 -0.978792
11.85 -0.996182
11.86 -1.00351
11.87 -0.998477
11.88 -0.981445
11.89 -0.949647
11.9 -0.904444
11.91 -0.844937
11.92 -0.771483
11.93 -0.685721
11.94 -0.587137
11.95 -0.478896
11.96 -0.361552
11.97 -0.237676
11.98 -0.109243
11.99 0.0215797
12 0.152431
12.01 0.280767
12.02 0.404602
12.03 0.521545
12.04 0.629337
12.05 0.726932
12.06 0.810955
12.07 0.881976
12.08 0.937285
12.09 0.977002
12.1 1.0008
12.11 1.00743
12.12 0.999103
12.13 0.974169
12.14 0.935615
12.15 0.883818
12.16 0.820457
12.17 0.747974
12.18 0.667325
12.19 0.581665
12.2 0.492534
12.21 0.40231
12.22 0.312791
12.23 0.225984
12.24 0.142935
12.25 0.0655271
12.26 -0.00608368
12.27 -0.071089
12.28 -0.129356
12.29 -0.181581
12.3 -0.227517
12.31 -0.268825
12.32 -0.305942
12.33 -0.340259
12.34 -0.37281
12.35 -0.40462
12.36 -0.436577
12.37 -0.469422
12.38 -0.503418
12.39 -0.538673
