# xPDFsuite Configuration #
[PDF]
wavelength = 0.1432
dataformat = twotheta
inputfile = 1_1Pd_CeO2_cycle-00315.chi
backgroundfile = background-00000.chi
mode = xray
bgscale = 1.007
composition = CeO2
outputtype = gr
qmaxinst = 28.8974762299
qmin = 0.5
qmax = 27.9
rmax = 50.0
rmin = 0.0
rstep = 0.01
rpoly = 1.8657

[Misc]
inputdir = G:/SankarDec16/1Pd/Chi
savedir = D:/DATA/APS_CeO2/1Pd
backgroundfilefull = G:/SankarDec16/Background/background-00000.chi

#### start data
#S 1
#L r($\AA$)  G($\AA^{-2}$)
0 0
0.01 -0.00730847
0.02 -0.0140678
0.03 -0.0197123
0.04 -0.0238158
0.05 -0.0261407
0.06 -0.0263051
0.07 -0.0245618
0.08 -0.0207866
0.09 -0.0154629
0.1 -0.00892438
0.11 -0.00168288
0.12 0.00570183
0.13 0.0126033
0.14 0.0185747
0.15 0.0230706
0.16 0.0257696
0.17 0.0265416
0.18 0.0251231
0.19 0.0218845
0.2 0.0168359
0.21 0.0105402
0.22 0.00341208
0.23 -0.00397431
0.24 -0.0110906
0.25 -0.0172619
0.26 -0.0221637
0.27 -0.0252963
0.28 -0.0264576
0.29 -0.0256313
0.3 -0.0226848
0.31 -0.0180892
0.32 -0.0119889
0.33 -0.00500068
0.34 0.00239875
0.35 0.00959846
0.36 0.0161261
0.37 0.0212889
0.38 0.0249
0.39 0.0265283
0.4 0.0261008
0.41 0.0237157
0.42 0.0193782
0.43 0.0136388
0.44 0.00676976
0.45 -0.00058576
0.46 -0.00791105
0.47 -0.014586
0.48 -0.0202161
0.49 -0.0241227
0.5 -0.0262654
0.51 -0.026302
0.52 -0.0242921
0.53 -0.0204451
0.54 -0.0149039
0.55 -0.00827361
0.56 -0.000942463
0.57 0.00644912
0.58 0.0133682
0.59 0.0192136
0.6 0.0236875
0.61 0.0261564
0.62 0.026729
0.63 0.0251681
0.64 0.0216643
0.65 0.0165285
0.66 0.0100362
0.67 0.00281957
0.68 -0.00463461
0.69 -0.0117177
0.7 -0.0179051
0.71 -0.0226418
0.72 -0.0257409
0.73 -0.0266433
0.74 -0.025602
0.75 -0.0224962
0.76 -0.0176386
0.77 -0.0114277
0.78 -0.00425836
0.79 0.00323931
0.8 0.0105037
0.81 0.0169861
0.82 0.022196
0.83 0.0256509
0.84 0.027284
0.85 0.0266383
0.86 0.0240984
0.87 0.0196656
0.88 0.0137591
0.89 0.00684383
0.9 -0.000587032
0.91 -0.00793944
0.92 -0.0146101
0.93 -0.020142
0.94 -0.0241105
0.95 -0.0261396
0.96 -0.0262915
0.97 -0.0242528
0.98 -0.0205233
0.99 -0.0152432
1 -0.00892596
1.01 -0.00208452
1.02 0.00469783
1.03 0.0109037
1.04 0.0159065
1.05 0.0193804
1.06 0.0209966
1.07 0.0205225
1.08 0.0181746
1.09 0.0138295
1.1 0.00811551
1.11 0.00135132
1.12 -0.00583028
1.13 -0.0128514
1.14 -0.0189862
1.15 -0.0238007
1.16 -0.0265813
1.17 -0.0271314
1.18 -0.0251825
1.19 -0.0206018
1.2 -0.0137772
1.21 -0.00468629
1.22 0.0058569
1.23 0.0173992
1.24 0.0291636
1.25 0.0404676
1.26 0.0504331
1.27 0.0586016
1.28 0.0641191
1.29 0.0667889
1.3 0.066286
1.31 0.0624166
1.32 0.0556183
1.33 0.0457215
1.34 0.0336405
1.35 0.0197314
1.36 0.00477058
1.37 -0.0105462
1.38 -0.0254427
1.39 -0.0393438
1.4 -0.0514885
1.41 -0.0615529
1.42 -0.0691653
1.43 -0.0740342
1.44 -0.0764028
1.45 -0.0759581
1.46 -0.0733453
1.47 -0.0686645
1.48 -0.0623891
1.49 -0.0549595
1.5 -0.0467188
1.51 -0.0381249
1.52 -0.0294698
1.53 -0.0210155
1.54 -0.0129264
1.55 -0.0053163
1.56 0.00184405
1.57 0.0085149
1.58 0.0148355
1.59 0.0208468
1.6 0.0266254
1.61 0.0322069
1.62 0.0375435
1.63 0.0425857
1.64 0.0471313
1.65 0.0510059
1.66 0.0539452
1.67 0.0555956
1.68 0.055826
1.69 0.0540826
1.7 0.0504484
1.71 0.0446046
1.72 0.0365793
1.73 0.0265331
1.74 0.0144789
1.75 0.000976101
1.76 -0.0137237
1.77 -0.0289878
1.78 -0.0443029
1.79 -0.0590324
1.8 -0.0727394
1.81 -0.0846787
1.82 -0.0947213
1.83 -0.102415
1.84 -0.107694
1.85 -0.110682
1.86 -0.111343
1.87 -0.110285
1.88 -0.107744
1.89 -0.1044
1.9 -0.100772
1.91 -0.0974798
1.92 -0.0949577
1.93 -0.0938345
1.94 -0.0942003
1.95 -0.0963426
1.96 -0.100184
1.97 -0.105471
1.98 -0.111942
1.99 -0.118963
2 -0.125942
2.01 -0.132162
2.02 -0.136918
2.03 -0.139374
2.04 -0.139192
2.05 -0.135303
2.06 -0.12787
2.07 -0.116318
2.08 -0.100687
2.09 -0.0812293
2.1 -0.0577938
2.11 -0.0312221
2.12 -0.00153693
2.13 0.0305012
2.14 0.0645149
2.15 0.100108
2.16 0.136802
2.17 0.174481
2.18 0.212836
2.19 0.251861
2.2 0.291536
2.21 0.331872
2.22 0.372988
2.23 0.414782
2.24 0.457244
2.25 0.500069
2.26 0.542876
2.27 0.584978
2.28 0.62571
2.29 0.663649
2.3 0.69801
2.31 0.727133
2.32 0.749657
2.33 0.764599
2.34 0.76968
2.35 0.765165
2.36 0.748904
2.37 0.721504
2.38 0.682691
2.39 0.632537
2.4 0.573032
2.41 0.504173
2.42 0.429138
2.43 0.349453
2.44 0.267825
2.45 0.186637
2.46 0.108794
2.47 0.0360852
2.48 -0.0285865
2.49 -0.0841947
2.5 -0.1294
2.51 -0.163099
2.52 -0.186432
2.53 -0.198266
2.54 -0.201405
2.55 -0.196598
2.56 -0.186191
2.57 -0.172456
2.58 -0.157677
2.59 -0.144126
2.6 -0.13416
2.61 -0.129248
2.62 -0.130719
2.63 -0.139664
2.64 -0.155491
2.65 -0.17894
2.66 -0.207977
2.67 -0.241771
2.68 -0.278331
2.69 -0.315755
2.7 -0.351836
2.71 -0.384921
2.72 -0.412797
2.73 -0.434526
2.74 -0.449127
2.75 -0.455915
2.76 -0.455856
2.77 -0.44862
2.78 -0.436477
2.79 -0.420558
2.8 -0.403005
2.81 -0.385737
2.82 -0.371068
2.83 -0.360368
2.84 -0.355756
2.85 -0.357777
2.86 -0.367071
2.87 -0.383861
2.88 -0.406809
2.89 -0.435615
2.9 -0.467794
2.91 -0.501716
2.92 -0.534997
2.93 -0.565657
2.94 -0.591059
2.95 -0.610238
2.96 -0.620969
2.97 -0.623218
2.98 -0.616677
2.99 -0.60157
3 -0.579796
3.01 -0.552158
3.02 -0.521623
3.03 -0.490289
3.04 -0.460889
3.05 -0.435563
3.06 -0.417244
3.07 -0.406652
3.08 -0.406058
3.09 -0.415094
3.1 -0.433751
3.11 -0.461371
3.12 -0.4956
3.13 -0.535105
3.14 -0.5766
3.15 -0.61758
3.16 -0.655112
3.17 -0.687052
3.18 -0.710386
3.19 -0.724827
3.2 -0.728367
3.21 -0.722002
3.22 -0.706343
3.23 -0.682854
3.24 -0.654441
3.25 -0.62355
3.26 -0.593706
3.27 -0.568217
3.28 -0.550319
3.29 -0.542129
3.3 -0.547079
3.31 -0.564603
3.32 -0.596686
3.33 -0.641297
3.34 -0.697063
3.35 -0.761507
3.36 -0.830692
3.37 -0.900934
3.38 -0.967932
3.39 -1.02733
3.4 -1.07525
3.41 -1.10933
3.42 -1.12548
3.43 -1.12498
3.44 -1.10573
3.45 -1.07077
3.46 -1.02222
3.47 -0.96358
3.48 -0.899895
3.49 -0.835994
3.5 -0.776964
3.51 -0.727962
3.52 -0.693174
3.53 -0.674707
3.54 -0.676212
3.55 -0.694939
3.56 -0.731081
3.57 -0.779049
3.58 -0.83364
3.59 -0.886877
3.6 -0.931064
3.61 -0.95366
3.62 -0.947866
3.63 -0.901511
3.64 -0.805922
3.65 -0.656518
3.66 -0.440858
3.67 -0.164736
3.68 0.180261
3.69 0.585381
3.7 1.04635
3.71 1.55572
3.72 2.09812
3.73 2.66326
3.74 3.2323
3.75 3.7891
3.76 4.31536
3.77 4.79714
3.78 5.21139
3.79 5.55388
3.8 5.80295
3.81 5.95784
3.82 6.01192
3.83 5.95921
3.84 5.81268
3.85 5.56289
3.86 5.23344
3.87 4.82847
3.88 4.36461
3.89 3.85859
3.9 3.32404
3.91 2.78008
3.92 2.24192
3.93 1.72403
3.94 1.23866
3.95 0.798742
3.96 0.406619
3.97 0.0762173
3.98 -0.198967
3.99 -0.414204
4 -0.573676
4.01 -0.684247
4.02 -0.747426
4.03 -0.776422
4.04 -0.77508
4.05 -0.754399
4.06 -0.721357
4.07 -0.683321
4.08 -0.646295
4.09 -0.615979
4.1 -0.594832
4.11 -0.585649
4.12 -0.58889
4.13 -0.60346
4.14 -0.628844
4.15 -0.661344
4.16 -0.698812
4.17 -0.737497
4.18 -0.774388
4.19 -0.806054
4.2 -0.830685
4.21 -0.844723
4.22 -0.848242
4.23 -0.839521
4.24 -0.818642
4.25 -0.786549
4.26 -0.742929
4.27 -0.690454
4.28 -0.629457
4.29 -0.562242
4.3 -0.490114
4.31 -0.414412
4.32 -0.336606
4.33 -0.257485
4.34 -0.178008
4.35 -0.0987052
4.36 -0.0200317
4.37 0.0577426
4.38 0.134161
4.39 0.209066
4.4 0.281767
4.41 0.351799
4.42 0.418351
4.43 0.480157
4.44 0.536668
4.45 0.585525
4.46 0.626479
4.47 0.657536
4.48 0.67761
4.49 0.686327
4.5 0.681558
4.51 0.664764
4.52 0.634416
4.53 0.592167
4.54 0.538688
4.55 0.474959
4.56 0.40357
4.57 0.325458
4.58 0.243686
4.59 0.160065
4.6 0.076939
4.61 -0.00391873
4.62 -0.0802767
4.63 -0.151422
4.64 -0.215616
4.65 -0.272834
4.66 -0.322802
4.67 -0.365438
4.68 -0.402016
4.69 -0.432463
4.7 -0.458654
4.71 -0.481292
4.72 -0.50164
4.73 -0.520737
4.74 -0.539412
4.75 -0.558327
4.76 -0.57792
4.77 -0.598272
4.78 -0.619283
4.79 -0.64062
4.8 -0.661804
4.81 -0.682133
4.82 -0.701103
4.83 -0.718014
4.84 -0.732374
4.85 -0.743996
4.86 -0.752375
4.87 -0.757989
4.88 -0.760737
4.89 -0.761309
4.9 -0.760219
4.91 -0.758152
4.92 -0.755861
4.93 -0.754109
4.94 -0.753439
4.95 -0.754422
4.96 -0.757374
4.97 -0.762312
4.98 -0.769393
4.99 -0.77809
5 -0.788183
5.01 -0.799018
5.02 -0.810062
5.03 -0.820686
5.04 -0.830467
5.05 -0.838807
5.06 -0.845656
5.07 -0.85081
5.08 -0.854403
5.09 -0.856741
5.1 -0.858094
5.11 -0.858996
5.12 -0.859823
5.13 -0.860914
5.14 -0.862412
5.15 -0.864226
5.16 -0.865961
5.17 -0.866746
5.18 -0.865593
5.19 -0.860899
5.2 -0.85082
5.21 -0.833827
5.22 -0.806704
5.23 -0.768838
5.24 -0.716818
5.25 -0.650147
5.26 -0.56756
5.27 -0.467737
5.28 -0.352688
5.29 -0.221018
5.3 -0.076894
5.31 0.0781428
5.32 0.240179
5.33 0.405149
5.34 0.568169
5.35 0.724863
5.36 0.869178
5.37 0.997073
5.38 1.10411
5.39 1.18498
5.4 1.23967
5.41 1.26142
5.42 1.25381
5.43 1.21446
5.44 1.14532
5.45 1.05007
5.46 0.929391
5.47 0.790628
5.48 0.636393
5.49 0.473281
5.5 0.306102
5.51 0.140395
5.52 -0.0196811
5.53 -0.1684
5.54 -0.303887
5.55 -0.422483
5.56 -0.522677
5.57 -0.604755
5.58 -0.66673
5.59 -0.71222
5.6 -0.740794
5.61 -0.756046
5.62 -0.760099
5.63 -0.755279
5.64 -0.744791
5.65 -0.730254
5.66 -0.714089
5.67 -0.697495
5.68 -0.681378
5.69 -0.665965
5.7 -0.651051
5.71 -0.635901
5.72 -0.619386
5.73 -0.600313
5.74 -0.577425
5.75 -0.549194
5.76 -0.51532
5.77 -0.474198
5.78 -0.426712
5.79 -0.37272
5.8 -0.313349
5.81 -0.250198
5.82 -0.184979
5.83 -0.120097
5.84 -0.0581687
5.85 -0.0015887
5.86 0.047291
5.87 0.0856503
5.88 0.112982
5.89 0.125985
5.9 0.125938
5.91 0.111678
5.92 0.0840571
5.93 0.0448373
5.94 -0.00546423
5.95 -0.0633681
5.96 -0.127385
5.97 -0.194428
5.98 -0.262227
5.99 -0.328273
6 -0.390975
6.01 -0.448031
6.02 -0.499188
6.03 -0.543476
6.04 -0.581047
6.05 -0.612743
6.06 -0.638934
6.07 -0.66156
6.08 -0.681673
6.09 -0.701033
6.1 -0.720956
6.11 -0.74281
6.12 -0.767187
6.13 -0.795058
6.14 -0.825986
6.15 -0.859833
6.16 -0.895679
6.17 -0.932378
6.18 -0.96845
6.19 -1.00255
6.2 -1.03285
6.21 -1.05826
6.22 -1.07771
6.23 -1.09012
6.24 -1.096
6.25 -1.09454
6.26 -1.08745
6.27 -1.07538
6.28 -1.05996
6.29 -1.04286
6.3 -1.0258
6.31 -1.01019
6.32 -0.997432
6.33 -0.987971
6.34 -0.981802
6.35 -0.978149
6.36 -0.975193
6.37 -0.970095
6.38 -0.959679
6.39 -0.939403
6.4 -0.904257
6.41 -0.850423
6.42 -0.769694
6.43 -0.661026
6.44 -0.516251
6.45 -0.334555
6.46 -0.113357
6.47 0.150363
6.48 0.451386
6.49 0.793055
6.5 1.16553
6.51 1.56546
6.52 1.98415
6.53 2.41241
6.54 2.83985
6.55 3.25632
6.56 3.64881
6.57 4.00776
6.58 4.32308
6.59 4.5821
6.6 4.78372
6.61 4.91153
6.62 4.9715
6.63 4.95631
6.64 4.86749
6.65 4.71153
6.66 4.48565
6.67 4.20571
6.68 3.87349
6.69 3.50311
6.7 3.10401
6.71 2.68693
6.72 2.26372
6.73 1.84527
6.74 1.44062
6.75 1.05921
6.76 0.708475
6.77 0.391779
6.78 0.117813
6.79 -0.117142
6.8 -0.307497
6.81 -0.457693
6.82 -0.569453
6.83 -0.644491
6.84 -0.690513
6.85 -0.708015
6.86 -0.705752
6.87 -0.686858
6.88 -0.656559
6.89 -0.619275
6.9 -0.578235
6.91 -0.536705
6.92 -0.496905
6.93 -0.460275
6.94 -0.42767
6.95 -0.399697
6.96 -0.375805
6.97 -0.356282
6.98 -0.340053
6.99 -0.326898
7 -0.316327
7.01 -0.307973
7.02 -0.302089
7.03 -0.298547
7.04 -0.298113
7.05 -0.301209
7.06 -0.308562
7.07 -0.321265
7.08 -0.339388
7.09 -0.364452
7.1 -0.395841
7.11 -0.434073
7.12 -0.478697
7.13 -0.528717
7.14 -0.583601
7.15 -0.64138
7.16 -0.700739
7.17 -0.759698
7.18 -0.816541
7.19 -0.869176
7.2 -0.916616
7.21 -0.95653
7.22 -0.988994
7.23 -1.01293
7.24 -1.02841
7.25 -1.03633
7.26 -1.03672
7.27 -1.03182
7.28 -1.02258
7.29 -1.01111
7.3 -0.999061
7.31 -0.988262
7.32 -0.979886
7.33 -0.975558
7.34 -0.975355
7.35 -0.979684
7.36 -0.98796
7.37 -0.998994
7.38 -1.01128
7.39 -1.02267
7.4 -1.03046
7.41 -1.03211
7.42 -1.02495
7.43 -1.00548
7.44 -0.972799
7.45 -0.922443
7.46 -0.855275
7.47 -0.76916
7.48 -0.664222
7.49 -0.542167
7.5 -0.402515
7.51 -0.249788
7.52 -0.0853346
7.53 0.0863472
7.54 0.26168
7.55 0.436225
7.56 0.606225
7.57 0.766247
7.58 0.913709
7.59 1.04421
7.6 1.1547
7.61 1.2442
7.62 1.3081
7.63 1.349
7.64 1.36373
7.65 1.35473
7.66 1.32288
7.67 1.26879
7.68 1.1968
7.69 1.10684
7.7 1.00407
7.71 0.890305
7.72 0.768893
7.73 0.642931
7.74 0.515069
7.75 0.388091
7.76 0.264644
7.77 0.146778
7.78 0.0363599
7.79 -0.0642876
7.8 -0.154921
7.81 -0.232571
7.82 -0.298033
7.83 -0.349708
7.84 -0.387301
7.85 -0.411511
7.86 -0.420789
7.87 -0.417596
7.88 -0.401126
7.89 -0.373476
7.9 -0.335869
7.91 -0.289645
7.92 -0.237544
7.93 -0.181126
7.94 -0.123396
7.95 -0.066731
7.96 -0.0139301
7.97 0.0329453
7.98 0.0704243
7.99 0.0977972
8 0.111992
8.01 0.112652
8.02 0.0989997
8.03 0.0700436
8.04 0.0278509
8.05 -0.0285746
8.06 -0.0957662
8.07 -0.172551
8.08 -0.256188
8.09 -0.343839
8.1 -0.432812
8.11 -0.520289
8.12 -0.603404
8.13 -0.680113
8.14 -0.748675
8.15 -0.807183
8.16 -0.856101
8.17 -0.893776
8.18 -0.922206
8.19 -0.9417
8.2 -0.953942
8.21 -0.960968
8.22 -0.964293
8.23 -0.966217
8.24 -0.96829
8.25 -0.971853
8.26 -0.977628
8.27 -0.985875
8.28 -0.995778
8.29 -1.00607
8.3 -1.01456
8.31 -1.0184
8.32 -1.01399
8.33 -0.998443
8.34 -0.965823
8.35 -0.914769
8.36 -0.839228
8.37 -0.737776
8.38 -0.608136
8.39 -0.4472
8.4 -0.258229
8.41 -0.0378776
8.42 0.207353
8.43 0.475781
8.44 0.7619
8.45 1.05927
8.46 1.36155
8.47 1.66096
8.48 1.94911
8.49 2.21864
8.5 2.46244
8.51 2.67129
8.52 2.84356
8.53 2.96783
8.54 3.04685
8.55 3.07523
8.56 3.05283
8.57 2.98369
8.58 2.8646
8.59 2.70615
8.6 2.50866
8.61 2.28126
8.62 2.03009
8.63 1.76176
8.64 1.48476
8.65 1.20567
8.66 0.931426
8.67 0.668224
8.68 0.421577
8.69 0.194253
8.7 -0.00766415
8.71 -0.185789
8.72 -0.336223
8.73 -0.461095
8.74 -0.5613
8.75 -0.637456
8.76 -0.694456
8.77 -0.732476
8.78 -0.757166
8.79 -0.770683
8.8 -0.776557
8.81 -0.777926
8.82 -0.777186
8.83 -0.776707
8.84 -0.778277
8.85 -0.78301
8.86 -0.791584
8.87 -0.804522
8.88 -0.82122
8.89 -0.841765
8.9 -0.864948
8.91 -0.890127
8.92 -0.916271
8.93 -0.942484
8.94 -0.9678
8.95 -0.991661
8.96 -1.01332
8.97 -1.03257
8.98 -1.04924
8.99 -1.06323
9 -1.07501
9.01 -1.08459
9.02 -1.09264
9.03 -1.0995
9.04 -1.10564
9.05 -1.11144
9.06 -1.11714
9.07 -1.12289
9.08 -1.12864
9.09 -1.13416
9.1 -1.13908
9.11 -1.14271
9.12 -1.14456
9.13 -1.14338
9.14 -1.13865
9.15 -1.1292
9.16 -1.11408
9.17 -1.09288
9.18 -1.06402
9.19 -1.02806
9.2 -0.983871
9.21 -0.932027
9.22 -0.872803
9.23 -0.806449
9.24 -0.734606
9.25 -0.657772
9.26 -0.578096
9.27 -0.497034
9.28 -0.416636
9.29 -0.338636
9.3 -0.265624
9.31 -0.198733
9.32 -0.140539
9.33 -0.0920334
9.34 -0.0543744
9.35 -0.0291796
9.36 -0.0154673
9.37 -0.0150792
9.38 -0.0258466
9.39 -0.0477145
9.4 -0.0792153
9.41 -0.118265
9.42 -0.16369
9.43 -0.21261
9.44 -0.263219
9.45 -0.313145
9.46 -0.360493
9.47 -0.403078
9.48 -0.440058
9.49 -0.46928
9.5 -0.491043
9.51 -0.504583
9.52 -0.510182
9.53 -0.508929
9.54 -0.501086
9.55 -0.488856
9.56 -0.473316
9.57 -0.456479
9.58 -0.439955
9.59 -0.425616
9.6 -0.414564
9.61 -0.408698
9.62 -0.40826
9.63 -0.414162
9.64 -0.42655
9.65 -0.444831
9.66 -0.469184
9.67 -0.497984
9.68 -0.530726
9.69 -0.565935
9.7 -0.602509
9.71 -0.639259
9.72 -0.675242
9.73 -0.709413
9.74 -0.741401
9.75 -0.770706
9.76 -0.797192
9.77 -0.821087
9.78 -0.842236
9.79 -0.861215
9.8 -0.877895
9.81 -0.892392
9.82 -0.904408
9.83 -0.913008
9.84 -0.917536
9.85 -0.915511
9.86 -0.905596
9.87 -0.884678
9.88 -0.84949
9.89 -0.797936
9.9 -0.723783
9.91 -0.62685
9.92 -0.500977
9.93 -0.345193
9.94 -0.157505
9.95 0.065505
9.96 0.320074
9.97 0.610124
9.98 0.928835
9.99 1.27471
10 1.64228
10.01 2.02461
10.02 2.41544
10.03 2.80592
10.04 3.18714
10.05 3.55041
10.06 3.88755
10.07 4.18744
10.08 4.44729
10.09 4.65329
10.1 4.80696
10.11 4.90098
10.12 4.93334
10.13 4.90779
10.14 4.81814
10.15 4.67639
10.16 4.48103
10.17 4.24207
10.18 3.96627
10.19 3.66028
10.2 3.33521
10.21 2.99765
10.22 2.65764
10.23 2.32263
10.24 2.00033
10.25 1.69539
10.26 1.4158
10.27 1.16146
10.28 0.937751
10.29 0.743595
10.3 0.57866
10.31 0.443207
10.32 0.331755
10.33 0.24464
10.34 0.175135
10.35 0.120664
10.36 0.0768297
10.37 0.0394431
10.38 0.00531326
10.39 -0.0289726
10.4 -0.0660245
10.41 -0.107654
10.42 -0.155018
10.43 -0.209178
10.44 -0.269391
10.45 -0.336056
10.46 -0.407418
10.47 -0.482575
10.48 -0.559899
10.49 -0.637802
10.5 -0.714506
10.51 -0.788695
10.52 -0.858604
10.53 -0.923227
10.54 -0.981626
10.55 -1.03252
10.56 -1.07624
10.57 -1.11129
10.58 -1.1386
10.59 -1.15767
10.6 -1.16869
10.61 -1.17244
10.62 -1.16831
10.63 -1.15781
10.64 -1.14062
10.65 -1.1177
10.66 -1.08959
10.67 -1.05661
10.68 -1.01989
10.69 -0.979633
10.7 -0.937041
10.71 -0.89276
10.72 -0.847758
10.73 -0.802925
10.74 -0.759392
10.75 -0.717912
10.76 -0.679718
10.77 -0.645548
10.78 -0.616162
10.79 -0.592679
10.8 -0.574955
10.81 -0.564356
10.82 -0.560218
10.83 -0.563008
10.84 -0.572537
10.85 -0.588037
10.86 -0.609738
10.87 -0.63613
10.88 -0.666981
10.89 -0.701084
10.9 -0.737575
10.91 -0.775562
10.92 -0.814039
10.93 -0.852122
10.94 -0.889067
10.95 -0.924133
10.96 -0.956695
10.97 -0.986514
10.98 -1.01284
10.99 -1.03596
11 -1.05542
11.01 -1.07151
11.02 -1.08435
11.03 -1.09402
11.04 -1.10117
11.05 -1.10584
11.06 -1.1088
11.07 -1.11041
11.08 -1.11125
11.09 -1.11184
11.1 -1.11273
11.11 -1.11431
11.12 -1.11708
11.13 -1.12125
11.14 -1.12693
11.15 -1.13417
11.16 -1.14257
11.17 -1.15173
11.18 -1.16078
11.19 -1.16867
11.2 -1.17392
11.21 -1.17525
11.22 -1.16995
11.23 -1.15695
11.24 -1.13306
11.25 -1.09657
11.26 -1.04548
11.27 -0.976465
11.28 -0.889929
11.29 -0.781546
11.3 -0.653103
11.31 -0.502992
11.32 -0.33164
11.33 -0.141532
11.34 0.0677683
11.35 0.290964
11.36 0.526223
11.37 0.768457
11.38 1.01331
11.39 1.25525
11.4 1.48974
11.41 1.70961
11.42 1.91135
11.43 2.08902
11.44 2.2378
11.45 2.35636
11.46 2.43715
11.47 2.48371
11.48 2.49103
11.49 2.46187
11.5 2.3976
11.51 2.29847
11.52 2.1714
11.53 2.01645
11.54 1.84172
11.55 1.65076
11.56 1.44926
11.57 1.24266
11.58 1.036
11.59 0.833696
11.6 0.640413
11.61 0.459111
11.62 0.292125
11.63 0.142407
11.64 0.0088282
11.65 -0.105953
11.66 -0.204862
11.67 -0.288081
11.68 -0.357502
11.69 -0.415988
11.7 -0.464648
11.71 -0.507144
11.72 -0.54505
11.73 -0.58081
11.74 -0.616028
11.75 -0.652133
11.76 -0.689784
11.77 -0.729593
11.78 -0.771125
11.79 -0.813876
11.8 -0.856704
11.81 -0.898354
11.82 -0.936761
11.83 -0.970639
11.84 -0.997519
11.85 -1.01588
11.86 -1.02417
11.87 -1.01996
11.88 -1.00353
11.89 -0.97192
11.9 -0.92641
11.91 -0.865937
11.92 -0.790713
11.93 -0.702335
11.94 -0.600071
11.95 -0.487192
11.96 -0.364132
11.97 -0.233582
11.98 -0.097621
11.99 0.0414596
12 0.181012
12.01 0.31826
12.02 0.45087
12.03 0.576109
12.04 0.691316
12.05 0.795182
12.06 0.88377
12.07 0.957598
12.08 1.01349
12.09 1.05152
12.1 1.07129
12.11 1.07142
12.12 1.05449
12.13 1.01877
12.14 0.967858
12.15 0.902412
12.16 0.824644
12.17 0.737536
12.18 0.642669
12.19 0.543688
12.2 0.442801
12.21 0.342806
12.22 0.245874
12.23 0.154527
12.24 0.0696561
12.25 -0.00636492
12.26 -0.0738514
12.27 -0.132033
12.28 -0.181147
12.29 -0.222469
12.3 -0.256131
12.31 -0.284577
12.32 -0.308834
12.33 -0.330971
12.34 -0.352583
12.35 -0.375394
12.36 -0.40048
12.37 -0.429276
12.38 -0.461893
12.39 -0.498644
12.4 -0.539091
12.41 -0.582157
