# xPDFsuite Configuration #
[PDF]
wavelength = 0.1432
dataformat = twotheta
inputfile = 1_1Pd_CeO2_cycle-00284.chi
backgroundfile = background-00000.chi
mode = xray
bgscale = 1.007
composition = CeO2
outputtype = gr
qmaxinst = 28.8974762299
qmin = 0.5
qmax = 27.9
rmax = 50.0
rmin = 0.0
rstep = 0.01
rpoly = 1.8657

[Misc]
inputdir = G:/SankarDec16/1Pd/Chi
savedir = D:/DATA/APS_CeO2/1Pd
backgroundfilefull = G:/SankarDec16/Background/background-00000.chi

#### start data
#S 1
#L r($\AA$)  G($\AA^{-2}$)
0 0
0.01 -0.00739263
0.02 -0.014229
0.03 -0.0199363
0.04 -0.024083
0.05 -0.0264287
0.06 -0.0265871
0.07 -0.0248147
0.08 -0.0209866
0.09 -0.0155928
0.1 -0.00897211
0.11 -0.00164345
0.12 0.00582631
0.13 0.0128021
0.14 0.0188322
0.15 0.0233649
0.16 0.0260758
0.17 0.0268344
0.18 0.0253759
0.19 0.0220766
0.2 0.0169493
0.21 0.0105649
0.22 0.00334484
0.23 -0.00412843
0.24 -0.0113205
0.25 -0.0175471
0.26 -0.0224821
0.27 -0.0256206
0.28 -0.0267605
0.29 -0.0258877
0.3 -0.0228714
0.31 -0.0181907
0.32 -0.0119951
0.33 -0.00491067
0.34 0.00257854
0.35 0.00985304
0.36 0.0164361
0.37 0.0216262
0.38 0.025238
0.39 0.0268374
0.4 0.0263544
0.41 0.0238922
0.42 0.0194606
0.43 0.0136193
0.44 0.00664834
0.45 -0.000800345
0.46 -0.00820242
0.47 -0.0149299
0.48 -0.0205866
0.49 -0.0244864
0.5 -0.0265938
0.51 -0.0265664
0.52 -0.0244699
0.53 -0.0205205
0.54 -0.0148691
0.55 -0.00813012
0.56 -0.000701437
0.57 0.00676909
0.58 0.0137416
0.59 0.0196087
0.6 0.0240736
0.61 0.026498
0.62 0.0269987
0.63 0.0253414
0.64 0.0217252
0.65 0.0164699
0.66 0.00986125
0.67 0.0025399
0.68 -0.00499657
0.69 -0.0121343
0.7 -0.0183433
0.71 -0.0230649
0.72 -0.0261162
0.73 -0.0269366
0.74 -0.02579
0.75 -0.0225614
0.76 -0.0175741
0.77 -0.0112364
0.78 -0.00395487
0.79 0.00363374
0.8 0.0109571
0.81 0.0174644
0.82 0.0226622
0.83 0.0260678
0.84 0.0276215
0.85 0.0268686
0.86 0.0242067
0.87 0.0196454
0.88 0.0136156
0.89 0.00659152
0.9 -0.000921962
0.91 -0.00832772
0.92 -0.0150141
0.93 -0.0205268
0.94 -0.0244427
0.95 -0.0263914
0.96 -0.0264459
0.97 -0.0243029
0.98 -0.0204758
0.99 -0.0151184
1 -0.00875707
1.01 -0.00191303
1.02 0.00481729
1.03 0.0109198
1.04 0.0157616
1.05 0.0190276
1.06 0.0203974
1.07 0.019653
1.08 0.0170299
1.09 0.0124281
1.1 0.00649583
1.11 -0.000421812
1.12 -0.00767058
1.13 -0.0146584
1.14 -0.0206317
1.15 -0.0251637
1.16 -0.02752
1.17 -0.0275204
1.18 -0.0249024
1.19 -0.0195479
1.2 -0.011876
1.21 -0.00188529
1.22 0.00956909
1.23 0.0219986
1.24 0.0345852
1.25 0.0466132
1.26 0.0571511
1.27 0.0657272
1.28 0.0714322
1.29 0.074064
1.3 0.0732743
1.31 0.068849
1.32 0.0612509
1.33 0.050276
1.34 0.0368961
1.35 0.0214701
1.36 0.00481718
1.37 -0.0123217
1.38 -0.029128
1.39 -0.0449634
1.4 -0.0590065
1.41 -0.0708711
1.42 -0.0801219
1.43 -0.0863916
1.44 -0.0898935
1.45 -0.0902057
1.46 -0.0879847
1.47 -0.0832605
1.48 -0.076497
1.49 -0.0681465
1.5 -0.0585189
1.51 -0.0481593
1.52 -0.0373578
1.53 -0.0264782
1.54 -0.0157539
1.55 -0.00539549
1.56 0.00452161
1.57 0.0138321
1.58 0.0225831
1.59 0.0306901
1.6 0.0381364
1.61 0.044901
1.62 0.0508166
1.63 0.0558795
1.64 0.059805
1.65 0.0625031
1.66 0.0637474
1.67 0.0632602
1.68 0.0610541
1.69 0.0566757
1.7 0.0503827
1.71 0.0420046
1.72 0.0317279
1.73 0.0198297
1.74 0.00650151
1.75 -0.00768688
1.76 -0.0223445
1.77 -0.0368904
1.78 -0.0508213
1.79 -0.0635575
1.8 -0.0748256
1.81 -0.0839765
1.82 -0.0911108
1.83 -0.0959586
1.84 -0.0986696
1.85 -0.0995373
1.86 -0.0987746
1.87 -0.0970344
1.88 -0.09476
1.89 -0.092593
1.9 -0.0910623
1.91 -0.0907379
1.92 -0.0918423
1.93 -0.0948946
1.94 -0.0996636
1.95 -0.106186
1.96 -0.114063
1.97 -0.122785
1.98 -0.131701
1.99 -0.14007
2 -0.146946
2.01 -0.151612
2.02 -0.153283
2.03 -0.151112
2.04 -0.145035
2.05 -0.134021
2.06 -0.118713
2.07 -0.0988274
2.08 -0.0748697
2.09 -0.0474984
2.1 -0.017122
2.11 0.015141
2.12 0.0486919
2.13 0.0826135
2.14 0.116271
2.15 0.149061
2.16 0.180754
2.17 0.211003
2.18 0.240102
2.19 0.26822
2.2 0.295867
2.21 0.323576
2.22 0.352048
2.23 0.381731
2.24 0.41329
2.25 0.44685
2.26 0.482494
2.27 0.520002
2.28 0.558652
2.29 0.597565
2.3 0.63546
2.31 0.670741
2.32 0.70164
2.33 0.726694
2.34 0.743226
2.35 0.750785
2.36 0.746663
2.37 0.730836
2.38 0.702477
2.39 0.661054
2.4 0.608364
2.41 0.543734
2.42 0.470556
2.43 0.390105
2.44 0.305274
2.45 0.218767
2.46 0.133659
2.47 0.0524116
2.48 -0.0217019
2.49 -0.0870058
2.5 -0.141643
2.51 -0.183911
2.52 -0.214613
2.53 -0.231954
2.54 -0.238725
2.55 -0.235322
2.56 -0.224094
2.57 -0.207471
2.58 -0.187724
2.59 -0.167668
2.6 -0.149849
2.61 -0.136309
2.62 -0.128803
2.63 -0.128943
2.64 -0.136533
2.65 -0.152891
2.66 -0.176159
2.67 -0.205894
2.68 -0.240241
2.69 -0.277281
2.7 -0.314967
2.71 -0.351266
2.72 -0.383946
2.73 -0.411631
2.74 -0.433045
2.75 -0.447119
2.76 -0.454429
2.77 -0.454236
2.78 -0.44852
2.79 -0.438072
2.8 -0.424813
2.81 -0.410574
2.82 -0.397435
2.83 -0.386961
2.84 -0.381165
2.85 -0.380859
2.86 -0.38683
2.87 -0.399515
2.88 -0.417883
2.89 -0.441852
2.9 -0.469227
2.91 -0.498616
2.92 -0.527849
2.93 -0.555079
2.94 -0.577874
2.95 -0.59523
2.96 -0.605053
2.97 -0.607203
2.98 -0.601324
2.99 -0.58756
3 -0.567622
3.01 -0.542227
3.02 -0.514125
3.03 -0.485278
3.04 -0.458254
3.05 -0.435074
3.06 -0.418512
3.07 -0.409255
3.08 -0.409451
3.09 -0.418743
3.1 -0.437108
3.11 -0.463889
3.12 -0.496833
3.13 -0.534608
3.14 -0.574081
3.15 -0.612818
3.16 -0.64801
3.17 -0.677624
3.18 -0.698773
3.19 -0.711256
3.2 -0.713199
3.21 -0.705656
3.22 -0.689309
3.23 -0.665698
3.24 -0.637692
3.25 -0.607827
3.26 -0.579514
3.27 -0.556054
3.28 -0.540591
3.29 -0.535131
3.3 -0.543006
3.31 -0.5635
3.32 -0.598452
3.33 -0.645692
3.34 -0.703711
3.35 -0.769875
3.36 -0.840203
3.37 -0.910821
3.38 -0.977491
3.39 -1.03578
3.4 -1.08185
3.41 -1.11346
3.42 -1.12654
3.43 -1.1226
3.44 -1.09965
3.45 -1.06096
3.46 -1.00885
3.47 -0.947024
3.48 -0.880668
3.49 -0.814884
3.5 -0.754768
3.51 -0.705635
3.52 -0.671683
3.53 -0.654954
3.54 -0.659116
3.55 -0.681179
3.56 -0.721241
3.57 -0.773449
3.58 -0.832384
3.59 -0.889805
3.6 -0.937819
3.61 -0.96358
3.62 -0.960209
3.63 -0.91534
3.64 -0.820248
3.65 -0.670394
3.66 -0.453308
3.67 -0.175037
3.68 0.172724
3.69 0.580919
3.7 1.04501
3.71 1.55724
3.72 2.102
3.73 2.66859
3.74 3.23808
3.75 3.79407
3.76 4.3182
3.77 4.79656
3.78 5.20606
3.79 5.54277
3.8 5.78518
3.81 5.93292
3.82 5.9797
3.83 5.91998
3.84 5.76706
3.85 5.51205
3.86 5.17875
3.87 4.77169
3.88 4.30768
3.89 3.80345
3.9 3.27285
3.91 2.73461
3.92 2.20395
3.93 1.69484
3.94 1.21919
3.95 0.789475
3.96 0.407533
3.97 0.0867268
3.98 -0.17983
3.99 -0.387904
4 -0.542012
4.01 -0.649154
4.02 -0.711209
4.03 -0.741092
4.04 -0.742798
4.05 -0.726906
4.06 -0.700116
4.07 -0.669405
4.08 -0.640245
4.09 -0.617859
4.1 -0.604209
4.11 -0.601598
4.12 -0.610073
4.13 -0.628311
4.14 -0.655368
4.15 -0.687715
4.16 -0.722981
4.17 -0.757729
4.18 -0.789149
4.19 -0.814115
4.2 -0.831314
4.21 -0.837581
4.22 -0.833502
4.23 -0.817815
4.24 -0.791038
4.25 -0.754375
4.26 -0.707965
4.27 -0.654394
4.28 -0.594266
4.29 -0.529653
4.3 -0.46173
4.31 -0.391613
4.32 -0.320324
4.33 -0.248363
4.34 -0.176184
4.35 -0.103919
4.36 -0.0316083
4.37 0.0407556
4.38 0.113135
4.39 0.185363
4.4 0.257023
4.41 0.327499
4.42 0.39591
4.43 0.460838
4.44 0.521367
4.45 0.574934
4.46 0.62085
4.47 0.656804
4.48 0.681353
4.49 0.693879
4.5 0.691906
4.51 0.676872
4.52 0.647025
4.53 0.604118
4.54 0.548876
4.55 0.482398
4.56 0.407563
4.57 0.325479
4.58 0.239561
4.59 0.15188
4.6 0.0650627
4.61 -0.0189197
4.62 -0.0975581
4.63 -0.170132
4.64 -0.234728
4.65 -0.291414
4.66 -0.339968
4.67 -0.380413
4.68 -0.41426
4.69 -0.441578
4.7 -0.464518
4.71 -0.483984
4.72 -0.501449
4.73 -0.518086
4.74 -0.53491
4.75 -0.552561
4.76 -0.571565
4.77 -0.591893
4.78 -0.613363
4.79 -0.635502
4.8 -0.657642
4.81 -0.678893
4.82 -0.69857
4.83 -0.715789
4.84 -0.729917
4.85 -0.740705
4.86 -0.747532
4.87 -0.750985
4.88 -0.750964
4.89 -0.748344
4.9 -0.743802
4.91 -0.738249
4.92 -0.732659
4.93 -0.728103
4.94 -0.725285
4.95 -0.725034
4.96 -0.727822
4.97 -0.733711
4.98 -0.743036
4.99 -0.75507
5 -0.769634
5.01 -0.785807
5.02 -0.80286
5.03 -0.819894
5.04 -0.836176
5.05 -0.850765
5.06 -0.86334
5.07 -0.873373
5.08 -0.880751
5.09 -0.885662
5.1 -0.888088
5.11 -0.888715
5.12 -0.887763
5.13 -0.885793
5.14 -0.883082
5.15 -0.879729
5.16 -0.875674
5.17 -0.870275
5.18 -0.8629
5.19 -0.852229
5.2 -0.836713
5.21 -0.81501
5.22 -0.784209
5.23 -0.743684
5.24 -0.690233
5.25 -0.62327
5.26 -0.5415
5.27 -0.44354
5.28 -0.33116
5.29 -0.202894
5.3 -0.06261
5.31 0.0883151
5.32 0.246189
5.33 0.407114
5.34 0.5664
5.35 0.719746
5.36 0.861238
5.37 0.986841
5.38 1.09214
5.39 1.1718
5.4 1.22574
5.41 1.24718
5.42 1.23955
5.43 1.20043
5.44 1.13167
5.45 1.03689
5.46 0.916732
5.47 0.778505
5.48 0.624822
5.49 0.462292
5.5 0.295761
5.51 0.130817
5.52 -0.0283439
5.53 -0.175915
5.54 -0.310013
5.55 -0.426931
5.56 -0.525155
5.57 -0.605001
5.58 -0.664497
5.59 -0.707359
5.6 -0.733228
5.61 -0.745816
5.62 -0.747361
5.63 -0.740334
5.64 -0.728018
5.65 -0.712222
5.66 -0.695377
5.67 -0.678794
5.68 -0.663405
5.69 -0.649396
5.7 -0.636603
5.71 -0.624125
5.72 -0.610794
5.73 -0.595243
5.74 -0.576075
5.75 -0.551593
5.76 -0.521347
5.77 -0.483531
5.78 -0.438935
5.79 -0.387267
5.8 -0.329568
5.81 -0.267422
5.82 -0.202436
5.83 -0.137136
5.84 -0.0741068
5.85 -0.0158785
5.86 0.0351078
5.87 0.0759223
5.88 0.105907
5.89 0.121648
5.9 0.124292
5.91 0.11257
5.92 0.087241
5.93 0.0500211
5.94 0.00134553
5.95 -0.0552705
5.96 -0.118373
5.97 -0.184819
5.98 -0.2523
5.99 -0.318262
6 -0.381037
6.01 -0.438286
6.02 -0.489688
6.03 -0.534237
6.04 -0.572057
6.05 -0.603976
6.06 -0.630361
6.07 -0.65317
6.08 -0.673476
6.09 -0.693068
6.1 -0.713289
6.11 -0.73554
6.12 -0.760421
6.13 -0.788927
6.14 -0.820595
6.15 -0.855272
6.16 -0.891995
6.17 -0.929568
6.18 -0.966434
6.19 -1.00119
6.2 -1.03193
6.21 -1.05749
6.22 -1.07676
6.23 -1.0886
6.24 -1.09355
6.25 -1.09075
6.26 -1.082
6.27 -1.06799
6.28 -1.05047
6.29 -1.03121
6.3 -1.01206
6.31 -0.994577
6.32 -0.980318
6.33 -0.969827
6.34 -0.963208
6.35 -0.959803
6.36 -0.957761
6.37 -0.954357
6.38 -0.946273
6.39 -0.928942
6.4 -0.897218
6.41 -0.847119
6.42 -0.770278
6.43 -0.665451
6.44 -0.524261
6.45 -0.345724
6.46 -0.127103
6.47 0.134795
6.48 0.434745
6.49 0.776258
6.5 1.14935
6.51 1.55065
6.52 1.97133
6.53 2.40199
6.54 2.83208
6.55 3.25118
6.56 3.64604
6.57 4.00686
6.58 4.32337
6.59 4.58265
6.6 4.78358
6.61 4.90956
6.62 4.96671
6.63 4.94769
6.64 4.85422
6.65 4.69303
6.66 4.46155
6.67 4.176
6.68 3.83848
6.69 3.46342
6.7 3.06058
6.71 2.64105
6.72 2.21673
6.73 1.79891
6.74 1.39645
6.75 1.01891
6.76 0.673587
6.77 0.363571
6.78 0.097401
6.79 -0.129111
6.8 -0.310697
6.81 -0.452246
6.82 -0.555874
6.83 -0.623756
6.84 -0.66381
6.85 -0.677048
6.86 -0.672199
6.87 -0.652637
6.88 -0.623573
6.89 -0.589235
6.9 -0.55285
6.91 -0.517189
6.92 -0.484262
6.93 -0.455015
6.94 -0.429906
6.95 -0.409062
6.96 -0.391599
6.97 -0.377273
6.98 -0.36488
6.99 -0.353877
7 -0.343671
7.01 -0.33398
7.02 -0.324944
7.03 -0.316863
7.04 -0.310611
7.05 -0.307066
7.06 -0.30732
7.07 -0.312912
7.08 -0.324294
7.09 -0.343495
7.1 -0.370129
7.11 -0.405072
7.12 -0.448062
7.13 -0.498094
7.14 -0.554834
7.15 -0.615959
7.16 -0.680128
7.17 -0.744951
7.18 -0.808388
7.19 -0.867946
7.2 -0.922224
7.21 -0.968412
7.22 -1.00628
7.23 -1.03437
7.24 -1.05248
7.25 -1.06143
7.26 -1.06099
7.27 -1.05367
7.28 -1.04032
7.29 -1.02343
7.3 -1.00489
7.31 -0.98687
7.32 -0.970978
7.33 -0.959238
7.34 -0.952112
7.35 -0.9504
7.36 -0.953846
7.37 -0.961416
7.38 -0.971974
7.39 -0.983191
7.4 -0.992572
7.41 -0.997322
7.42 -0.994621
7.43 -0.980757
7.44 -0.954435
7.45 -0.910926
7.46 -0.850677
7.47 -0.771226
7.48 -0.672354
7.49 -0.555552
7.5 -0.419986
7.51 -0.270194
7.52 -0.107297
7.53 0.0641063
7.54 0.240383
7.55 0.417013
7.56 0.589945
7.57 0.753629
7.58 0.905128
7.59 1.03982
7.6 1.15437
7.61 1.24759
7.62 1.31461
7.63 1.35796
7.64 1.37427
7.65 1.36601
7.66 1.33405
7.67 1.279
7.68 1.20543
7.69 1.11329
7.7 1.008
7.71 0.891528
7.72 0.767425
7.73 0.638951
7.74 0.508959
7.75 0.380307
7.76 0.255801
7.77 0.137501
7.78 0.0272976
7.79 -0.072481
7.8 -0.161717
7.81 -0.237464
7.82 -0.300702
7.83 -0.349944
7.84 -0.385055
7.85 -0.406873
7.86 -0.414021
7.87 -0.409045
7.88 -0.391291
7.89 -0.362903
7.9 -0.325155
7.91 -0.279441
7.92 -0.228423
7.93 -0.173708
7.94 -0.118153
7.95 -0.0640876
7.96 -0.0141903
7.97 0.0296012
7.98 0.0639349
7.99 0.0882289
8 0.0995459
8.01 0.0976312
8.02 0.0818034
8.03 0.0511863
8.04 0.00784936
8.05 -0.0490708
8.06 -0.116172
8.07 -0.192237
8.08 -0.274557
8.09 -0.360366
8.1 -0.446974
8.11 -0.531707
8.12 -0.611743
8.13 -0.685162
8.14 -0.750319
8.15 -0.805414
8.16 -0.851004
8.17 -0.885553
8.18 -0.911114
8.19 -0.928083
8.2 -0.938197
8.21 -0.943501
8.22 -0.94558
8.23 -0.946664
8.24 -0.948337
8.25 -0.951867
8.26 -0.957935
8.27 -0.966756
8.28 -0.977426
8.29 -0.988635
8.3 -0.998124
8.31 -1.00299
8.32 -0.999608
8.33 -0.985059
8.34 -0.953394
8.35 -0.903269
8.36 -0.828657
8.37 -0.728171
8.38 -0.599582
8.39 -0.439844
8.4 -0.252252
8.41 -0.0335395
8.42 0.20979
8.43 0.476019
8.44 0.759648
8.45 1.05428
8.46 1.3536
8.47 1.64994
8.48 1.93498
8.49 2.2015
8.5 2.44251
8.51 2.64894
8.52 2.81923
8.53 2.94218
8.54 3.02052
8.55 3.04896
8.56 3.0274
8.57 2.95979
8.58 2.84295
8.59 2.68728
8.6 2.49301
8.61 2.26904
8.62 2.02136
8.63 1.75634
8.64 1.48233
8.65 1.20562
8.66 0.933106
8.67 0.670816
8.68 0.42421
8.69 0.196107
8.7 -0.00744585
8.71 -0.187832
8.72 -0.341052
8.73 -0.468972
8.74 -0.572253
8.75 -0.651216
8.76 -0.710546
8.77 -0.750063
8.78 -0.775315
8.79 -0.788238
8.8 -0.792273
8.81 -0.790618
8.82 -0.78559
8.83 -0.77987
8.84 -0.775358
8.85 -0.773527
8.86 -0.775365
8.87 -0.781795
8.88 -0.792527
8.89 -0.808141
8.9 -0.827614
8.91 -0.850648
8.92 -0.876399
8.93 -0.903944
8.94 -0.932535
8.95 -0.961231
8.96 -0.98926
8.97 -1.01598
8.98 -1.04088
8.99 -1.06339
9 -1.08355
9.01 -1.1008
9.02 -1.11549
9.03 -1.12749
9.04 -1.13696
9.05 -1.1442
9.06 -1.1491
9.07 -1.15214
9.08 -1.15318
9.09 -1.15241
9.1 -1.14977
9.11 -1.14501
9.12 -1.13814
9.13 -1.12845
9.14 -1.11589
9.15 -1.09977
9.16 -1.07957
9.17 -1.05506
9.18 -1.02508
9.19 -0.989991
9.2 -0.948816
9.21 -0.901807
9.22 -0.848966
9.23 -0.790211
9.24 -0.726637
9.25 -0.658296
9.26 -0.586805
9.27 -0.513133
9.28 -0.438867
9.29 -0.365502
9.3 -0.295135
9.31 -0.229041
9.32 -0.169545
9.33 -0.117889
9.34 -0.0754259
9.35 -0.0440203
9.36 -0.0231989
9.37 -0.0151514
9.38 -0.0182451
9.39 -0.0328671
9.4 -0.0580076
9.41 -0.091856
9.42 -0.133717
9.43 -0.180661
9.44 -0.23116
9.45 -0.282681
9.46 -0.333206
9.47 -0.380393
9.48 -0.422968
9.49 -0.458534
9.5 -0.486905
9.51 -0.506954
9.52 -0.518556
9.53 -0.522532
9.54 -0.518731
9.55 -0.509334
9.56 -0.495156
9.57 -0.478292
9.58 -0.460408
9.59 -0.443453
9.6 -0.428858
9.61 -0.418653
9.62 -0.413466
9.63 -0.414458
9.64 -0.42208
9.65 -0.435954
9.66 -0.456544
9.67 -0.482281
9.68 -0.512843
9.69 -0.546724
9.7 -0.5828
9.71 -0.619843
9.72 -0.656716
9.73 -0.692307
9.74 -0.726015
9.75 -0.757209
9.76 -0.785597
9.77 -0.811294
9.78 -0.834031
9.79 -0.854368
9.8 -0.872134
9.81 -0.887484
9.82 -0.900168
9.83 -0.909321
9.84 -0.914373
9.85 -0.912929
9.86 -0.903714
9.87 -0.883671
9.88 -0.849557
9.89 -0.799254
9.9 -0.726507
9.91 -0.631046
9.92 -0.50662
9.93 -0.352148
9.94 -0.165531
9.95 0.0567812
9.96 0.311062
9.97 0.601359
9.98 0.9208
9.99 1.2679
10 1.63708
10.01 2.02128
10.02 2.41411
10.03 2.8065
10.04 3.18931
10.05 3.55367
10.06 3.8912
10.07 4.19057
10.08 4.44896
10.09 4.6524
10.1 4.80251
10.11 4.89205
10.12 4.91914
10.13 4.88782
10.14 4.79213
10.15 4.64444
10.16 4.44359
10.17 4.19993
10.18 3.92051
10.19 3.61235
10.2 3.28659
10.21 2.95019
10.22 2.61297
10.23 2.28243
10.24 1.96607
10.25 1.66822
10.26 1.39662
10.27 1.15065
10.28 0.935303
10.29 0.749021
10.3 0.591082
10.31 0.461266
10.32 0.353968
10.33 0.269052
10.34 0.199932
10.35 0.143921
10.36 0.0967667
10.37 0.0546108
10.38 0.014445
10.39 -0.0265769
10.4 -0.0706827
10.41 -0.119163
10.42 -0.172745
10.43 -0.23197
10.44 -0.2959
10.45 -0.364424
10.46 -0.435862
10.47 -0.509154
10.48 -0.582765
10.49 -0.65541
10.5 -0.72544
10.51 -0.792103
10.52 -0.853987
10.53 -0.910611
10.54 -0.961476
10.55 -1.00582
10.56 -1.04423
10.57 -1.07571
10.58 -1.10118
10.59 -1.12034
10.6 -1.13335
10.61 -1.14072
10.62 -1.1418
10.63 -1.13754
10.64 -1.12737
10.65 -1.11176
10.66 -1.09082
10.67 -1.06441
10.68 -1.03339
10.69 -0.997493
10.7 -0.957884
10.71 -0.914998
10.72 -0.869792
10.73 -0.823339
10.74 -0.776772
10.75 -0.731277
10.76 -0.688274
10.77 -0.648902
10.78 -0.614239
10.79 -0.585757
10.8 -0.563544
10.81 -0.5493
10.82 -0.542418
10.83 -0.543503
10.84 -0.55237
10.85 -0.568116
10.86 -0.590946
10.87 -0.619044
10.88 -0.652025
10.89 -0.68841
10.9 -0.727121
10.91 -0.767035
10.92 -0.807032
10.93 -0.846043
10.94 -0.883349
10.95 -0.918189
10.96 -0.950023
10.97 -0.978763
10.98 -1.0038
10.99 -1.02566
11 -1.04407
11.01 -1.05951
11.02 -1.07228
11.03 -1.08259
11.04 -1.09109
11.05 -1.09793
11.06 -1.10368
11.07 -1.10865
11.08 -1.11318
11.09 -1.11756
11.1 -1.12207
11.11 -1.12687
11.12 -1.13212
11.13 -1.13786
11.14 -1.14403
11.15 -1.15049
11.16 -1.15693
11.17 -1.16284
11.18 -1.16761
11.19 -1.17034
11.2 -1.16983
11.21 -1.1651
11.22 -1.15381
11.23 -1.13521
11.24 -1.10647
11.25 -1.06617
11.26 -1.0125
11.27 -0.942413
11.28 -0.85622
11.29 -0.749811
11.3 -0.62468
11.31 -0.479139
11.32 -0.313355
11.33 -0.129479
11.34 0.0732072
11.35 0.289784
11.36 0.518752
11.37 0.755317
11.38 0.995344
11.39 1.23357
11.4 1.46542
11.41 1.68394
11.42 1.88541
11.43 2.06383
11.44 2.21419
11.45 2.33489
11.46 2.41818
11.47 2.46728
11.48 2.47695
11.49 2.44972
11.5 2.38681
11.51 2.28829
11.52 2.16114
11.53 2.00534
11.54 1.82917
11.55 1.63629
11.56 1.4326
11.57 1.22379
11.58 1.01514
11.59 0.811294
11.6 0.617175
11.61 0.435885
11.62 0.269867
11.63 0.1222
11.64 -0.00837746
11.65 -0.119154
11.66 -0.213331
11.67 -0.291241
11.68 -0.35505
11.69 -0.407895
11.7 -0.451206
11.71 -0.488872
11.72 -0.522781
11.73 -0.555539
11.74 -0.588881
11.75 -0.624399
11.76 -0.662613
11.77 -0.704238
11.78 -0.748552
11.79 -0.794926
11.8 -0.841959
11.81 -0.888113
11.82 -0.931049
11.83 -0.969215
11.84 -0.999857
11.85 -1.02127
11.86 -1.03176
11.87 -1.02874
11.88 -1.01257
11.89 -0.980196
11.9 -0.933132
11.91 -0.870415
11.92 -0.79248
11.93 -0.701165
11.94 -0.59599
11.95 -0.480454
11.96 -0.355249
11.97 -0.223234
11.98 -0.086613
11.99 0.052169
12 0.190552
12.01 0.325666
12.02 0.455395
12.03 0.577105
12.04 0.68835
12.05 0.788056
12.06 0.87254
12.07 0.942551
12.08 0.995189
12.09 1.03071
12.1 1.04888
12.11 1.04849
12.12 1.03209
12.13 0.998102
12.14 0.949909
12.15 0.888141
12.16 0.814827
12.17 0.732712
12.18 0.643181
12.19 0.549588
12.2 0.453879
12.21 0.358603
12.22 0.265718
12.23 0.177473
12.24 0.0947261
12.25 0.019576
12.26 -0.048195
12.27 -0.107886
12.28 -0.159675
12.29 -0.204652
12.3 -0.242908
12.31 -0.276561
12.32 -0.306474
12.33 -0.334424
12.34 -0.36176
12.35 -0.389911
12.36 -0.41977
12.37 -0.452441
12.38 -0.487954
12.39 -0.526428
12.4 -0.567318
12.41 -0.609608
