# xPDFsuite Configuration #
[PDF]
wavelength = 0.1432
dataformat = twotheta
inputfile = 1_1Pd_CeO2_cycle-00442.chi
backgroundfile = background-00000.chi
mode = xray
bgscale = 1.007
composition = CeO2
outputtype = gr
qmaxinst = 28.8974762299
qmin = 0.5
qmax = 27.9
rmax = 50.0
rmin = 0.0
rstep = 0.01
rpoly = 1.8657

[Misc]
inputdir = G:/SankarDec16/1Pd/Chi
savedir = D:/DATA/APS_CeO2/1Pd
backgroundfilefull = G:/SankarDec16/Background/background-00000.chi

#### start data
#S 1
#L r($\AA$)  G($\AA^{-2}$)
0 0
0.01 -0.00437639
0.02 -0.00842265
0.03 -0.0117989
0.04 -0.0142492
0.05 -0.0156313
0.06 -0.0157164
0.07 -0.0146573
0.08 -0.0123809
0.09 -0.00917849
0.1 -0.00525197
0.11 -0.000909971
0.12 0.00351133
0.13 0.00763436
0.14 0.0111925
0.15 0.0138587
0.16 0.0154421
0.17 0.0158671
0.18 0.0149785
0.19 0.0130015
0.2 0.00994614
0.21 0.00615236
0.22 0.00187161
0.23 -0.0025495
0.24 -0.00679496
0.25 -0.0104582
0.26 -0.0133487
0.27 -0.0151687
0.28 -0.0158016
0.29 -0.0152419
0.3 -0.0134161
0.31 -0.0106106
0.32 -0.00691837
0.33 -0.00271154
0.34 0.00172116
0.35 0.00601175
0.36 0.0098799
0.37 0.0129098
0.38 0.0149966
0.39 0.015886
0.4 0.0155416
0.41 0.0140287
0.42 0.0113588
0.43 0.00786608
0.44 0.00372171
0.45 -0.000687712
0.46 -0.0050504
0.47 -0.00899471
0.48 -0.0122898
0.49 -0.0145311
0.5 -0.0157044
0.51 -0.0156118
0.52 -0.0142987
0.53 -0.0118984
0.54 -0.00850726
0.55 -0.00449095
0.56 -9.06689e-05
0.57 0.00431121
0.58 0.00839512
0.59 0.0118037
0.6 0.0143671
0.61 0.0157117
0.62 0.015915
0.63 0.0148452
0.64 0.0126279
0.65 0.00945796
0.66 0.00551229
0.67 0.00117039
0.68 -0.00326792
0.69 -0.00744277
0.7 -0.0110423
0.71 -0.0137401
0.72 -0.015436
0.73 -0.0158044
0.74 -0.0150108
0.75 -0.012995
0.76 -0.0099562
0.77 -0.00614056
0.78 -0.00179583
0.79 0.00270318
0.8 0.00701443
0.81 0.0108177
0.82 0.0138247
0.83 0.0157559
0.84 0.0165839
0.85 0.0160468
0.86 0.0143861
0.87 0.0116133
0.88 0.00798585
0.89 0.00378392
0.9 -0.000695756
0.91 -0.00510712
0.92 -0.00909722
0.93 -0.0124086
0.94 -0.0148035
0.95 -0.0160783
0.96 -0.0162828
0.97 -0.0152578
0.98 -0.0133027
0.99 -0.0105162
1 -0.00720211
1.01 -0.00365554
1.02 -0.000213022
1.03 0.00285096
1.04 0.00519664
1.05 0.00667577
1.06 0.00714209
1.07 0.00652171
1.08 0.00497891
1.09 0.00253834
1.1 -0.000419284
1.11 -0.00363212
1.12 -0.00670126
1.13 -0.00928227
1.14 -0.0109021
1.15 -0.0113762
1.16 -0.0102718
1.17 -0.00756808
1.18 -0.00317296
1.19 0.00289111
1.2 0.0102817
1.21 0.0188654
1.22 0.0280487
1.23 0.0373999
1.24 0.0463239
1.25 0.054319
1.26 0.0606622
1.27 0.0650993
1.28 0.066928
1.29 0.0660794
1.3 0.0623197
1.31 0.0555208
1.32 0.0460977
1.33 0.0339052
1.34 0.0197555
1.35 0.00395702
1.36 -0.0128013
1.37 -0.029891
1.38 -0.0465904
1.39 -0.0623397
1.4 -0.0763671
1.41 -0.0882868
1.42 -0.0976353
1.43 -0.103972
1.44 -0.107429
1.45 -0.107432
1.46 -0.10456
1.47 -0.098697
1.48 -0.0902264
1.49 -0.0795727
1.5 -0.0669718
1.51 -0.0530954
1.52 -0.038263
1.53 -0.0230412
1.54 -0.00784001
1.55 0.00688002
1.56 0.0208334
1.57 0.033512
1.58 0.0448357
1.59 0.054453
1.6 0.0622315
1.61 0.0681341
1.62 0.0718771
1.63 0.0737117
1.64 0.0733907
1.65 0.0711688
1.66 0.0670863
1.67 0.061227
1.68 0.053926
1.69 0.0451774
1.7 0.0354393
1.71 0.0248829
1.72 0.0138489
1.73 0.00263616
1.74 -0.00842592
1.75 -0.0190818
1.76 -0.0289943
1.77 -0.0380012
1.78 -0.0459208
1.79 -0.0526021
1.8 -0.0581469
1.81 -0.0624201
1.82 -0.0657421
1.83 -0.0682201
1.84 -0.0701608
1.85 -0.071864
1.86 -0.0736737
1.87 -0.0758772
1.88 -0.0788363
1.89 -0.0827239
1.9 -0.0877102
1.91 -0.0938986
1.92 -0.10112
1.93 -0.109355
1.94 -0.118169
1.95 -0.127229
1.96 -0.136013
1.97 -0.144039
1.98 -0.150577
1.99 -0.155287
2 -0.15736
2.01 -0.156566
2.02 -0.152501
2.03 -0.144794
2.04 -0.133737
2.05 -0.118819
2.06 -0.100809
2.07 -0.0797223
2.08 -0.0560926
2.09 -0.0304633
2.1 -0.00319143
2.11 0.0250518
2.12 0.0539406
2.13 0.0830622
2.14 0.112208
2.15 0.141271
2.16 0.170294
2.17 0.199457
2.18 0.229007
2.19 0.259312
2.2 0.290739
2.21 0.323545
2.22 0.358164
2.23 0.394466
2.24 0.432608
2.25 0.47212
2.26 0.512532
2.27 0.553007
2.28 0.592627
2.29 0.629837
2.3 0.663628
2.31 0.692229
2.32 0.714201
2.33 0.728556
2.34 0.733077
2.35 0.728141
2.36 0.711799
2.37 0.684839
2.38 0.6472
2.39 0.599208
2.4 0.542897
2.41 0.478565
2.42 0.409216
2.43 0.336423
2.44 0.262686
2.45 0.190109
2.46 0.121292
2.47 0.0575842
2.48 0.00141029
2.49 -0.0466381
2.5 -0.0856631
2.51 -0.115054
2.52 -0.136039
2.53 -0.14806
2.54 -0.153624
2.55 -0.153635
2.56 -0.150156
2.57 -0.145065
2.58 -0.140321
2.59 -0.137506
2.6 -0.138438
2.61 -0.143929
2.62 -0.154729
2.63 -0.171282
2.64 -0.192769
2.65 -0.219221
2.66 -0.248816
2.67 -0.280477
2.68 -0.312436
2.69 -0.343169
2.7 -0.370726
2.71 -0.394202
2.72 -0.411877
2.73 -0.423527
2.74 -0.428765
2.75 -0.427575
2.76 -0.421217
2.77 -0.41007
2.78 -0.396269
2.79 -0.381224
2.8 -0.366909
2.81 -0.354921
2.82 -0.347376
2.83 -0.344959
2.84 -0.349372
2.85 -0.360507
2.86 -0.378478
2.87 -0.402924
2.88 -0.432229
2.89 -0.465504
2.9 -0.500353
2.91 -0.534928
2.92 -0.566985
2.93 -0.594816
2.94 -0.615958
2.95 -0.629997
2.96 -0.635045
2.97 -0.631569
2.98 -0.619648
2.99 -0.599916
3 -0.574442
3.01 -0.544383
3.02 -0.512581
3.03 -0.481188
3.04 -0.452743
3.05 -0.429125
3.06 -0.413008
3.07 -0.404739
3.08 -0.406257
3.09 -0.416903
3.1 -0.436436
3.11 -0.463994
3.12 -0.49727
3.13 -0.534837
3.14 -0.573704
3.15 -0.611547
3.16 -0.645785
3.17 -0.674612
3.18 -0.695458
3.19 -0.708284
3.2 -0.71151
3.21 -0.706232
3.22 -0.693182
3.23 -0.673853
3.24 -0.650847
3.25 -0.626497
3.26 -0.603765
3.27 -0.58554
3.28 -0.574482
3.29 -0.57223
3.3 -0.581536
3.31 -0.601636
3.32 -0.633935
3.33 -0.67643
3.34 -0.727697
3.35 -0.785348
3.36 -0.845994
3.37 -0.906227
3.38 -0.962584
3.39 -1.01135
3.4 -1.04945
3.41 -1.07517
3.42 -1.08529
3.43 -1.08131
3.44 -1.06181
3.45 -1.02971
3.46 -0.987084
3.47 -0.937181
3.48 -0.88425
3.49 -0.832589
3.5 -0.786151
3.51 -0.749131
3.52 -0.724604
3.53 -0.713846
3.54 -0.719223
3.55 -0.737849
3.56 -0.768932
3.57 -0.807185
3.58 -0.847502
3.59 -0.882318
3.6 -0.905141
3.61 -0.904252
3.62 -0.874535
3.63 -0.80529
3.64 -0.689556
3.65 -0.524063
3.66 -0.298489
3.67 -0.0189696
3.68 0.321075
3.69 0.713062
3.7 1.15246
3.71 1.63188
3.72 2.13756
3.73 2.65949
3.74 3.18138
3.75 3.68868
3.76 4.16544
3.77 4.59978
3.78 4.97144
3.79 5.27752
3.8 5.49913
3.81 5.63628
3.82 5.68353
3.83 5.63597
3.84 5.50536
3.85 5.28349
3.86 4.99125
3.87 4.63215
3.88 4.22061
3.89 3.7711
3.9 3.2951
3.91 2.80921
3.92 2.32614
3.93 1.8584
3.94 1.41639
3.95 1.01111
3.96 0.644838
3.97 0.329327
3.98 0.0595323
3.99 -0.160325
4 -0.33336
4.01 -0.464963
4.02 -0.555851
4.03 -0.61679
4.04 -0.650333
4.05 -0.665384
4.06 -0.667337
4.07 -0.661813
4.08 -0.653892
4.09 -0.647519
4.1 -0.645183
4.11 -0.648848
4.12 -0.659041
4.13 -0.675166
4.14 -0.696665
4.15 -0.72124
4.16 -0.747127
4.17 -0.771892
4.18 -0.793428
4.19 -0.809332
4.2 -0.818652
4.21 -0.818808
4.22 -0.8103
4.23 -0.792037
4.24 -0.764369
4.25 -0.728223
4.26 -0.683575
4.27 -0.632544
4.28 -0.57551
4.29 -0.514206
4.3 -0.449606
4.31 -0.382661
4.32 -0.314351
4.33 -0.24516
4.34 -0.175654
4.35 -0.106091
4.36 -0.036686
4.37 0.0324296
4.38 0.101017
4.39 0.168895
4.4 0.235545
4.41 0.300461
4.42 0.362883
4.43 0.421615
4.44 0.47602
4.45 0.523931
4.46 0.564952
4.47 0.597194
4.48 0.619542
4.49 0.631547
4.5 0.631138
4.51 0.619551
4.52 0.595241
4.53 0.559622
4.54 0.513191
4.55 0.456701
4.56 0.392503
4.57 0.321245
4.58 0.245801
4.59 0.167724
4.6 0.0891787
4.61 0.0118682
4.62 -0.0621796
4.63 -0.132094
4.64 -0.196218
4.65 -0.254304
4.66 -0.305926
4.67 -0.350793
4.68 -0.389892
4.69 -0.422904
4.7 -0.451443
4.71 -0.475971
4.72 -0.497558
4.73 -0.517153
4.74 -0.53542
4.75 -0.553139
4.76 -0.570719
4.77 -0.588442
4.78 -0.60637
4.79 -0.624393
4.8 -0.642273
4.81 -0.659587
4.82 -0.676013
4.83 -0.691082
4.84 -0.704442
4.85 -0.715942
4.86 -0.725204
4.87 -0.73253
4.88 -0.737816
4.89 -0.741521
4.9 -0.743984
4.91 -0.745665
4.92 -0.747099
4.93 -0.748804
4.94 -0.751184
4.95 -0.754644
4.96 -0.759423
4.97 -0.76555
4.98 -0.773149
4.99 -0.781866
5 -0.791556
5.01 -0.801765
5.02 -0.81212
5.03 -0.822172
5.04 -0.831614
5.05 -0.839998
5.06 -0.847265
5.07 -0.853226
5.08 -0.857919
5.09 -0.861506
5.1 -0.864054
5.11 -0.865887
5.12 -0.867089
5.13 -0.867794
5.14 -0.867942
5.15 -0.867226
5.16 -0.865304
5.17 -0.861134
5.18 -0.854033
5.19 -0.842531
5.2 -0.825155
5.21 -0.800778
5.22 -0.766726
5.23 -0.722819
5.24 -0.666319
5.25 -0.597124
5.26 -0.514406
5.27 -0.417336
5.28 -0.307808
5.29 -0.18495
5.3 -0.0523548
5.31 0.0884829
5.32 0.23419
5.33 0.381357
5.34 0.52575
5.35 0.663875
5.36 0.790581
5.37 0.902638
5.38 0.996387
5.39 1.06742
5.4 1.11588
5.41 1.13604
5.42 1.13103
5.43 1.09881
5.44 1.04098
5.45 0.960615
5.46 0.858128
5.47 0.739693
5.48 0.607301
5.49 0.466469
5.5 0.321149
5.51 0.175882
5.52 0.0342717
5.53 -0.0990218
5.54 -0.222183
5.55 -0.332104
5.56 -0.42732
5.57 -0.507847
5.58 -0.57181
5.59 -0.621962
5.6 -0.657667
5.61 -0.681691
5.62 -0.695581
5.63 -0.701017
5.64 -0.700637
5.65 -0.695476
5.66 -0.687682
5.67 -0.678127
5.68 -0.667621
5.69 -0.656482
5.7 -0.644511
5.71 -0.631376
5.72 -0.616155
5.73 -0.598073
5.74 -0.576197
5.75 -0.549354
5.76 -0.517435
5.77 -0.479123
5.78 -0.435248
5.79 -0.385697
5.8 -0.331422
5.81 -0.273767
5.82 -0.214131
5.83 -0.15456
5.84 -0.0972358
5.85 -0.044227
5.86 0.00242616
5.87 0.0402382
5.88 0.0686498
5.89 0.0846551
5.9 0.0891634
5.91 0.0809248
5.92 0.0604051
5.93 0.0289292
5.94 -0.0134533
5.95 -0.0637622
5.96 -0.121059
5.97 -0.182645
5.98 -0.246594
5.99 -0.310743
6 -0.37339
6.01 -0.432491
6.02 -0.487314
6.03 -0.536707
6.04 -0.580324
6.05 -0.618479
6.06 -0.650939
6.07 -0.679123
6.08 -0.703427
6.09 -0.725242
6.1 -0.745542
6.11 -0.765372
6.12 -0.785554
6.13 -0.806862
6.14 -0.8295
6.15 -0.853641
6.16 -0.879023
6.17 -0.905147
6.18 -0.931326
6.19 -0.956774
6.2 -0.980483
6.21 -1.00171
6.22 -1.01975
6.23 -1.03383
6.24 -1.0441
6.25 -1.04988
6.26 -1.05201
6.27 -1.05067
6.28 -1.0466
6.29 -1.04064
6.3 -1.03342
6.31 -1.02569
6.32 -1.01779
6.33 -1.00973
6.34 -1.00109
6.35 -0.990716
6.36 -0.97735
6.37 -0.958006
6.38 -0.93073
6.39 -0.891687
6.4 -0.837143
6.41 -0.764493
6.42 -0.66717
6.43 -0.545124
6.44 -0.391933
6.45 -0.207543
6.46 0.00976157
6.47 0.26205
6.48 0.544736
6.49 0.860238
6.5 1.20037
6.51 1.56219
6.52 1.93851
6.53 2.32177
6.54 2.70332
6.55 3.07491
6.56 3.42566
6.57 3.7477
6.58 4.03257
6.59 4.26953
6.6 4.45757
6.61 4.58251
6.62 4.64917
6.63 4.65086
6.64 4.58839
6.65 4.46685
6.66 4.28299
6.67 4.05016
6.68 3.76895
6.69 3.45121
6.7 3.10464
6.71 2.73794
6.72 2.36166
6.73 1.98449
6.74 1.61508
6.75 1.26157
6.76 0.930949
6.77 0.626886
6.78 0.357339
6.79 0.120161
6.8 -0.0791562
6.81 -0.243565
6.82 -0.37385
6.83 -0.470685
6.84 -0.540398
6.85 -0.58257
6.86 -0.604843
6.87 -0.609525
6.88 -0.601129
6.89 -0.583721
6.9 -0.559924
6.91 -0.533234
6.92 -0.505576
6.93 -0.47874
6.94 -0.45377
6.95 -0.431469
6.96 -0.411767
6.97 -0.395033
6.98 -0.380629
6.99 -0.368444
7 -0.358141
7.01 -0.349447
7.02 -0.34254
7.03 -0.337345
7.04 -0.33447
7.05 -0.33431
7.06 -0.337526
7.07 -0.345135
7.08 -0.35733
7.09 -0.375603
7.1 -0.399622
7.11 -0.43009
7.12 -0.466887
7.13 -0.509335
7.14 -0.557359
7.15 -0.609248
7.16 -0.664166
7.17 -0.720324
7.18 -0.776208
7.19 -0.829941
7.2 -0.880295
7.21 -0.925075
7.22 -0.963826
7.23 -0.995211
7.24 -1.01878
7.25 -1.03488
7.26 -1.04292
7.27 -1.04466
7.28 -1.04037
7.29 -1.03183
7.3 -1.02033
7.31 -1.00738
7.32 -0.994386
7.33 -0.982728
7.34 -0.973142
7.35 -0.966314
7.36 -0.962314
7.37 -0.960636
7.38 -0.960583
7.39 -0.960671
7.4 -0.959122
7.41 -0.953934
7.42 -0.942991
7.43 -0.923413
7.44 -0.894123
7.45 -0.851275
7.46 -0.795031
7.47 -0.723196
7.48 -0.6353
7.49 -0.532299
7.5 -0.413092
7.51 -0.281226
7.52 -0.137218
7.53 0.0152619
7.54 0.173353
7.55 0.333451
7.56 0.491956
7.57 0.644312
7.58 0.7876
7.59 0.917693
7.6 1.03132
7.61 1.12701
7.62 1.20006
7.63 1.25216
7.64 1.27983
7.65 1.28476
7.66 1.26731
7.67 1.22754
7.68 1.16942
7.69 1.09241
7.7 1.00156
7.71 0.8985
7.72 0.786548
7.73 0.668929
7.74 0.548286
7.75 0.427709
7.76 0.309919
7.77 0.197181
7.78 0.091475
7.79 -0.0048306
7.8 -0.0914534
7.81 -0.165565
7.82 -0.228044
7.83 -0.277537
7.84 -0.31401
7.85 -0.338342
7.86 -0.349441
7.87 -0.349752
7.88 -0.338851
7.89 -0.318763
7.9 -0.290695
7.91 -0.255933
7.92 -0.216762
7.93 -0.174542
7.94 -0.131617
7.95 -0.0898513
7.96 -0.0513638
7.97 -0.0176687
7.98 0.00861968
7.99 0.0270528
8 0.0353242
8.01 0.0332033
8.02 0.0201013
8.03 -0.00477354
8.04 -0.0398891
8.05 -0.0861313
8.06 -0.140935
8.07 -0.203558
8.08 -0.272045
8.09 -0.344301
8.1 -0.418474
8.11 -0.49235
8.12 -0.563868
8.13 -0.631362
8.14 -0.693429
8.15 -0.748504
8.16 -0.796695
8.17 -0.836552
8.18 -0.869302
8.19 -0.894902
8.2 -0.914324
8.21 -0.928903
8.22 -0.939373
8.23 -0.947438
8.24 -0.953899
8.25 -0.959729
8.26 -0.965355
8.27 -0.97077
8.28 -0.975532
8.29 -0.978331
8.3 -0.977791
8.31 -0.97158
8.32 -0.95697
8.33 -0.931873
8.34 -0.891462
8.35 -0.834969
8.36 -0.757454
8.37 -0.657917
8.38 -0.534535
8.39 -0.384723
8.4 -0.211207
8.41 -0.0110536
8.42 0.210369
8.43 0.451826
8.44 0.708861
8.45 0.976148
8.46 1.24859
8.47 1.51955
8.48 1.78206
8.49 2.02975
8.5 2.25646
8.51 2.45414
8.52 2.62103
8.53 2.74701
8.54 2.83393
8.55 2.87663
8.56 2.8744
8.57 2.83025
8.58 2.74056
8.59 2.61428
8.6 2.45087
8.61 2.25805
8.62 2.04086
8.63 1.80459
8.64 1.55703
8.65 1.30335
8.66 1.05037
8.67 0.803508
8.68 0.568047
8.69 0.347044
8.7 0.146145
8.71 -0.0351943
8.72 -0.193073
8.73 -0.328653
8.74 -0.442169
8.75 -0.533527
8.76 -0.606706
8.77 -0.66119
8.78 -0.701896
8.79 -0.730352
8.8 -0.749545
8.81 -0.762357
8.82 -0.770632
8.83 -0.776943
8.84 -0.782779
8.85 -0.789535
8.86 -0.798059
8.87 -0.809058
8.88 -0.82244
8.89 -0.838495
8.9 -0.856566
8.91 -0.87635
8.92 -0.897235
8.93 -0.918631
8.94 -0.939975
8.95 -0.96082
8.96 -0.980717
8.97 -0.999466
8.98 -1.01694
8.99 -1.03304
9 -1.04799
9.01 -1.06174
9.02 -1.07464
9.03 -1.08676
9.04 -1.09827
9.05 -1.10924
9.06 -1.11956
9.07 -1.12917
9.08 -1.13771
9.09 -1.14482
9.1 -1.15003
9.11 -1.15256
9.12 -1.1521
9.13 -1.14738
9.14 -1.13827
9.15 -1.12384
9.16 -1.10351
9.17 -1.07727
9.18 -1.04403
9.19 -1.00468
9.2 -0.958573
9.21 -0.906541
9.22 -0.849082
9.23 -0.786721
9.24 -0.720869
9.25 -0.652215
9.26 -0.582381
9.27 -0.51258
9.28 -0.444325
9.29 -0.378774
9.3 -0.317823
9.31 -0.262022
9.32 -0.213145
9.33 -0.171671
9.34 -0.138268
9.35 -0.113942
9.36 -0.0978686
9.37 -0.0912996
9.38 -0.0926865
9.39 -0.102053
9.4 -0.118494
9.41 -0.140682
9.42 -0.168106
9.43 -0.19888
9.44 -0.232123
9.45 -0.266355
9.46 -0.300463
9.47 -0.333221
9.48 -0.363919
9.49 -0.391376
9.5 -0.415449
9.51 -0.435572
9.52 -0.451639
9.53 -0.463995
9.54 -0.472473
9.55 -0.478048
9.56 -0.480964
9.57 -0.482112
9.58 -0.482167
9.59 -0.481877
9.6 -0.481913
9.61 -0.483025
9.62 -0.485606
9.63 -0.490155
9.64 -0.496973
9.65 -0.506056
9.66 -0.517759
9.67 -0.531658
9.68 -0.547883
9.69 -0.566069
9.7 -0.586008
9.71 -0.607549
9.72 -0.630308
9.73 -0.65425
9.74 -0.679035
9.75 -0.704545
9.76 -0.730559
9.77 -0.756823
9.78 -0.782984
9.79 -0.808604
9.8 -0.832939
9.81 -0.855147
9.82 -0.874155
9.83 -0.888139
9.84 -0.896065
9.85 -0.894673
9.86 -0.882804
9.87 -0.85725
9.88 -0.815142
9.89 -0.755082
9.9 -0.67158
9.91 -0.565538
9.92 -0.431976
9.93 -0.271039
9.94 -0.0817678
9.95 0.13793
9.96 0.38413
9.97 0.659378
9.98 0.95749
9.99 1.27673
10 1.61225
10.01 1.95828
10.02 2.3094
10.03 2.65867
10.04 2.99877
10.05 3.32292
10.06 3.62464
10.07 3.89506
10.08 4.13214
10.09 4.32465
10.1 4.47388
10.11 4.5737
10.12 4.62218
10.13 4.6221
10.14 4.56762
10.15 4.46826
10.16 4.32177
10.17 4.13583
10.18 3.9153
10.19 3.66461
10.2 3.39298
10.21 3.10452
10.22 2.80806
10.23 2.50929
10.24 2.21477
10.25 1.92911
10.26 1.65887
10.27 1.40549
10.28 1.17395
10.29 0.964737
10.3 0.778671
10.31 0.617239
10.32 0.476937
10.33 0.359443
10.34 0.259795
10.35 0.176826
10.36 0.107493
10.37 0.0483161
10.38 -0.00256153
10.39 -0.0488594
10.4 -0.0924897
10.41 -0.135806
10.42 -0.180367
10.43 -0.227656
10.44 -0.278107
10.45 -0.332654
10.46 -0.390772
10.47 -0.452358
10.48 -0.516702
10.49 -0.582833
10.5 -0.649812
10.51 -0.716435
10.52 -0.781458
10.53 -0.843777
10.54 -0.902383
10.55 -0.955924
10.56 -1.00419
10.57 -1.04553
10.58 -1.08027
10.59 -1.10758
10.6 -1.1272
10.61 -1.1396
10.62 -1.14385
10.63 -1.14128
10.64 -1.13142
10.65 -1.11521
10.66 -1.09316
10.67 -1.06563
10.68 -1.03389
10.69 -0.99815
10.7 -0.959761
10.71 -0.919398
10.72 -0.878055
10.73 -0.836624
10.74 -0.796135
10.75 -0.757295
10.76 -0.721156
10.77 -0.688341
10.78 -0.659471
10.79 -0.635452
10.8 -0.616154
10.81 -0.602698
10.82 -0.59456
10.83 -0.592168
10.84 -0.595445
10.85 -0.603844
10.86 -0.617731
10.87 -0.635953
10.88 -0.65854
10.89 -0.68463
10.9 -0.713651
10.91 -0.745086
10.92 -0.778071
10.93 -0.812134
10.94 -0.846509
10.95 -0.880643
10.96 -0.913935
10.97 -0.94599
10.98 -0.97613
10.99 -1.00427
11 -1.02985
11.01 -1.05281
11.02 -1.07302
11.03 -1.09023
11.04 -1.1048
11.05 -1.11642
11.06 -1.12565
11.07 -1.13256
11.08 -1.13749
11.09 -1.14089
11.1 -1.14298
11.11 -1.14431
11.12 -1.14513
11.13 -1.14577
11.14 -1.1464
11.15 -1.14709
11.16 -1.14773
11.17 -1.14797
11.18 -1.14733
11.19 -1.14499
11.2 -1.13988
11.21 -1.13105
11.22 -1.11633
11.23 -1.09498
11.24 -1.06438
11.25 -1.02324
11.26 -0.969906
11.27 -0.901679
11.28 -0.818892
11.29 -0.717936
11.3 -0.600251
11.31 -0.464429
11.32 -0.310715
11.33 -0.141078
11.34 0.0450563
11.35 0.24336
11.36 0.452549
11.37 0.668502
11.38 0.887716
11.39 1.10578
11.4 1.31883
11.41 1.52107
11.42 1.70935
11.43 1.87863
11.44 2.02465
11.45 2.14595
11.46 2.23583
11.47 2.29677
11.48 2.32399
11.49 2.31923
11.5 2.28309
11.51 2.21495
11.52 2.12039
11.53 1.99845
11.54 1.85594
11.55 1.6953
11.56 1.52108
11.57 1.33814
11.58 1.15021
11.59 0.961954
11.6 0.777243
11.61 0.599396
11.62 0.431012
11.63 0.275239
11.64 0.132084
11.65 0.00454619
11.66 -0.108999
11.67 -0.20794
11.68 -0.293141
11.69 -0.366667
11.7 -0.428622
11.71 -0.482305
11.72 -0.528561
11.73 -0.569717
11.74 -0.607318
11.75 -0.642702
11.76 -0.677139
11.77 -0.711321
11.78 -0.745655
11.79 -0.780134
11.8 -0.814328
11.81 -0.847593
11.82 -0.878605
11.83 -0.906451
11.84 -0.929272
11.85 -0.945764
11.86 -0.954531
11.87 -0.953383
11.88 -0.942245
11.89 -0.918325
11.9 -0.882339
11.91 -0.833026
11.92 -0.770192
11.93 -0.69499
11.94 -0.606348
11.95 -0.507116
11.96 -0.397385
11.97 -0.279559
11.98 -0.155492
11.99 -0.027198
12 0.102688
12.01 0.23169
12.02 0.357395
12.03 0.47722
12.04 0.588577
12.05 0.6901
12.06 0.778142
12.07 0.853027
12.08 0.91184
12.09 0.954595
12.1 0.980919
12.11 0.989556
12.12 0.982836
12.13 0.959186
12.14 0.921786
12.15 0.871172
12.16 0.8092
12.17 0.738432
12.18 0.659996
12.19 0.577035
12.2 0.491157
12.21 0.404654
12.22 0.319228
12.23 0.236742
12.24 0.158045
12.25 0.0847976
12.26 0.0169594
12.27 -0.0448813
12.28 -0.100788
12.29 -0.151522
12.3 -0.197063
12.31 -0.238937
12.32 -0.27766
12.33 -0.314455
12.34 -0.350205
12.35 -0.38576
12.36 -0.421729
12.37 -0.458615
12.38 -0.496419
