# xPDFsuite Configuration #
[PDF]
wavelength = 0.1432
dataformat = twotheta
inputfile = 1_1Pd_CeO2_cycle-00291.chi
backgroundfile = background-00000.chi
mode = xray
bgscale = 1.007
composition = CeO2
outputtype = gr
qmaxinst = 28.8974762299
qmin = 0.5
qmax = 27.9
rmax = 50.0
rmin = 0.0
rstep = 0.01
rpoly = 1.8657

[Misc]
inputdir = G:/SankarDec16/1Pd/Chi
savedir = D:/DATA/APS_CeO2/1Pd
backgroundfilefull = G:/SankarDec16/Background/background-00000.chi

#### start data
#S 1
#L r($\AA$)  G($\AA^{-2}$)
0 0
0.01 -0.00648326
0.02 -0.0124782
0.03 -0.0174818
0.04 -0.0211155
0.05 -0.0231685
0.06 -0.0233019
0.07 -0.0217413
0.08 -0.0183778
0.09 -0.0136419
0.1 -0.00783168
0.11 -0.00140313
0.12 0.00514624
0.13 0.0112584
0.14 0.0165379
0.15 0.0205006
0.16 0.0228628
0.17 0.0235114
0.18 0.0222153
0.19 0.0193061
0.2 0.0147968
0.21 0.00918939
0.22 0.00285478
0.23 -0.00369501
0.24 -0.00999171
0.25 -0.0154342
0.26 -0.0197386
0.27 -0.0224629
0.28 -0.0234321
0.29 -0.022636
0.3 -0.0199626
0.31 -0.0158341
0.32 -0.0103849
0.33 -0.00416482
0.34 0.00240004
0.35 0.00876567
0.36 0.0145155
0.37 0.0190341
0.38 0.0221625
0.39 0.0235223
0.4 0.0230555
0.41 0.020856
0.42 0.0169365
0.43 0.0117897
0.44 0.00566529
0.45 -0.000864796
0.46 -0.00733979
0.47 -0.0132092
0.48 -0.0181285
0.49 -0.0214971
0.5 -0.0232892
0.51 -0.023208
0.52 -0.0213161
0.53 -0.017807
0.54 -0.0128182
0.55 -0.00688981
0.56 -0.000374952
0.57 0.00615923
0.58 0.0122394
0.59 0.0173347
0.6 0.0211894
0.61 0.0232469
0.62 0.0236158
0.63 0.0220961
0.64 0.0188679
0.65 0.0142158
0.66 0.00839598
0.67 0.00197036
0.68 -0.00462111
0.69 -0.010843
0.7 -0.0162324
0.71 -0.0203029
0.72 -0.0229006
0.73 -0.0235393
0.74 -0.0224573
0.75 -0.0195602
0.76 -0.0151375
0.77 -0.00955038
0.78 -0.00316089
0.79 0.00347514
0.8 0.00985399
0.81 0.0154985
0.82 0.0199805
0.83 0.0228838
0.84 0.024164
0.85 0.0234327
0.86 0.0210449
0.87 0.0170188
0.88 0.0117379
0.89 0.00562067
0.9 -0.000884649
0.91 -0.00726077
0.92 -0.0129709
0.93 -0.0176274
0.94 -0.0208674
0.95 -0.022379
0.96 -0.0222382
0.97 -0.0201973
0.98 -0.0167165
0.99 -0.0119479
1 -0.00636423
1.01 -0.000429188
1.02 0.00531861
1.03 0.0104359
1.04 0.0143563
1.05 0.0168152
1.06 0.0175359
1.07 0.0163359
1.08 0.0134401
1.09 0.00877072
1.1 0.00291984
1.11 -0.00379197
1.12 -0.0107686
1.13 -0.0174719
1.14 -0.0232117
1.15 -0.0276025
1.16 -0.0299661
1.17 -0.0301348
1.18 -0.027857
1.19 -0.0230054
1.2 -0.0159526
1.21 -0.0066552
1.22 0.00411184
1.23 0.0159409
1.24 0.0281044
1.25 0.0399584
1.26 0.050686
1.27 0.0598277
1.28 0.0665709
1.29 0.0706862
1.3 0.0718261
1.31 0.0697447
1.32 0.0647994
1.33 0.0567265
1.34 0.0463422
1.35 0.0338818
1.36 0.0200129
1.37 0.00535491
1.38 -0.00945472
1.39 -0.023821
1.4 -0.0370876
1.41 -0.0488621
1.42 -0.0587472
1.43 -0.0663828
1.44 -0.0718622
1.45 -0.0747703
1.46 -0.0755579
1.47 -0.0741621
1.48 -0.0708771
1.49 -0.0660091
1.5 -0.0596994
1.51 -0.0523881
1.52 -0.0442078
1.53 -0.0354736
1.54 -0.0263558
1.55 -0.0170243
1.56 -0.00762591
1.57 0.00170889
1.58 0.0108732
1.59 0.019728
1.6 0.0281308
1.61 0.0359487
1.62 0.0428996
1.63 0.0488891
1.64 0.0535311
1.65 0.056695
1.66 0.0581184
1.67 0.0575099
1.68 0.0549341
1.69 0.0499524
1.7 0.0429274
1.71 0.0337609
1.72 0.0227422
1.73 0.0102333
1.74 -0.00345943
1.75 -0.0177272
1.76 -0.0320803
1.77 -0.0459387
1.78 -0.058783
1.79 -0.0700406
1.8 -0.0795186
1.81 -0.0865931
1.82 -0.0914936
1.83 -0.0940342
1.84 -0.0944824
1.85 -0.0932287
1.86 -0.0906178
1.87 -0.0873522
1.88 -0.0839978
1.89 -0.0812109
1.9 -0.0795616
1.91 -0.0796467
1.92 -0.0816222
1.93 -0.086046
1.94 -0.0925599
1.95 -0.101171
1.96 -0.111391
1.97 -0.122624
1.98 -0.134145
1.99 -0.145128
2 -0.154552
2.01 -0.161638
2.02 -0.165548
2.03 -0.165378
2.04 -0.161054
2.05 -0.15147
2.06 -0.137295
2.07 -0.118199
2.08 -0.0946802
2.09 -0.0674009
2.1 -0.0367186
2.11 -0.00379448
2.12 0.0308294
2.13 0.0662023
2.14 0.101697
2.15 0.136712
2.16 0.170961
2.17 0.204115
2.18 0.23637
2.19 0.267857
2.2 0.298999
2.21 0.330241
2.22 0.362175
2.23 0.395158
2.24 0.429716
2.25 0.465894
2.26 0.503674
2.27 0.542727
2.28 0.582336
2.29 0.62148
2.3 0.658976
2.31 0.69319
2.32 0.722429
2.33 0.745325
2.34 0.759266
2.35 0.763974
2.36 0.756847
2.37 0.738021
2.38 0.706798
2.39 0.662792
2.4 0.607866
2.41 0.541503
2.42 0.467072
2.43 0.385911
2.44 0.300885
2.45 0.21463
2.46 0.130188
2.47 0.04987
2.48 -0.0231351
2.49 -0.0872959
2.5 -0.14087
2.51 -0.182288
2.52 -0.212415
2.53 -0.229591
2.54 -0.236589
2.55 -0.233855
2.56 -0.223704
2.57 -0.208499
2.58 -0.190457
2.59 -0.17226
2.6 -0.156348
2.61 -0.144628
2.62 -0.138736
2.63 -0.140146
2.64 -0.148611
2.65 -0.165293
2.66 -0.188373
2.67 -0.217343
2.68 -0.250386
2.69 -0.285651
2.7 -0.321125
2.71 -0.354926
2.72 -0.384906
2.73 -0.409834
2.74 -0.428549
2.75 -0.440116
2.76 -0.445187
2.77 -0.443164
2.78 -0.436031
2.79 -0.424655
2.8 -0.410961
2.81 -0.396745
2.82 -0.384103
2.83 -0.374491
2.84 -0.369909
2.85 -0.371064
2.86 -0.378682
2.87 -0.393131
2.88 -0.41331
2.89 -0.439084
2.9 -0.468213
2.91 -0.499265
2.92 -0.530044
2.93 -0.55869
2.94 -0.582737
2.95 -0.601189
2.96 -0.611913
2.97 -0.614764
2.98 -0.609361
2.99 -0.595804
3 -0.575804
3.01 -0.549993
3.02 -0.521146
3.03 -0.491169
3.04 -0.462632
3.05 -0.43758
3.06 -0.418782
3.07 -0.407025
3.08 -0.404508
3.09 -0.411006
3.1 -0.426617
3.11 -0.450856
3.12 -0.481589
3.13 -0.517734
3.14 -0.556224
3.15 -0.59482
3.16 -0.630803
3.17 -0.662155
3.18 -0.686109
3.19 -0.702282
3.2 -0.708808
3.21 -0.70649
3.22 -0.695821
3.23 -0.678061
3.24 -0.655793
3.25 -0.631173
3.26 -0.607364
3.27 -0.587309
3.28 -0.573894
3.29 -0.569
3.3 -0.575638
3.31 -0.593282
3.32 -0.623598
3.33 -0.664712
3.34 -0.715301
3.35 -0.773018
3.36 -0.834332
3.37 -0.89576
3.38 -0.953544
3.39 -1.00373
3.4 -1.04292
3.41 -1.06917
3.42 -1.07895
3.43 -1.07369
3.44 -1.05179
3.45 -1.01631
3.46 -0.969489
3.47 -0.914861
3.48 -0.857104
3.49 -0.801076
3.5 -0.751225
3.51 -0.712401
3.52 -0.688238
3.53 -0.680348
3.54 -0.691781
3.55 -0.719408
3.56 -0.762817
3.57 -0.816188
3.58 -0.874029
3.59 -0.928107
3.6 -0.970951
3.61 -0.98976
3.62 -0.978308
3.63 -0.924574
3.64 -0.820383
3.65 -0.661658
3.66 -0.43649
3.67 -0.151221
3.68 0.201947
3.69 0.613829
3.7 1.07972
3.71 1.59172
3.72 2.13449
3.73 2.69724
3.74 3.26155
3.75 3.81122
3.76 4.32831
3.77 4.79931
3.78 5.20153
3.79 5.53139
3.8 5.76778
3.81 5.91053
3.82 5.95356
3.83 5.8915
3.84 5.73756
3.85 5.483
3.86 5.15132
3.87 4.74699
3.88 4.28656
3.89 3.78654
3.9 3.26057
3.91 2.72709
3.92 2.20114
3.93 1.69651
3.94 1.22495
3.95 0.798826
3.96 0.419964
3.97 0.101617
3.98 -0.163007
3.99 -0.369692
4 -0.522896
4.01 -0.629555
4.02 -0.691546
4.03 -0.721697
4.04 -0.724027
4.05 -0.709082
4.06 -0.683578
4.07 -0.654528
4.08 -0.627387
4.09 -0.607462
4.1 -0.596658
4.11 -0.5973
4.12 -0.609383
4.13 -0.631498
4.14 -0.662613
4.15 -0.699039
4.16 -0.738228
4.17 -0.776561
4.18 -0.811028
4.19 -0.838262
4.2 -0.856865
4.21 -0.863358
4.22 -0.85839
4.23 -0.840559
4.24 -0.810428
4.25 -0.769345
4.26 -0.717507
4.27 -0.657849
4.28 -0.591185
4.29 -0.519958
4.3 -0.44567
4.31 -0.369835
4.32 -0.293703
4.33 -0.218249
4.34 -0.14396
4.35 -0.0712361
4.36 -0.000144184
4.37 0.0694379
4.38 0.137443
4.39 0.20413
4.4 0.269243
4.41 0.33263
4.42 0.393778
4.43 0.451724
4.44 0.505885
4.45 0.554217
4.46 0.596167
4.47 0.629752
4.48 0.653623
4.49 0.667093
4.5 0.667771
4.51 0.65669
4.52 0.631972
4.53 0.594913
4.54 0.545879
4.55 0.485526
4.56 0.416384
4.57 0.339071
4.58 0.256835
4.59 0.171439
4.6 0.0854122
4.61 0.000784037
4.62 -0.079999
4.63 -0.155837
4.64 -0.224677
4.65 -0.286154
4.66 -0.339704
4.67 -0.384926
4.68 -0.423024
4.69 -0.453612
4.7 -0.478729
4.71 -0.499024
4.72 -0.515932
4.73 -0.530735
4.74 -0.544468
4.75 -0.558164
4.76 -0.572568
4.77 -0.588085
4.78 -0.604898
4.79 -0.622968
4.8 -0.64188
4.81 -0.661211
4.82 -0.680286
4.83 -0.698432
4.84 -0.714963
4.85 -0.729441
4.86 -0.741124
4.87 -0.750132
4.88 -0.756042
4.89 -0.759247
4.9 -0.760001
4.91 -0.758726
4.92 -0.756174
4.93 -0.752893
4.94 -0.749668
4.95 -0.747141
4.96 -0.745911
4.97 -0.746323
4.98 -0.748914
4.99 -0.75353
5 -0.760418
5.01 -0.769226
5.02 -0.779725
5.03 -0.791593
5.04 -0.804322
5.05 -0.817586
5.06 -0.830926
5.07 -0.84402
5.08 -0.85658
5.09 -0.868443
5.1 -0.879348
5.11 -0.8893
5.12 -0.898025
5.13 -0.905419
5.14 -0.911184
5.15 -0.914754
5.16 -0.915808
5.17 -0.912994
5.18 -0.905831
5.19 -0.892749
5.2 -0.872377
5.21 -0.843755
5.22 -0.804209
5.23 -0.753868
5.24 -0.690039
5.25 -0.612868
5.26 -0.521676
5.27 -0.415794
5.28 -0.297296
5.29 -0.16546
5.3 -0.0240293
5.31 0.125349
5.32 0.279154
5.33 0.43387
5.34 0.585041
5.35 0.729142
5.36 0.860775
5.37 0.976659
5.38 1.073
5.39 1.14522
5.4 1.1935
5.41 1.21185
5.42 1.20358
5.43 1.16651
5.44 1.10232
5.45 1.01425
5.46 0.902692
5.47 0.774162
5.48 0.630743
5.49 0.478288
5.5 0.321002
5.51 0.163744
5.52 0.0103983
5.53 -0.133982
5.54 -0.267376
5.55 -0.386338
5.56 -0.489166
5.57 -0.575773
5.58 -0.643932
5.59 -0.696563
5.6 -0.732773
5.61 -0.755516
5.62 -0.766395
5.63 -0.767157
5.64 -0.760786
5.65 -0.748354
5.66 -0.73244
5.67 -0.714115
5.68 -0.694509
5.69 -0.674222
5.7 -0.653361
5.71 -0.631806
5.72 -0.608935
5.73 -0.584118
5.74 -0.556577
5.75 -0.525319
5.76 -0.490162
5.77 -0.450004
5.78 -0.405459
5.79 -0.35644
5.8 -0.303758
5.81 -0.248567
5.82 -0.192167
5.83 -0.136311
5.84 -0.0830134
5.85 -0.0340843
5.86 0.00864607
5.87 0.0429399
5.88 0.0683726
5.89 0.0822208
5.9 0.0854155
5.91 0.0768691
5.92 0.057082
5.93 0.027322
5.94 -0.0123051
5.95 -0.0590606
5.96 -0.112066
5.97 -0.168891
5.98 -0.227825
5.99 -0.286991
6 -0.344933
6.01 -0.399973
6.02 -0.451561
6.03 -0.498845
6.04 -0.541679
6.05 -0.580438
6.06 -0.615149
6.07 -0.647016
6.08 -0.676546
6.09 -0.704849
6.1 -0.732703
6.11 -0.760877
6.12 -0.789796
6.13 -0.819859
6.14 -0.85086
6.15 -0.882545
6.16 -0.914255
6.17 -0.945256
6.18 -0.974381
6.19 -1.00094
6.2 -1.02362
6.21 -1.04188
6.22 -1.05516
6.23 -1.06289
6.24 -1.06573
6.25 -1.06337
6.26 -1.05727
6.27 -1.04816
6.28 -1.03742
6.29 -1.02632
6.3 -1.01623
6.31 -1.00798
6.32 -1.00248
6.33 -0.999652
6.34 -0.999044
6.35 -0.999392
6.36 -0.998789
6.37 -0.993932
6.38 -0.981909
6.39 -0.958126
6.4 -0.917849
6.41 -0.857657
6.42 -0.769678
6.43 -0.653444
6.44 -0.501276
6.45 -0.31286
6.46 -0.0860495
6.47 0.181694
6.48 0.48506
6.49 0.826918
6.5 1.19767
6.51 1.59388
6.52 2.00707
6.53 2.4284
6.54 2.84774
6.55 3.25548
6.56 3.63897
6.57 3.98914
6.58 4.29627
6.59 4.5481
6.6 4.74366
6.61 4.86695
6.62 4.92384
6.63 4.90708
6.64 4.8181
6.65 4.66319
6.66 4.43944
6.67 4.16236
6.68 3.83354
6.69 3.4668
6.7 3.07138
6.71 2.65785
6.72 2.23794
6.73 1.82244
6.74 1.42043
6.75 1.04139
6.76 0.692845
6.77 0.378268
6.78 0.106483
6.79 -0.12613
6.8 -0.313874
6.81 -0.461162
6.82 -0.56972
6.83 -0.641311
6.84 -0.683771
6.85 -0.697761
6.86 -0.69223
6.87 -0.670545
6.88 -0.638168
6.89 -0.599665
6.9 -0.55856
6.91 -0.518064
6.92 -0.480572
6.93 -0.447373
6.94 -0.419201
6.95 -0.396466
6.96 -0.378258
6.97 -0.36453
6.98 -0.353797
6.99 -0.345416
7 -0.338486
7.01 -0.332393
7.02 -0.326909
7.03 -0.322002
7.04 -0.31816
7.05 -0.316041
7.06 -0.316552
7.07 -0.321068
7.08 -0.3302
7.09 -0.345927
7.1 -0.368252
7.11 -0.39829
7.12 -0.436189
7.13 -0.48133
7.14 -0.533877
7.15 -0.591779
7.16 -0.654163
7.17 -0.718783
7.18 -0.783744
7.19 -0.846664
7.2 -0.905847
7.21 -0.958475
7.22 -1.00377
7.23 -1.03994
7.24 -1.06623
7.25 -1.083
7.26 -1.08938
7.27 -1.08756
7.28 -1.07784
7.29 -1.06252
7.3 -1.04335
7.31 -1.02236
7.32 -1.0015
7.33 -0.982785
7.34 -0.967339
7.35 -0.956331
7.36 -0.950127
7.37 -0.948249
7.38 -0.950261
7.39 -0.954227
7.4 -0.958297
7.41 -0.959894
7.42 -0.956416
7.43 -0.944348
7.44 -0.922033
7.45 -0.884824
7.46 -0.832482
7.47 -0.762191
7.48 -0.673098
7.49 -0.566105
7.5 -0.43968
7.51 -0.297908
7.52 -0.141252
7.53 0.0259579
7.54 0.200341
7.55 0.377616
7.56 0.553406
7.57 0.722287
7.58 0.880664
7.59 1.0236
7.6 1.14716
7.61 1.24957
7.62 1.32532
7.63 1.37647
7.64 1.39902
7.65 1.39517
7.66 1.36553
7.67 1.31048
7.68 1.23488
7.69 1.13854
7.7 1.02751
7.71 0.904042
7.72 0.772251
7.73 0.635932
7.74 0.498547
7.75 0.363382
7.76 0.233815
7.77 0.112157
7.78 0.000511266
7.79 -0.098596
7.8 -0.185337
7.81 -0.256695
7.82 -0.314232
7.83 -0.356775
7.84 -0.38474
7.85 -0.399473
7.86 -0.400206
7.87 -0.389859
7.88 -0.368335
7.89 -0.337977
7.9 -0.300235
7.91 -0.256658
7.92 -0.209575
7.93 -0.16061
7.94 -0.112008
7.95 -0.0657346
7.96 -0.0238803
7.97 0.0121453
7.98 0.0396661
7.99 0.0584595
8 0.0662038
8.01 0.0628405
8.02 0.0478799
8.03 0.0206266
8.04 -0.0172191
8.05 -0.0664591
8.06 -0.124367
8.07 -0.190086
8.08 -0.261538
8.09 -0.33654
8.1 -0.413114
8.11 -0.489033
8.12 -0.56216
8.13 -0.630863
8.14 -0.693776
8.15 -0.749403
8.16 -0.797992
8.17 -0.838239
8.18 -0.871553
8.19 -0.898091
8.2 -0.919038
8.21 -0.935862
8.22 -0.949572
8.23 -0.961842
8.24 -0.973653
8.25 -0.985873
8.26 -0.99884
8.27 -1.01239
8.28 -1.02574
8.29 -1.03725
8.3 -1.0451
8.31 -1.04645
8.32 -1.03802
8.33 -1.01733
8.34 -0.978735
8.35 -0.921406
8.36 -0.839682
8.37 -0.732537
8.38 -0.598017
8.39 -0.433362
8.4 -0.241881
8.41 -0.020532
8.42 0.224372
8.43 0.491123
8.44 0.774395
8.45 1.06801
8.46 1.36581
8.47 1.66039
8.48 1.9436
8.49 2.20839
8.5 2.44789
8.51 2.65312
8.52 2.82251
8.53 2.94488
8.54 3.02288
8.55 3.05113
8.56 3.02944
8.57 2.96166
8.58 2.84449
8.59 2.6883
8.6 2.49326
8.61 2.26829
8.62 2.01943
8.63 1.75312
8.64 1.47783
8.65 1.2
8.66 0.926642
8.67 0.663944
8.68 0.417484
8.69 0.190124
8.7 -0.0119682
8.71 -0.190291
8.72 -0.340841
8.73 -0.465663
8.74 -0.56558
8.75 -0.641141
8.76 -0.697254
8.77 -0.734047
8.78 -0.757247
8.79 -0.769039
8.8 -0.773034
8.81 -0.772451
8.82 -0.769779
8.83 -0.767469
8.84 -0.767406
8.85 -0.770761
8.86 -0.778264
8.87 -0.790496
8.88 -0.806827
8.89 -0.827395
8.9 -0.850922
8.91 -0.876753
8.92 -0.903811
8.93 -0.931135
8.94 -0.957727
8.95 -0.982957
8.96 -1.00605
8.97 -1.02673
8.98 -1.04484
8.99 -1.06023
9 -1.07336
9.01 -1.08422
9.02 -1.09351
9.03 -1.10153
9.04 -1.10876
9.05 -1.11556
9.06 -1.12216
9.07 -1.12867
9.08 -1.13502
9.09 -1.14093
9.1 -1.146
9.11 -1.14948
9.12 -1.15086
9.13 -1.14885
9.14 -1.14293
9.15 -1.13194
9.16 -1.11493
9.17 -1.09157
9.18 -1.06032
9.19 -1.02187
9.2 -0.975181
9.21 -0.920958
9.22 -0.859597
9.23 -0.791502
9.24 -0.718376
9.25 -0.640898
9.26 -0.561203
9.27 -0.480829
9.28 -0.401819
9.29 -0.325823
9.3 -0.255417
9.31 -0.191532
9.32 -0.136632
9.33 -0.0914976
9.34 -0.0571026
9.35 -0.0348335
9.36 -0.0235719
9.37 -0.0248941
9.38 -0.0365919
9.39 -0.0584683
9.4 -0.0890226
9.41 -0.126252
9.42 -0.168961
9.43 -0.21453
9.44 -0.261276
9.45 -0.307109
9.46 -0.350382
9.47 -0.389225
9.48 -0.423013
9.49 -0.449962
9.5 -0.470471
9.51 -0.484005
9.52 -0.490937
9.53 -0.492284
9.54 -0.488399
9.55 -0.481151
9.56 -0.471506
9.57 -0.4611
9.58 -0.451217
9.59 -0.443309
9.6 -0.43814
9.61 -0.437088
9.62 -0.440181
9.63 -0.447954
9.64 -0.460333
9.65 -0.476735
9.66 -0.497073
9.67 -0.520115
9.68 -0.545358
9.69 -0.571776
9.7 -0.598641
9.71 -0.625234
9.72 -0.651134
9.73 -0.675902
9.74 -0.699602
9.75 -0.72227
9.76 -0.744201
9.77 -0.765763
9.78 -0.787314
9.79 -0.809101
9.8 -0.831207
9.81 -0.853332
9.82 -0.874855
9.83 -0.894444
9.84 -0.910777
9.85 -0.920827
9.86 -0.92259
9.87 -0.912326
9.88 -0.88615
9.89 -0.841627
9.9 -0.771817
9.91 -0.676675
9.92 -0.549623
9.93 -0.389954
9.94 -0.195873
9.95 0.0357921
9.96 0.300583
9.97 0.602014
9.98 0.932458
9.99 1.28978
10 1.66776
10.01 2.05896
10.02 2.45631
10.03 2.85083
10.04 3.23303
10.05 3.5943
10.06 3.92646
10.07 4.21847
10.08 4.46817
10.09 4.66196
10.1 4.80221
10.11 4.88221
10.12 4.90072
10.13 4.86214
10.14 4.76115
10.15 4.61009
10.16 4.40818
10.17 4.16562
10.18 3.88931
10.19 3.5861
10.2 3.26661
10.21 2.93749
10.22 2.60797
10.23 2.28507
10.24 1.9758
10.25 1.68414
10.26 1.4173
10.27 1.17463
10.28 0.960793
10.29 0.774333
10.3 0.614601
10.31 0.481484
10.32 0.36979
10.33 0.279576
10.34 0.204743
10.35 0.142941
10.36 0.0903157
10.37 0.0432836
10.38 -0.000774135
10.39 -0.0446549
10.4 -0.0903449
10.41 -0.139192
10.42 -0.191977
10.43 -0.249312
10.44 -0.310553
10.45 -0.375723
10.46 -0.443482
10.47 -0.512997
10.48 -0.583
10.49 -0.652381
10.5 -0.719728
10.51 -0.78431
10.52 -0.844837
10.53 -0.900766
10.54 -0.951537
10.55 -0.996305
10.56 -1.03546
10.57 -1.06789
10.58 -1.09434
10.59 -1.11435
10.6 -1.12796
10.61 -1.13564
10.62 -1.13664
10.63 -1.13201
10.64 -1.12117
10.65 -1.10473
10.66 -1.08293
10.67 -1.0558
10.68 -1.02433
10.69 -0.988465
10.7 -0.949423
10.71 -0.907764
10.72 -0.864481
10.73 -0.820584
10.74 -0.777206
10.75 -0.735321
10.76 -0.696217
10.77 -0.660787
10.78 -0.629886
10.79 -0.6047
10.8 -0.585153
10.81 -0.572615
10.82 -0.566435
10.83 -0.567048
10.84 -0.574226
10.85 -0.58718
10.86 -0.60608
10.87 -0.629438
10.88 -0.657007
10.89 -0.687646
10.9 -0.720565
10.91 -0.754994
10.92 -0.790059
10.93 -0.825088
10.94 -0.859479
10.95 -0.892703
10.96 -0.924322
10.97 -0.95417
10.98 -0.981745
10.99 -1.00723
11 -1.03028
11.01 -1.05101
11.02 -1.06944
11.03 -1.08544
11.04 -1.09934
11.05 -1.11092
11.06 -1.12056
11.07 -1.12828
11.08 -1.13429
11.09 -1.13889
11.1 -1.14218
11.11 -1.14462
11.12 -1.14639
11.13 -1.14781
11.14 -1.1491
11.15 -1.1504
11.16 -1.15172
11.17 -1.15288
11.18 -1.15352
11.19 -1.15299
11.2 -1.15031
11.21 -1.14455
11.22 -1.13356
11.23 -1.1164
11.24 -1.0903
11.25 -1.0536
11.26 -1.0043
11.27 -0.939161
11.28 -0.858169
11.29 -0.756962
11.3 -0.63676
11.31 -0.49562
11.32 -0.333468
11.33 -0.152348
11.34 0.0487273
11.35 0.264751
11.36 0.494373
11.37 0.732686
11.38 0.975476
11.39 1.21741
11.4 1.45365
11.41 1.67715
11.42 1.88391
11.43 2.06774
11.44 2.22341
11.45 2.34914
11.46 2.43694
11.47 2.48996
11.48 2.50273
11.49 2.47775
11.5 2.41619
11.51 2.31801
11.52 2.1903
11.53 2.03296
11.54 1.85445
11.55 1.65845
11.56 1.45101
11.57 1.23796
11.58 1.02468
11.59 0.816026
11.6 0.617055
11.61 0.431042
11.62 0.260571
11.63 0.108902
11.64 -0.0251607
11.65 -0.138704
11.66 -0.234932
11.67 -0.314079
11.68 -0.37828
11.69 -0.430737
11.7 -0.472818
11.71 -0.508596
11.72 -0.539986
11.73 -0.569764
11.74 -0.599803
11.75 -0.63185
11.76 -0.666592
11.77 -0.704923
11.78 -0.746248
11.79 -0.790082
11.8 -0.835136
11.81 -0.879896
11.82 -0.922141
11.83 -0.960215
11.84 -0.991392
11.85 -1.01385
11.86 -1.02577
11.87 -1.02446
11.88 -1.01011
11.89 -0.979514
11.9 -0.934037
11.91 -0.872579
11.92 -0.795455
11.93 -0.704465
11.94 -0.599016
11.95 -0.482696
11.96 -0.356179
11.97 -0.222443
11.98 -0.0838054
11.99 0.0571515
12 0.197704
12.01 0.334798
12.02 0.466183
12.03 0.589068
12.04 0.700882
12.05 0.800527
12.06 0.884191
12.07 0.952742
12.08 1.00326
12.09 1.03616
12.1 1.05132
12.11 1.04772
12.12 1.02808
12.13 0.991035
12.14 0.940131
12.15 0.876174
12.16 0.801338
12.17 0.718401
12.18 0.6289
12.19 0.536063
12.2 0.441865
12.21 0.348703
12.22 0.258402
12.23 0.173057
12.24 0.0933164
12.25 0.0210873
12.26 -0.044021
12.27 -0.101478
12.28 -0.151601
12.29 -0.195518
12.3 -0.233454
12.31 -0.26741
12.32 -0.298268
12.33 -0.327657
12.34 -0.356799
12.35 -0.386969
12.36 -0.418878
12.37 -0.453445
12.38 -0.490563
12.39 -0.530206
12.4 -0.571725
