# xPDFsuite Configuration #
[PDF]
wavelength = 0.1432
dataformat = twotheta
inputfile = 1_1Pd_CeO2_cycle-00318.chi
backgroundfile = background-00000.chi
mode = xray
bgscale = 1.007
composition = CeO2
outputtype = gr
qmaxinst = 28.8974762299
qmin = 0.5
qmax = 27.9
rmax = 50.0
rmin = 0.0
rstep = 0.01
rpoly = 1.8657

[Misc]
inputdir = G:/SankarDec16/1Pd/Chi
savedir = D:/DATA/APS_CeO2/1Pd
backgroundfilefull = G:/SankarDec16/Background/background-00000.chi

#### start data
#S 1
#L r($\AA$)  G($\AA^{-2}$)
0 0
0.01 -0.00573521
0.02 -0.01104
0.03 -0.015471
0.04 -0.0186941
0.05 -0.0205228
0.06 -0.0206573
0.07 -0.0192953
0.08 -0.0163387
0.09 -0.012166
0.1 -0.0070381
0.11 -0.00135563
0.12 0.00444246
0.13 0.00986565
0.14 0.0145626
0.15 0.0181055
0.16 0.020241
0.17 0.0208658
0.18 0.0197716
0.19 0.0172475
0.2 0.0132995
0.21 0.00836767
0.22 0.00277624
0.23 -0.00302543
0.24 -0.00862228
0.25 -0.0134854
0.26 -0.0173582
0.27 -0.0198472
0.28 -0.0207915
0.29 -0.0201757
0.3 -0.0178928
0.31 -0.0143101
0.32 -0.00953776
0.33 -0.00405873
0.34 0.00175431
0.35 0.00742262
0.36 0.0125737
0.37 0.0166638
0.38 0.0195424
0.39 0.0208685
0.4 0.0205807
0.41 0.0187528
0.42 0.015384
0.43 0.0109044
0.44 0.00552356
0.45 -0.000253983
0.46 -0.00602348
0.47 -0.0112977
0.48 -0.0157638
0.49 -0.0188873
0.5 -0.0206308
0.51 -0.0207215
0.52 -0.019201
0.53 -0.0162291
0.54 -0.0119125
0.55 -0.00672492
0.56 -0.000966613
0.57 0.0048583
0.58 0.0103311
0.59 0.0149776
0.6 0.0185589
0.61 0.0205739
0.62 0.0211007
0.63 0.0199476
0.64 0.0172576
0.65 0.0132707
0.66 0.00819673
0.67 0.00253248
0.68 -0.00334386
0.69 -0.00895087
0.7 -0.0138746
0.71 -0.0176747
0.72 -0.0201975
0.73 -0.0209977
0.74 -0.0202662
0.75 -0.0179007
0.76 -0.0141403
0.77 -0.0092939
0.78 -0.00366553
0.79 0.00224751
0.8 0.00800685
0.81 0.0131756
0.82 0.0173642
0.83 0.0201868
0.84 0.0215826
0.85 0.0211834
0.86 0.0192837
0.87 0.0158757
0.88 0.0112825
0.89 0.0058662
0.9 8.38819e-06
0.91 -0.00581947
0.92 -0.0111451
0.93 -0.0156014
0.94 -0.0188492
0.95 -0.0205851
0.96 -0.0208489
0.97 -0.0193852
0.98 -0.0165798
0.99 -0.0125353
1 -0.00765093
1.01 -0.00232849
1.02 0.00297634
1.03 0.00785109
1.04 0.0118021
1.05 0.0145651
1.06 0.0158761
1.07 0.0155452
1.08 0.0137373
1.09 0.01035
1.1 0.0058769
1.11 0.000568748
1.12 -0.00507203
1.13 -0.010584
1.14 -0.0153844
1.15 -0.0191216
1.16 -0.0212156
1.17 -0.0215006
1.18 -0.0197504
1.19 -0.0158449
1.2 -0.0100898
1.21 -0.00244851
1.22 0.0064212
1.23 0.0161631
1.24 0.0261465
1.25 0.0358117
1.26 0.0444397
1.27 0.0516353
1.28 0.056683
1.29 0.0593908
1.3 0.0594606
1.31 0.0566897
1.32 0.0514088
1.33 0.0434126
1.34 0.033439
1.35 0.0217289
1.36 0.00889895
1.37 -0.00448417
1.38 -0.0178152
1.39 -0.0305753
1.4 -0.0421491
1.41 -0.0522086
1.42 -0.0604067
1.43 -0.0664421
1.44 -0.0704432
1.45 -0.072069
1.46 -0.0717821
1.47 -0.0695758
1.48 -0.0657678
1.49 -0.0606722
1.5 -0.054474
1.51 -0.0475685
1.52 -0.0401125
1.53 -0.0323604
1.54 -0.0244452
1.55 -0.0164751
1.56 -0.00851127
1.57 -0.0005923
1.58 0.00727127
1.59 0.0150551
1.6 0.0227215
1.61 0.0302122
1.62 0.0373814
1.63 0.0441203
1.64 0.0501494
1.65 0.0552775
1.66 0.0592205
1.67 0.0616201
1.68 0.0623885
1.69 0.0609718
1.7 0.0575225
1.71 0.0517476
1.72 0.0437189
1.73 0.0336278
1.74 0.0215061
1.75 0.00792383
1.76 -0.00687302
1.77 -0.0222659
1.78 -0.0377653
1.79 -0.05277
1.8 -0.0668623
1.81 -0.0793499
1.82 -0.0901024
1.83 -0.0986963
1.84 -0.105059
1.85 -0.109296
1.86 -0.111357
1.87 -0.11179
1.88 -0.110789
1.89 -0.108967
1.9 -0.106782
1.91 -0.104782
1.92 -0.103362
1.93 -0.103064
1.94 -0.10398
1.95 -0.106349
1.96 -0.110094
1.97 -0.114979
1.98 -0.120732
1.99 -0.126785
2 -0.132552
2.01 -0.137375
2.02 -0.140583
2.03 -0.141372
2.04 -0.139443
2.05 -0.133742
2.06 -0.124455
2.07 -0.111017
2.08 -0.09348
2.09 -0.0721046
2.1 -0.046758
2.11 -0.0183045
2.12 0.0131885
2.13 0.0469114
2.14 0.0824174
2.15 0.119207
2.16 0.156744
2.17 0.194727
2.18 0.23282
2.19 0.270862
2.2 0.308765
2.21 0.346518
2.22 0.384133
2.23 0.421646
2.24 0.459024
2.25 0.496167
2.26 0.532853
2.27 0.568638
2.28 0.60312
2.29 0.635237
2.3 0.664454
2.31 0.689481
2.32 0.709241
2.33 0.722917
2.34 0.7286
2.35 0.72641
2.36 0.714446
2.37 0.693052
2.38 0.661816
2.39 0.620559
2.4 0.570808
2.41 0.512211
2.42 0.44739
2.43 0.377375
2.44 0.304353
2.45 0.230333
2.46 0.157614
2.47 0.0879619
2.48 0.0237958
2.49 -0.0337026
2.5 -0.0831915
2.51 -0.123447
2.52 -0.155093
2.53 -0.176818
2.54 -0.190695
2.55 -0.197008
2.56 -0.197473
2.57 -0.19386
2.58 -0.187786
2.59 -0.181299
2.6 -0.176184
2.61 -0.173896
2.62 -0.175647
2.63 -0.182514
2.64 -0.194328
2.65 -0.211865
2.66 -0.23378
2.67 -0.259604
2.68 -0.287924
2.69 -0.317323
2.7 -0.346166
2.71 -0.373091
2.72 -0.396372
2.73 -0.415152
2.74 -0.42857
2.75 -0.435968
2.76 -0.437988
2.77 -0.43425
2.78 -0.426471
2.79 -0.41547
2.8 -0.402915
2.81 -0.390343
2.82 -0.379602
2.83 -0.371876
2.84 -0.368925
2.85 -0.371301
2.86 -0.379618
2.87 -0.394178
2.88 -0.413969
2.89 -0.438878
2.9 -0.466887
2.91 -0.496722
2.92 -0.526411
2.93 -0.554271
2.94 -0.578074
2.95 -0.596881
2.96 -0.60872
2.97 -0.613393
2.98 -0.610475
2.99 -0.599949
3 -0.583302
3.01 -0.56095
3.02 -0.53539
3.03 -0.508247
3.04 -0.481827
3.05 -0.458009
3.06 -0.439282
3.07 -0.426503
3.08 -0.421719
3.09 -0.4249
3.1 -0.436282
3.11 -0.455606
3.12 -0.481081
3.13 -0.51195
3.14 -0.545498
3.15 -0.57985
3.16 -0.612596
3.17 -0.641895
3.18 -0.665301
3.19 -0.682301
3.2 -0.691186
3.21 -0.6925
3.22 -0.686559
3.23 -0.674349
3.24 -0.658061
3.25 -0.639495
3.26 -0.621433
3.27 -0.606443
3.28 -0.597106
3.29 -0.595134
3.3 -0.60325
3.31 -0.621076
3.32 -0.650165
3.33 -0.688924
3.34 -0.736227
3.35 -0.790023
3.36 -0.847149
3.37 -0.90448
3.38 -0.958579
3.39 -1.00582
3.4 -1.04304
3.41 -1.06837
3.42 -1.07847
3.43 -1.07457
3.44 -1.05505
3.45 -1.02266
3.46 -0.979361
3.47 -0.928348
3.48 -0.873976
3.49 -0.820683
3.5 -0.772722
3.51 -0.734649
3.52 -0.709978
3.53 -0.700344
3.54 -0.708733
3.55 -0.732348
3.56 -0.770918
3.57 -0.819036
3.58 -0.871556
3.59 -0.920673
3.6 -0.959216
3.61 -0.974869
3.62 -0.961489
3.63 -0.907316
3.64 -0.804179
3.65 -0.647855
3.66 -0.42636
3.67 -0.14557
3.68 0.202621
3.69 0.609549
3.7 1.07096
3.71 1.57952
3.72 2.12014
3.73 2.68267
3.74 3.24862
3.75 3.80207
3.76 4.32497
3.77 4.80352
3.78 5.21485
3.79 5.55473
3.8 5.80157
3.81 5.95452
3.82 6.00689
3.83 5.95258
3.84 5.80449
3.85 5.55305
3.86 5.22185
3.87 4.81499
3.88 4.34915
3.89 3.84116
3.9 3.30481
3.91 2.75938
3.92 2.22035
3.93 1.70235
3.94 1.21783
3.95 0.779927
3.96 0.390944
3.97 0.0650059
3.98 -0.204668
3.99 -0.41343
4 -0.565783
4.01 -0.668945
4.02 -0.724866
4.03 -0.747163
4.04 -0.740241
4.05 -0.715446
4.06 -0.680128
4.07 -0.642038
4.08 -0.607084
4.09 -0.581335
4.1 -0.566754
4.11 -0.56603
4.12 -0.579118
4.13 -0.60436
4.14 -0.640617
4.15 -0.683529
4.16 -0.730176
4.17 -0.776258
4.18 -0.818226
4.19 -0.852094
4.2 -0.876134
4.21 -0.886257
4.22 -0.883155
4.23 -0.865202
4.24 -0.8331
4.25 -0.788495
4.26 -0.731814
4.27 -0.666593
4.28 -0.594091
4.29 -0.517323
4.3 -0.438272
4.31 -0.358974
4.32 -0.280852
4.33 -0.205369
4.34 -0.132794
4.35 -0.0635964
4.36 0.00245254
4.37 0.0658818
4.38 0.127033
4.39 0.186769
4.4 0.245419
4.41 0.303366
4.42 0.360581
4.43 0.416618
4.44 0.47093
4.45 0.521958
4.46 0.568751
4.47 0.609315
4.48 0.641877
4.49 0.66523
4.5 0.676465
4.51 0.675929
4.52 0.661068
4.53 0.6326
4.54 0.590365
4.55 0.534469
4.56 0.467429
4.57 0.389328
4.58 0.303871
4.59 0.212813
4.6 0.119123
4.61 0.0253664
4.62 -0.0655294
4.63 -0.15175
4.64 -0.230622
4.65 -0.301202
4.66 -0.362432
4.67 -0.413405
4.68 -0.455288
4.69 -0.487238
4.7 -0.511676
4.71 -0.529257
4.72 -0.541798
4.73 -0.551041
4.74 -0.558429
4.75 -0.565588
4.76 -0.573762
4.77 -0.583806
4.78 -0.596268
4.79 -0.611468
4.8 -0.628972
4.81 -0.64863
4.82 -0.669421
4.83 -0.690581
4.84 -0.711071
4.85 -0.730071
4.86 -0.746447
4.87 -0.759925
4.88 -0.769672
4.89 -0.775827
4.9 -0.778435
4.91 -0.777748
4.92 -0.774652
4.93 -0.769628
4.94 -0.76383
4.95 -0.758096
4.96 -0.753384
4.97 -0.75036
4.98 -0.749937
4.99 -0.752168
5 -0.757603
5.01 -0.765937
5.02 -0.776974
5.03 -0.790346
5.04 -0.805276
5.05 -0.821256
5.06 -0.837431
5.07 -0.853145
5.08 -0.867731
5.09 -0.880771
5.1 -0.891617
5.11 -0.900291
5.12 -0.906315
5.13 -0.909783
5.14 -0.910569
5.15 -0.908408
5.16 -0.903424
5.17 -0.89475
5.18 -0.882374
5.19 -0.86526
5.2 -0.842482
5.21 -0.81331
5.22 -0.775542
5.23 -0.729064
5.24 -0.671362
5.25 -0.602129
5.26 -0.520327
5.27 -0.424751
5.28 -0.316799
5.29 -0.194996
5.3 -0.062451
5.31 0.0799357
5.32 0.229226
5.33 0.382176
5.34 0.534954
5.35 0.683647
5.36 0.823089
5.37 0.949365
5.38 1.05821
5.39 1.14434
5.4 1.20707
5.41 1.23948
5.42 1.24403
5.43 1.21765
5.44 1.16128
5.45 1.07779
5.46 0.966804
5.47 0.835265
5.48 0.684932
5.49 0.522365
5.5 0.352283
5.51 0.18028
5.52 0.0112697
5.53 -0.148736
5.54 -0.296737
5.55 -0.428295
5.56 -0.540875
5.57 -0.633967
5.58 -0.704485
5.59 -0.755758
5.6 -0.786516
5.61 -0.800422
5.62 -0.799586
5.63 -0.78649
5.64 -0.765174
5.65 -0.737662
5.66 -0.707551
5.67 -0.676903
5.68 -0.647699
5.69 -0.620969
5.7 -0.597673
5.71 -0.577299
5.72 -0.559588
5.73 -0.543214
5.74 -0.526896
5.75 -0.508913
5.76 -0.488051
5.77 -0.462276
5.78 -0.43122
5.79 -0.393839
5.8 -0.350139
5.81 -0.300877
5.82 -0.246557
5.83 -0.189334
5.84 -0.130914
5.85 -0.0737955
5.86 -0.0203189
5.87 0.0265587
5.88 0.0654285
5.89 0.0926563
5.9 0.108268
5.91 0.110279
5.92 0.0984585
5.93 0.0737352
5.94 0.03551
5.95 -0.0130541
5.96 -0.0713189
5.97 -0.136169
5.98 -0.205382
5.99 -0.276374
6 -0.346777
6.01 -0.414043
6.02 -0.476823
6.03 -0.533455
6.04 -0.583168
6.05 -0.62608
6.06 -0.66164
6.07 -0.6915
6.08 -0.716029
6.09 -0.737013
6.1 -0.755746
6.11 -0.773693
6.12 -0.792089
6.13 -0.812162
6.14 -0.834359
6.15 -0.85913
6.16 -0.886302
6.17 -0.915285
6.18 -0.945333
6.19 -0.975258
6.2 -1.00375
6.21 -1.02959
6.22 -1.05167
6.23 -1.06872
6.24 -1.0807
6.25 -1.08647
6.26 -1.08703
6.27 -1.08248
6.28 -1.07388
6.29 -1.06249
6.3 -1.04941
6.31 -1.03606
6.32 -1.02348
6.33 -1.01233
6.34 -1.00272
6.35 -0.994151
6.36 -0.985322
6.37 -0.973775
6.38 -0.956924
6.39 -0.930714
6.4 -0.890618
6.41 -0.833107
6.42 -0.750433
6.43 -0.641452
6.44 -0.498209
6.45 -0.31961
6.46 -0.102854
6.47 0.155405
6.48 0.450442
6.49 0.786042
6.5 1.15285
6.51 1.54795
6.52 1.96306
6.53 2.38915
6.54 2.81621
6.55 3.23387
6.56 3.62923
6.57 3.99237
6.58 4.31293
6.59 4.57785
6.6 4.78555
6.61 4.91916
6.62 4.98426
6.63 4.97308
6.64 4.88687
6.65 4.73204
6.66 4.50551
6.67 4.22347
6.68 3.88768
6.69 3.51267
6.7 3.10823
6.71 2.68554
6.72 2.25688
6.73 1.83368
6.74 1.42529
6.75 1.04154
6.76 0.690096
6.77 0.37433
6.78 0.103115
6.79 -0.127654
6.8 -0.312486
6.81 -0.456306
6.82 -0.561251
6.83 -0.629555
6.84 -0.669373
6.85 -0.681826
6.86 -0.67593
6.87 -0.655249
6.88 -0.625216
6.89 -0.590211
6.9 -0.553649
6.91 -0.518314
6.92 -0.486309
6.93 -0.458504
6.94 -0.435285
6.95 -0.416666
6.96 -0.401583
6.97 -0.389614
6.98 -0.37937
6.99 -0.370115
7 -0.361088
7.01 -0.35192
7.02 -0.342566
7.03 -0.333397
7.04 -0.325195
7.05 -0.318961
7.06 -0.315873
7.07 -0.317592
7.08 -0.324779
7.09 -0.339627
7.1 -0.361973
7.11 -0.392893
7.12 -0.432322
7.13 -0.479384
7.14 -0.533975
7.15 -0.593757
7.16 -0.657558
7.17 -0.722937
7.18 -0.787845
7.19 -0.849774
7.2 -0.907143
7.21 -0.957126
7.22 -0.999256
7.23 -1.03195
7.24 -1.05485
7.25 -1.06858
7.26 -1.07275
7.27 -1.06975
7.28 -1.06025
7.29 -1.04668
7.3 -1.03084
7.31 -1.01479
7.32 -1.00021
7.33 -0.989005
7.34 -0.981766
7.35 -0.979291
7.36 -0.981407
7.37 -0.987188
7.38 -0.995549
7.39 -1.00431
7.4 -1.01106
7.41 -1.01309
7.42 -1.00769
7.43 -0.991209
7.44 -0.962397
7.45 -0.916582
7.46 -0.854199
7.47 -0.772793
7.48 -0.672116
7.49 -0.553615
7.5 -0.416415
7.51 -0.264996
7.52 -0.100432
7.53 0.0727156
7.54 0.250834
7.55 0.429407
7.56 0.60435
7.57 0.770061
7.58 0.923523
7.59 1.06
7.6 1.17603
7.61 1.27032
7.62 1.33777
7.63 1.38089
7.64 1.3961
7.65 1.38586
7.66 1.35099
7.67 1.29208
7.68 1.21385
7.69 1.11629
7.7 1.00509
7.71 0.882455
7.72 0.752227
7.73 0.617952
7.74 0.482902
7.75 0.350133
7.76 0.22287
7.77 0.103321
7.78 -0.00645808
7.79 -0.103953
7.8 -0.189263
7.81 -0.259307
7.82 -0.315526
7.83 -0.356641
7.84 -0.382967
7.85 -0.3958
7.86 -0.394311
7.87 -0.381485
7.88 -0.357274
7.89 -0.32417
7.9 -0.283781
7.91 -0.237888
7.92 -0.188979
7.93 -0.138994
7.94 -0.0902587
7.95 -0.0449456
7.96 -0.00522286
7.97 0.0275596
7.98 0.0506626
7.99 0.0641691
8 0.0658835
8.01 0.0561075
8.02 0.0346653
8.03 0.00126482
8.04 -0.0421001
8.05 -0.0957486
8.06 -0.156814
8.07 -0.224138
8.08 -0.295525
8.09 -0.368872
8.1 -0.442098
8.11 -0.513391
8.12 -0.580747
8.13 -0.642995
8.14 -0.69915
8.15 -0.748185
8.16 -0.790716
8.17 -0.825966
8.18 -0.855527
8.19 -0.879879
8.2 -0.900328
8.21 -0.918251
8.22 -0.934739
8.23 -0.951026
8.24 -0.967918
8.25 -0.985798
8.26 -1.0046
8.27 -1.02365
8.28 -1.04184
8.29 -1.05696
8.3 -1.06706
8.31 -1.06901
8.32 -1.05946
8.33 -1.03606
8.34 -0.993167
8.35 -0.930422
8.36 -0.842408
8.37 -0.728614
8.38 -0.587514
8.39 -0.416867
8.4 -0.220296
8.41 0.00469717
8.42 0.251739
8.43 0.51888
8.44 0.800804
8.45 1.09155
8.46 1.38505
8.47 1.67444
8.48 1.9519
8.49 2.21093
8.5 2.44513
8.51 2.64605
8.52 2.81241
8.53 2.93357
8.54 3.01211
8.55 3.04287
8.56 3.02551
8.57 2.96356
8.58 2.85349
8.59 2.70505
8.6 2.5179
8.61 2.30036
8.62 2.05791
8.63 1.79635
8.64 1.52389
8.65 1.24634
8.66 0.970858
8.67 0.703429
8.68 0.449832
8.69 0.213362
8.7 0.000461139
8.71 -0.189577
8.72 -0.352179
8.73 -0.488629
8.74 -0.599106
8.75 -0.683379
8.76 -0.746067
8.77 -0.786499
8.78 -0.810543
8.79 -0.820117
8.8 -0.818992
8.81 -0.810839
8.82 -0.798358
8.83 -0.784877
8.84 -0.772823
8.85 -0.764198
8.86 -0.760421
8.87 -0.762887
8.88 -0.771342
8.89 -0.786754
8.9 -0.807795
8.91 -0.834129
8.92 -0.864584
8.93 -0.897802
8.94 -0.932644
8.95 -0.967633
8.96 -1.00151
8.97 -1.03321
8.98 -1.06188
8.99 -1.08661
9 -1.10744
9.01 -1.12359
9.02 -1.13574
9.03 -1.14387
9.04 -1.1485
9.05 -1.15034
9.06 -1.14974
9.07 -1.1476
9.08 -1.14425
9.09 -1.1402
9.1 -1.13567
9.11 -1.13065
9.12 -1.12503
9.13 -1.11827
9.14 -1.10991
9.15 -1.09909
9.16 -1.08486
9.17 -1.06658
9.18 -1.04265
9.19 -1.01302
9.2 -0.976254
9.21 -0.932356
9.22 -0.881116
9.23 -0.822231
9.24 -0.756987
9.25 -0.685316
9.26 -0.609264
9.27 -0.530002
9.28 -0.449518
9.29 -0.369705
9.3 -0.293089
9.31 -0.221281
9.32 -0.157006
9.33 -0.101708
9.34 -0.0568938
9.35 -0.0245795
9.36 -0.00409918
9.37 0.00230339
9.38 -0.00335744
9.39 -0.0212688
9.4 -0.0500759
9.41 -0.0876495
9.42 -0.132944
9.43 -0.182808
9.44 -0.235431
9.45 -0.288188
9.46 -0.339012
9.47 -0.385538
9.48 -0.426706
9.49 -0.460208
9.5 -0.486186
9.51 -0.503757
9.52 -0.513106
9.53 -0.515284
9.54 -0.510464
9.55 -0.500886
9.56 -0.487573
9.57 -0.472566
9.58 -0.457472
9.59 -0.444136
9.6 -0.433701
9.61 -0.427989
9.62 -0.427287
9.63 -0.43246
9.64 -0.443649
9.65 -0.460289
9.66 -0.482521
9.67 -0.508821
9.68 -0.5387
9.69 -0.5708
9.7 -0.604119
9.71 -0.637606
9.72 -0.670453
9.73 -0.701805
9.74 -0.731405
9.75 -0.758916
9.76 -0.784328
9.77 -0.807899
9.78 -0.829624
9.79 -0.849953
9.8 -0.8688
9.81 -0.886118
9.82 -0.901472
9.83 -0.913755
9.84 -0.922079
9.85 -0.923724
9.86 -0.917139
9.87 -0.898977
9.88 -0.865766
9.89 -0.815324
9.9 -0.741188
9.91 -0.643291
9.92 -0.515372
9.93 -0.356623
9.94 -0.16518
9.95 0.0622111
9.96 0.32151
9.97 0.616412
9.98 0.93982
9.99 1.28998
10 1.66117
10.01 2.04632
10.02 2.43892
10.03 2.83014
10.04 3.21096
10.05 3.57278
10.06 3.90751
10.07 4.20414
10.08 4.46012
10.09 4.66183
10.1 4.81103
10.11 4.90064
10.12 4.92889
10.13 4.89967
10.14 4.80703
10.15 4.66302
10.16 4.46624
10.17 4.22671
10.18 3.95115
10.19 3.64618
10.2 3.32275
10.21 2.98742
10.22 2.65
10.23 2.31783
10.24 1.99848
10.25 1.69648
10.26 1.41967
10.27 1.16789
10.28 0.946412
10.29 0.754125
10.3 0.590659
10.31 0.456228
10.32 0.345391
10.33 0.258412
10.34 0.188626
10.35 0.133429
10.36 0.0884287
10.37 0.0494681
10.38 0.0133092
10.39 -0.0233836
10.4 -0.0632408
10.41 -0.108004
10.42 -0.158776
10.43 -0.216539
10.44 -0.280428
10.45 -0.350706
10.46 -0.425467
10.47 -0.503625
10.48 -0.583354
10.49 -0.662941
10.5 -0.740313
10.51 -0.814156
10.52 -0.882475
10.53 -0.944286
10.54 -0.998661
10.55 -1.04432
10.56 -1.08187
10.57 -1.1099
10.58 -1.12973
10.59 -1.14115
10.6 -1.14478
10.61 -1.14171
10.62 -1.13188
10.63 -1.11699
10.64 -1.09721
10.65 -1.07366
10.66 -1.04699
10.67 -1.01773
10.68 -0.986699
10.69 -0.954208
10.7 -0.920915
10.71 -0.887182
10.72 -0.853457
10.73 -0.820096
10.74 -0.787606
10.75 -0.756253
10.76 -0.726603
10.77 -0.699001
10.78 -0.673853
10.79 -0.651819
10.8 -0.632945
10.81 -0.618192
10.82 -0.607423
10.83 -0.601219
10.84 -0.599844
10.85 -0.603124
10.86 -0.611788
10.87 -0.625044
10.88 -0.643306
10.89 -0.665976
10.9 -0.692698
10.91 -0.723207
10.92 -0.756552
10.93 -0.792454
10.94 -0.82987
10.95 -0.868162
10.96 -0.906468
10.97 -0.944078
10.98 -0.98002
10.99 -1.01385
11 -1.04467
11.01 -1.07213
11.02 -1.09586
11.03 -1.11533
11.04 -1.13094
11.05 -1.14216
11.06 -1.14977
11.07 -1.1539
11.08 -1.15514
11.09 -1.15426
11.1 -1.15177
11.11 -1.14862
11.12 -1.14545
11.13 -1.14294
11.14 -1.14156
11.15 -1.14172
11.16 -1.14331
11.17 -1.1463
11.18 -1.14993
11.19 -1.15336
11.2 -1.15521
11.21 -1.15414
11.22 -1.14755
11.23 -1.13414
11.24 -1.11072
11.25 -1.07539
11.26 -1.02602
11.27 -0.959201
11.28 -0.875158
11.29 -0.769513
11.3 -0.643944
11.31 -0.496797
11.32 -0.328457
11.33 -0.141377
11.34 0.0649043
11.35 0.285114
11.36 0.51746
11.37 0.756904
11.38 0.999149
11.39 1.23878
11.4 1.4713
11.41 1.68975
11.42 1.89065
11.43 2.0682
11.44 2.2177
11.45 2.3378
11.46 2.42111
11.47 2.471
11.48 2.4825
11.49 2.45816
11.5 2.3992
11.51 2.30562
11.52 2.18409
11.53 2.03435
11.54 1.86422
11.55 1.67697
11.56 1.47799
11.57 1.27264
11.58 1.06561
11.59 0.861496
11.6 0.664813
11.61 0.478745
11.62 0.305819
11.63 0.14922
11.64 0.00824109
11.65 -0.114114
11.66 -0.220338
11.67 -0.310202
11.68 -0.385185
11.69 -0.44793
11.7 -0.499067
11.71 -0.542349
11.72 -0.579082
11.73 -0.611874
11.74 -0.642477
11.75 -0.67248
11.76 -0.703011
11.77 -0.734955
11.78 -0.768406
11.79 -0.803273
11.8 -0.838884
11.81 -0.874288
11.82 -0.907937
11.83 -0.938564
11.84 -0.964029
11.85 -0.98274
11.86 -0.993064
11.87 -0.992507
11.88 -0.980923
11.89 -0.955189
11.9 -0.916073
11.91 -0.862167
11.92 -0.793256
11.93 -0.710626
11.94 -0.613109
11.95 -0.50389
11.96 -0.383112
11.97 -0.253489
11.98 -0.117138
11.99 0.023607
12 0.165773
12.01 0.306447
12.02 0.442898
12.03 0.572115
12.04 0.691104
12.05 0.798316
12.06 0.889489
12.07 0.965088
12.08 1.02175
12.09 1.05959
12.1 1.07828
12.11 1.07653
12.12 1.0572
12.13 1.01874
12.14 0.965035
12.15 0.897009
12.16 0.817132
12.17 0.728539
12.18 0.633068
12.19 0.534316
12.2 0.434597
12.21 0.336581
12.22 0.242303
12.23 0.15411
12.24 0.0726143
12.25 -7.72271e-05
12.26 -0.0645529
12.27 -0.120314
12.28 -0.167845
12.29 -0.208517
12.3 -0.242716
12.31 -0.272743
12.32 -0.299694
12.33 -0.325426
12.34 -0.351339
12.35 -0.378911
12.36 -0.408883
12.37 -0.442351
12.38 -0.479125
12.39 -0.519197
12.4 -0.561848
12.41 -0.60591
