# xPDFsuite Configuration #
[PDF]
wavelength = 0.1432
dataformat = twotheta
inputfile = 1_1Pd_CeO2_cycle-00498.chi
backgroundfile = background-00000.chi
mode = xray
bgscale = 1.007
composition = CeO2
outputtype = gr
qmaxinst = 28.8974762299
qmin = 0.5
qmax = 27.9
rmax = 50.0
rmin = 0.0
rstep = 0.01
rpoly = 1.8657

[Misc]
inputdir = G:/SankarDec16/1Pd/Chi
savedir = D:/DATA/APS_CeO2/1Pd
backgroundfilefull = G:/SankarDec16/Background/background-00000.chi

#### start data
#S 1
#L r($\AA$)  G($\AA^{-2}$)
0 0
0.01 -0.00203436
0.02 -0.00391342
0.03 -0.00547744
0.04 -0.00660646
0.05 -0.00723418
0.06 -0.00725437
0.07 -0.00673988
0.08 -0.00565856
0.09 -0.00414866
0.1 -0.00230678
0.11 -0.000279702
0.12 0.00177491
0.13 0.00367791
0.14 0.00530665
0.15 0.00650843
0.16 0.00719684
0.17 0.00733974
0.18 0.00686896
0.19 0.00589396
0.2 0.00442519
0.21 0.00262513
0.22 0.000615222
0.23 -0.00143912
0.24 -0.00339133
0.25 -0.00504855
0.26 -0.00632772
0.27 -0.00709197
0.28 -0.00729337
0.29 -0.00693592
0.3 -0.00599348
0.31 -0.00460609
0.32 -0.00282626
0.33 -0.000831669
0.34 0.00123827
0.35 0.00320876
0.36 0.00495273
0.37 0.00627458
0.38 0.00713565
0.39 0.00742281
0.4 0.00712951
0.41 0.00629587
0.42 0.0049395
0.43 0.00322319
0.44 0.00123875
0.45 -0.000830891
0.46 -0.00283631
0.47 -0.00460311
0.48 -0.00603115
0.49 -0.00693329
0.5 -0.00731771
0.51 -0.00710172
0.52 -0.00632082
0.53 -0.00504921
0.54 -0.00334768
0.55 -0.00139264
0.56 0.000689745
0.57 0.0027216
0.58 0.00455203
0.59 0.00601686
0.6 0.00704894
0.61 0.00748032
0.62 0.00736595
0.63 0.00665862
0.64 0.00543426
0.65 0.00379725
0.66 0.00184863
0.67 -0.000231472
0.68 -0.00228933
0.69 -0.00416205
0.7 -0.00570573
0.71 -0.00677548
0.72 -0.00734106
0.73 -0.00726273
0.74 -0.0066393
0.75 -0.00546112
0.76 -0.00384
0.77 -0.00190415
0.78 0.000211856
0.79 0.00233449
0.8 0.00429264
0.81 0.00594766
0.82 0.00717154
0.83 0.0078472
0.84 0.00798218
0.85 0.00747296
0.86 0.00645395
0.87 0.00495144
0.88 0.00310278
0.89 0.00104833
0.9 -0.00105907
0.91 -0.00306744
0.92 -0.0048099
0.93 -0.00618683
0.94 -0.00710438
0.95 -0.00749357
0.96 -0.00740264
0.97 -0.00679346
0.98 -0.00582382
0.99 -0.00456993
1 -0.0031885
1.01 -0.00182096
1.02 -0.000636544
1.03 0.000264292
1.04 0.000731409
1.05 0.000737954
1.06 0.000253018
1.07 -0.000704906
1.08 -0.00201515
1.09 -0.003589
1.1 -0.00521911
1.11 -0.00671612
1.12 -0.00785697
1.13 -0.00846343
1.14 -0.0082617
1.15 -0.00720833
1.16 -0.00507067
1.17 -0.00190074
1.18 0.00231054
1.19 0.00749583
1.2 0.0134116
1.21 0.0199196
1.22 0.0266483
1.23 0.0332968
1.24 0.0394892
1.25 0.0449154
1.26 0.0491024
1.27 0.0519172
1.28 0.052893
1.29 0.0519999
1.3 0.0490763
1.31 0.0440184
1.32 0.0370926
1.33 0.0281447
1.34 0.0177065
1.35 0.00592902
1.36 -0.00675579
1.37 -0.0199388
1.38 -0.0331761
1.39 -0.0460423
1.4 -0.0580206
1.41 -0.0687666
1.42 -0.0778942
1.43 -0.0849912
1.44 -0.0900315
1.45 -0.0924438
1.46 -0.0925139
1.47 -0.0899781
1.48 -0.0849641
1.49 -0.0776803
1.5 -0.0681032
1.51 -0.0567678
1.52 -0.0437637
1.53 -0.0296166
1.54 -0.0146721
1.55 0.000624682
1.56 0.0158421
1.57 0.0304497
1.58 0.0441041
1.59 0.0562991
1.6 0.0666645
1.61 0.0749653
1.62 0.0806655
1.63 0.0839075
1.64 0.0842216
1.65 0.0818401
1.66 0.0767472
1.67 0.0690167
1.68 0.0591344
1.69 0.047111
1.7 0.033668
1.71 0.0191229
1.72 0.00404968
1.73 -0.011055
1.74 -0.0256115
1.75 -0.0392408
1.76 -0.051369
1.77 -0.0617818
1.78 -0.0702065
1.79 -0.0764284
1.8 -0.0806621
1.81 -0.0826955
1.82 -0.0830846
1.83 -0.0819967
1.84 -0.0799206
1.85 -0.077327
1.86 -0.0747263
1.87 -0.0725806
1.88 -0.0714305
1.89 -0.0715772
1.9 -0.0733185
1.91 -0.0768894
1.92 -0.0821265
1.93 -0.0891787
1.94 -0.0975162
1.95 -0.106878
1.96 -0.116693
1.97 -0.126411
1.98 -0.135297
1.99 -0.142847
2 -0.148214
2.01 -0.151007
2.02 -0.150708
2.03 -0.146796
2.04 -0.13943
2.05 -0.12791
2.06 -0.112902
2.07 -0.0942457
2.08 -0.072359
2.09 -0.0477197
2.1 -0.0205203
2.11 0.00848416
2.12 0.0390769
2.13 0.0707084
2.14 0.103098
2.15 0.136006
2.16 0.169246
2.17 0.202808
2.18 0.236663
2.19 0.270912
2.2 0.305651
2.21 0.34094
2.22 0.376884
2.23 0.413353
2.24 0.450246
2.25 0.4872
2.26 0.52377
2.27 0.559233
2.28 0.592993
2.29 0.623692
2.3 0.650768
2.31 0.672819
2.32 0.688842
2.33 0.698186
2.34 0.699149
2.35 0.692199
2.36 0.675823
2.37 0.650744
2.38 0.616939
2.39 0.57466
2.4 0.525528
2.41 0.469675
2.42 0.409464
2.43 0.346018
2.44 0.281231
2.45 0.216715
2.46 0.154375
2.47 0.0953403
2.48 0.0414185
2.49 -0.00681079
2.5 -0.0485756
2.51 -0.0832674
2.52 -0.111636
2.53 -0.133026
2.54 -0.149136
2.55 -0.160369
2.56 -0.16804
2.57 -0.173387
2.58 -0.177526
2.59 -0.181672
2.6 -0.186863
2.61 -0.193798
2.62 -0.202997
2.63 -0.214805
2.64 -0.228907
2.65 -0.245329
2.66 -0.263183
2.67 -0.281895
2.68 -0.300553
2.69 -0.31838
2.7 -0.33437
2.71 -0.348123
2.72 -0.358816
2.73 -0.366456
2.74 -0.370978
2.75 -0.37257
2.76 -0.372005
2.77 -0.369775
2.78 -0.367031
2.79 -0.36471
2.8 -0.363892
2.81 -0.365372
2.82 -0.370299
2.83 -0.378747
2.84 -0.391484
2.85 -0.40808
2.86 -0.428267
2.87 -0.451414
2.88 -0.476344
2.89 -0.501992
2.9 -0.52693
2.91 -0.549741
2.92 -0.56906
2.93 -0.583981
2.94 -0.592978
2.95 -0.596281
2.96 -0.592918
2.97 -0.583706
2.98 -0.569119
2.99 -0.550077
3 -0.528246
3.01 -0.504974
3.02 -0.482182
3.03 -0.461629
3.04 -0.445022
3.05 -0.433481
3.06 -0.428809
3.07 -0.430741
3.08 -0.440378
3.09 -0.456735
3.1 -0.479221
3.11 -0.506731
3.12 -0.537334
3.13 -0.569465
3.14 -0.600973
3.15 -0.629913
3.16 -0.654455
3.17 -0.673468
3.18 -0.685147
3.19 -0.689957
3.2 -0.687013
3.21 -0.677631
3.22 -0.662773
3.23 -0.644046
3.24 -0.623659
3.25 -0.603914
3.26 -0.587028
3.27 -0.575456
3.28 -0.571183
3.29 -0.575288
3.3 -0.589837
3.31 -0.613773
3.32 -0.647964
3.33 -0.690399
3.34 -0.739619
3.35 -0.793356
3.36 -0.848719
3.37 -0.902615
3.38 -0.952309
3.39 -0.994674
3.4 -1.02729
3.41 -1.04893
3.42 -1.05708
3.43 -1.05324
3.44 -1.03643
3.45 -1.00927
3.46 -0.973653
3.47 -0.932391
3.48 -0.88901
3.49 -0.847105
3.5 -0.809791
3.51 -0.780394
3.52 -0.761189
3.53 -0.752959
3.54 -0.757195
3.55 -0.77124
3.56 -0.79382
3.57 -0.820245
3.58 -0.84582
3.59 -0.863695
3.6 -0.868459
3.61 -0.849463
3.62 -0.802771
3.63 -0.718949
3.64 -0.592177
3.65 -0.4199
3.66 -0.193128
3.67 0.0822982
3.68 0.412087
3.69 0.788379
3.7 1.20702
3.71 1.66134
3.72 2.13901
3.73 2.63104
3.74 3.12286
3.75 3.60136
3.76 4.05216
3.77 4.46446
3.78 4.81974
3.79 5.11517
3.8 5.3332
3.81 5.4734
3.82 5.53029
3.83 5.49863
3.84 5.38876
3.85 5.19199
3.86 4.92726
3.87 4.5969
3.88 4.21372
3.89 3.79094
3.9 3.33839
3.91 2.87215
3.92 2.40361
3.93 1.94526
3.94 1.50728
3.95 1.10068
3.96 0.728734
3.97 0.403353
3.98 0.121047
3.99 -0.113137
4 -0.301045
4.01 -0.447032
4.02 -0.550609
4.03 -0.621976
4.04 -0.662737
4.05 -0.681689
4.06 -0.684072
4.07 -0.675544
4.08 -0.661908
4.09 -0.647353
4.1 -0.635482
4.11 -0.628974
4.12 -0.629319
4.13 -0.636668
4.14 -0.651421
4.15 -0.671553
4.16 -0.696005
4.17 -0.722249
4.18 -0.748164
4.19 -0.77115
4.2 -0.789541
4.21 -0.800364
4.22 -0.803158
4.23 -0.796118
4.24 -0.778763
4.25 -0.751427
4.26 -0.713254
4.27 -0.666287
4.28 -0.610362
4.29 -0.547459
4.3 -0.478695
4.31 -0.40535
4.32 -0.329137
4.33 -0.251056
4.34 -0.172549
4.35 -0.0945982
4.36 -0.0181638
4.37 0.056136
4.38 0.127323
4.39 0.195295
4.4 0.259114
4.41 0.318655
4.42 0.373418
4.43 0.422664
4.44 0.466521
4.45 0.50348
4.46 0.533975
4.47 0.556898
4.48 0.571853
4.49 0.578824
4.5 0.576484
4.51 0.565871
4.52 0.545843
4.53 0.517341
4.54 0.480553
4.55 0.43573
4.56 0.384398
4.57 0.326532
4.58 0.264136
4.59 0.197975
4.6 0.129475
4.61 0.0598968
4.62 -0.00949118
4.63 -0.0776428
4.64 -0.143336
4.65 -0.205891
4.66 -0.264624
4.67 -0.31882
4.68 -0.368688
4.69 -0.413368
4.7 -0.453636
4.71 -0.489275
4.72 -0.52068
4.73 -0.54838
4.74 -0.572382
4.75 -0.593553
4.76 -0.61192
4.77 -0.628077
4.78 -0.642273
4.79 -0.654704
4.8 -0.66574
4.81 -0.675338
4.82 -0.683833
4.83 -0.691242
4.84 -0.697703
4.85 -0.703368
4.86 -0.70829
4.87 -0.712707
4.88 -0.716725
4.89 -0.720566
4.9 -0.724405
4.91 -0.72845
4.92 -0.732833
4.93 -0.737775
4.94 -0.743301
4.95 -0.749516
4.96 -0.75641
4.97 -0.763905
4.98 -0.77196
4.99 -0.780369
5 -0.789005
5.01 -0.797669
5.02 -0.806202
5.03 -0.814432
5.04 -0.822288
5.05 -0.829628
5.06 -0.836498
5.07 -0.842873
5.08 -0.848805
5.09 -0.854362
5.1 -0.85953
5.11 -0.86434
5.12 -0.868633
5.13 -0.872215
5.14 -0.874729
5.15 -0.875527
5.16 -0.874147
5.17 -0.869212
5.18 -0.860167
5.19 -0.845498
5.2 -0.823941
5.21 -0.794673
5.22 -0.755355
5.23 -0.706276
5.24 -0.645206
5.25 -0.572493
5.26 -0.487741
5.27 -0.390606
5.28 -0.283013
5.29 -0.164579
5.3 -0.03853
5.31 0.0936327
5.32 0.228937
5.33 0.364494
5.34 0.496607
5.35 0.622512
5.36 0.73782
5.37 0.83998
5.38 0.925976
5.39 0.992134
5.4 1.03868
5.41 1.06067
5.42 1.06078
5.43 1.03709
5.44 0.990802
5.45 0.924342
5.46 0.837636
5.47 0.73586
5.48 0.620222
5.49 0.495326
5.5 0.364337
5.51 0.230897
5.52 0.0983395
5.53 -0.0296136
5.54 -0.150839
5.55 -0.262509
5.56 -0.362851
5.57 -0.451322
5.58 -0.525701
5.59 -0.587718
5.6 -0.636075
5.61 -0.672597
5.62 -0.698066
5.63 -0.713296
5.64 -0.720568
5.65 -0.720069
5.66 -0.714127
5.67 -0.703357
5.68 -0.688828
5.69 -0.671361
5.7 -0.651114
5.71 -0.628674
5.72 -0.603794
5.73 -0.576562
5.74 -0.546778
5.75 -0.514102
5.76 -0.478714
5.77 -0.440132
5.78 -0.398935
5.79 -0.355232
5.8 -0.309664
5.81 -0.263029
5.82 -0.216305
5.83 -0.17058
5.84 -0.127289
5.85 -0.0875883
5.86 -0.0527233
5.87 -0.0242596
5.88 -0.00244705
5.89 0.0106857
5.9 0.0157905
5.91 0.0119476
5.92 -0.000632919
5.93 -0.0211622
5.94 -0.0498744
5.95 -0.0848335
5.96 -0.125736
5.97 -0.17087
5.98 -0.219116
5.99 -0.269253
6 -0.320031
6.01 -0.370395
6.02 -0.419559
6.03 -0.466805
6.04 -0.51171
6.05 -0.554213
6.06 -0.594008
6.07 -0.631607
6.08 -0.667004
6.09 -0.700724
6.1 -0.733076
6.11 -0.764342
6.12 -0.794853
6.13 -0.824623
6.14 -0.853743
6.15 -0.882015
6.16 -0.909154
6.17 -0.934879
6.18 -0.958511
6.19 -0.979889
6.2 -0.998262
6.21 -1.01349
6.22 -1.02531
6.23 -1.03345
6.24 -1.03838
6.25 -1.03987
6.26 -1.0388
6.27 -1.03549
6.28 -1.03063
6.29 -1.02482
6.3 -1.01851
6.31 -1.01204
6.32 -1.0054
6.33 -0.998241
6.34 -0.989805
6.35 -0.978609
6.36 -0.96335
6.37 -0.940797
6.38 -0.909243
6.39 -0.864961
6.4 -0.804579
6.41 -0.725911
6.42 -0.622944
6.43 -0.496104
6.44 -0.339665
6.45 -0.154006
6.46 0.0621337
6.47 0.310302
6.48 0.586032
6.49 0.89121
6.5 1.21823
6.51 1.56422
6.52 1.92252
6.53 2.28626
6.54 2.64744
6.55 2.99872
6.56 3.33015
6.57 3.63466
6.58 3.90459
6.59 4.13014
6.6 4.31046
6.61 4.43247
6.62 4.50055
6.63 4.50841
6.64 4.45658
6.65 4.3496
6.66 4.18402
6.67 3.97206
6.68 3.71376
6.69 3.4199
6.7 3.09734
6.71 2.75378
6.72 2.39912
6.73 2.04096
6.74 1.68772
6.75 1.34689
6.76 1.02522
6.77 0.726488
6.78 0.458318
6.79 0.219322
6.8 0.0149779
6.81 -0.156912
6.82 -0.296631
6.83 -0.404282
6.84 -0.48549
6.85 -0.539289
6.86 -0.572781
6.87 -0.587808
6.88 -0.588518
6.89 -0.578831
6.9 -0.561051
6.91 -0.538888
6.92 -0.514159
6.93 -0.488943
6.94 -0.46448
6.95 -0.441808
6.96 -0.421203
6.97 -0.403252
6.98 -0.387609
6.99 -0.374355
7 -0.363312
7.01 -0.354268
7.02 -0.347476
7.03 -0.342758
7.04 -0.340675
7.05 -0.34146
7.06 -0.345626
7.07 -0.353998
7.08 -0.366646
7.09 -0.384849
7.1 -0.40824
7.11 -0.437423
7.12 -0.472278
7.13 -0.512208
7.14 -0.557186
7.15 -0.605712
7.16 -0.657106
7.17 -0.70981
7.18 -0.762519
7.19 -0.813605
7.2 -0.861957
7.21 -0.905659
7.22 -0.944233
7.23 -0.976457
7.24 -1.00184
7.25 -1.02061
7.26 -1.03212
7.27 -1.03782
7.28 -1.03779
7.29 -1.03351
7.3 -1.02604
7.31 -1.01653
7.32 -1.00626
7.33 -0.996248
7.34 -0.987222
7.35 -0.979705
7.36 -0.973771
7.37 -0.969044
7.38 -0.964841
7.39 -0.960022
7.4 -0.952981
7.41 -0.942072
7.42 -0.925481
7.43 -0.900699
7.44 -0.86689
7.45 -0.820638
7.46 -0.762197
7.47 -0.689636
7.48 -0.602583
7.49 -0.501929
7.5 -0.38671
7.51 -0.260129
7.52 -0.122669
7.53 0.0223564
7.54 0.172353
7.55 0.324037
7.56 0.474144
7.57 0.618484
7.58 0.754383
7.59 0.878018
7.6 0.986336
7.61 1.07794
7.62 1.14838
7.63 1.19918
7.64 1.227
7.65 1.23332
7.66 1.21841
7.67 1.1822
7.68 1.1284
7.69 1.05638
7.7 0.97091
7.71 0.873489
7.72 0.767276
7.73 0.655378
7.74 0.540328
7.75 0.425171
7.76 0.312563
7.77 0.204763
7.78 0.103737
7.79 0.0118289
7.8 -0.0706624
7.81 -0.140982
7.82 -0.200012
7.83 -0.246489
7.84 -0.280472
7.85 -0.30291
7.86 -0.312928
7.87 -0.31298
7.88 -0.302878
7.89 -0.284676
7.9 -0.25966
7.91 -0.229219
7.92 -0.195481
7.93 -0.159895
7.94 -0.124497
7.95 -0.0910136
7.96 -0.0612538
7.97 -0.0364078
7.98 -0.0186828
7.99 -0.00819271
8 -0.00675654
8.01 -0.0142953
8.02 -0.0310792
8.03 -0.0575039
8.04 -0.0921046
8.05 -0.135339
8.06 -0.185001
8.07 -0.240322
8.08 -0.299649
8.09 -0.36132
8.1 -0.423809
8.11 -0.485538
8.12 -0.544959
8.13 -0.600986
8.14 -0.652719
8.15 -0.699195
8.16 -0.740696
8.17 -0.776408
8.18 -0.807385
8.19 -0.833789
8.2 -0.856441
8.21 -0.876303
8.22 -0.893949
8.23 -0.910369
8.24 -0.925949
8.25 -0.940998
8.26 -0.955395
8.27 -0.968496
8.28 -0.979547
8.29 -0.986594
8.3 -0.98829
8.31 -0.982063
8.32 -0.965279
8.33 -0.936181
8.34 -0.890124
8.35 -0.827036
8.36 -0.742461
8.37 -0.636108
8.38 -0.50677
8.39 -0.352619
8.4 -0.176717
8.41 0.0230433
8.42 0.241346
8.43 0.47661
8.44 0.724449
8.45 0.979922
8.46 1.23805
8.47 1.49308
8.48 1.73857
8.49 1.96906
8.5 2.17918
8.51 2.36184
8.52 2.51586
8.53 2.63225
8.54 2.713
8.55 2.75361
8.56 2.75355
8.57 2.71559
8.58 2.63637
8.59 2.52389
8.6 2.37742
8.61 2.2037
8.62 2.007
8.63 1.79173
8.64 1.56481
8.65 1.33042
8.66 1.09478
8.67 0.862589
8.68 0.638636
8.69 0.425913
8.7 0.229533
8.71 0.0495584
8.72 -0.110235
8.73 -0.250344
8.74 -0.370521
8.75 -0.47012
8.76 -0.552366
8.77 -0.616168
8.78 -0.665825
8.79 -0.70236
8.8 -0.728347
8.81 -0.74652
8.82 -0.75841
8.83 -0.766863
8.84 -0.773355
8.85 -0.779672
8.86 -0.786994
8.87 -0.796435
8.88 -0.808326
8.89 -0.823413
8.9 -0.84131
8.91 -0.862021
8.92 -0.885086
8.93 -0.909864
8.94 -0.935843
8.95 -0.962199
8.96 -0.988266
8.97 -1.01339
8.98 -1.03702
8.99 -1.05854
9 -1.07786
9.01 -1.09434
9.02 -1.10823
9.03 -1.11933
9.04 -1.12773
9.05 -1.13373
9.06 -1.13722
9.07 -1.13874
9.08 -1.13821
9.09 -1.13592
9.1 -1.1319
9.11 -1.12602
9.12 -1.11836
9.13 -1.10839
9.14 -1.09606
9.15 -1.08081
9.16 -1.06212
9.17 -1.03978
9.18 -1.01271
9.19 -0.981157
9.2 -0.944178
9.21 -0.901923
9.22 -0.854335
9.23 -0.801261
9.24 -0.743658
9.25 -0.681497
9.26 -0.616235
9.27 -0.548707
9.28 -0.480332
9.29 -0.41247
9.3 -0.346967
9.31 -0.285021
9.32 -0.228688
9.33 -0.179112
9.34 -0.13751
9.35 -0.105547
9.36 -0.0828405
9.37 -0.0713364
9.38 -0.0696321
9.39 -0.0781022
9.4 -0.0959069
9.41 -0.121499
9.42 -0.154366
9.43 -0.191976
9.44 -0.233119
9.45 -0.275645
9.46 -0.317881
9.47 -0.357915
9.48 -0.394629
9.49 -0.426115
9.5 -0.452137
9.51 -0.47178
9.52 -0.484906
9.53 -0.492125
9.54 -0.493294
9.55 -0.490091
9.56 -0.48313
9.57 -0.47402
9.58 -0.464039
9.59 -0.454672
9.6 -0.447026
9.61 -0.44264
9.62 -0.442008
9.63 -0.446017
9.64 -0.455022
9.65 -0.46875
9.66 -0.487573
9.67 -0.510317
9.68 -0.536763
9.69 -0.565787
9.7 -0.596545
9.71 -0.628117
9.72 -0.659617
9.73 -0.69017
9.74 -0.719253
9.75 -0.74629
9.76 -0.770915
9.77 -0.793081
9.78 -0.812289
9.79 -0.828829
9.8 -0.842188
9.81 -0.85226
9.82 -0.858571
9.83 -0.860014
9.84 -0.856138
9.85 -0.844476
9.86 -0.824199
9.87 -0.792626
9.88 -0.747183
9.89 -0.686426
9.9 -0.605222
9.91 -0.50393
9.92 -0.377615
9.93 -0.225893
9.94 -0.0474219
9.95 0.160291
9.96 0.393869
9.97 0.656246
9.98 0.941662
9.99 1.24872
10 1.57284
10.01 1.90836
10.02 2.25012
10.03 2.59103
10.04 2.9239
10.05 3.2418
10.06 3.5382
10.07 3.80419
10.08 4.03761
10.09 4.22732
10.1 4.37454
10.11 4.47328
10.12 4.52176
10.13 4.52283
10.14 4.47104
10.15 4.37587
10.16 4.23546
10.17 4.0575
10.18 3.84692
10.19 3.60827
10.2 3.35044
10.21 3.07758
10.22 2.79797
10.23 2.51695
10.24 2.24053
10.25 1.97276
10.26 1.71944
10.27 1.48153
10.28 1.26321
10.29 1.06453
10.3 0.885891
10.31 0.728203
10.32 0.588211
10.33 0.467023
10.34 0.360338
10.35 0.267065
10.36 0.184688
10.37 0.110449
10.38 0.0430227
10.39 -0.0203691
10.4 -0.0808958
10.41 -0.140117
10.42 -0.198937
10.43 -0.258048
10.44 -0.317723
10.45 -0.378122
10.46 -0.438991
10.47 -0.500035
10.48 -0.560759
10.49 -0.620704
10.5 -0.679118
10.51 -0.735677
10.52 -0.789601
10.53 -0.840546
10.54 -0.888098
10.55 -0.931592
10.56 -0.971162
10.57 -1.00584
10.58 -1.03594
10.59 -1.06092
10.6 -1.08052
10.61 -1.09493
10.62 -1.10323
10.63 -1.10616
10.64 -1.10298
10.65 -1.09412
10.66 -1.07969
10.67 -1.05957
10.68 -1.03473
10.69 -1.00496
10.7 -0.971502
10.71 -0.934839
10.72 -0.895923
10.73 -0.855774
10.74 -0.815398
10.75 -0.77584
10.76 -0.738275
10.77 -0.703623
10.78 -0.672728
10.79 -0.646726
10.8 -0.625651
10.81 -0.610806
10.82 -0.601697
10.83 -0.598798
10.84 -0.601997
10.85 -0.610643
10.86 -0.62501
10.87 -0.643774
10.88 -0.666817
10.89 -0.693127
10.9 -0.722014
10.91 -0.752832
10.92 -0.784718
10.93 -0.817113
10.94 -0.849358
10.95 -0.880945
10.96 -0.911396
10.97 -0.940465
10.98 -0.967631
10.99 -0.992955
11 -1.01606
11.01 -1.03697
11.02 -1.05567
11.03 -1.07197
11.04 -1.0862
11.05 -1.09809
11.06 -1.10804
11.07 -1.11606
11.08 -1.12235
11.09 -1.12721
11.1 -1.13072
11.11 -1.13329
11.12 -1.13505
11.13 -1.13626
11.14 -1.13705
11.15 -1.13745
11.16 -1.13743
11.17 -1.13666
11.18 -1.13478
11.19 -1.13111
11.2 -1.12469
11.21 -1.11471
11.22 -1.09914
11.23 -1.07732
11.24 -1.04676
11.25 -1.00619
11.26 -0.953988
11.27 -0.887488
11.28 -0.806929
11.29 -0.708726
11.3 -0.594189
11.31 -0.461866
11.32 -0.311924
11.33 -0.146255
11.34 0.0357516
11.35 0.229827
11.36 0.434703
11.37 0.646275
11.38 0.861044
11.39 1.0746
11.4 1.28309
11.41 1.48075
11.42 1.66445
11.43 1.82927
11.44 1.97103
11.45 2.08838
11.46 2.1749
11.47 2.23314
11.48 2.25866
11.49 2.25333
11.5 2.21797
11.51 2.15222
11.52 2.06161
11.53 1.94547
11.54 1.8104
11.55 1.65883
11.56 1.49511
11.57 1.32375
11.58 1.14822
11.59 0.972657
11.6 0.800468
11.61 0.634455
11.62 0.476753
11.63 0.329902
11.64 0.193733
11.65 0.0705856
11.66 -0.0410604
11.67 -0.14083
11.68 -0.229529
11.69 -0.308853
11.7 -0.378853
11.71 -0.44207
11.72 -0.498967
11.73 -0.551154
11.74 -0.599573
11.75 -0.644829
11.76 -0.68776
11.77 -0.728279
11.78 -0.766665
11.79 -0.802522
11.8 -0.835324
11.81 -0.864694
11.82 -0.889233
11.83 -0.908777
11.84 -0.921787
11.85 -0.927712
11.86 -0.925797
11.87 -0.914637
11.88 -0.894698
11.89 -0.864055
11.9 -0.823676
11.91 -0.772796
11.92 -0.711446
11.93 -0.640587
11.94 -0.559384
11.95 -0.46994
11.96 -0.372151
11.97 -0.267672
11.98 -0.157729
11.99 -0.0435979
12 0.0727351
12.01 0.189617
12.02 0.305034
12.03 0.416952
12.04 0.52312
12.05 0.62211
12.06 0.71063
12.07 0.788402
12.08 0.85247
12.09 0.902239
12.1 0.936836
12.11 0.954452
12.12 0.956808
12.13 0.941738
12.14 0.912004
12.15 0.867718
12.16 0.810452
12.17 0.74277
12.18 0.665582
12.19 0.582433
12.2 0.495025
12.21 0.406102
12.22 0.317756
12.23 0.23231
12.24 0.151017
12.25 0.0760274
12.26 0.00752339
12.27 -0.0536227
12.28 -0.107345
12.29 -0.154519
12.3 -0.195066
12.31 -0.230946
12.32 -0.262889
12.33 -0.292579
