# xPDFsuite Configuration #
[PDF]
wavelength = 0.1432
dataformat = twotheta
inputfile = 1_1Pd_CeO2_cycle-00336.chi
backgroundfile = background-00000.chi
mode = xray
bgscale = 1.007
composition = CeO2
outputtype = gr
qmaxinst = 28.8974762299
qmin = 0.5
qmax = 27.9
rmax = 50.0
rmin = 0.0
rstep = 0.01
rpoly = 1.8657

[Misc]
inputdir = G:/SankarDec16/1Pd/Chi
savedir = D:/DATA/APS_CeO2/1Pd
backgroundfilefull = G:/SankarDec16/Background/background-00000.chi

#### start data
#S 1
#L r($\AA$)  G($\AA^{-2}$)
0 0
0.01 -0.00708341
0.02 -0.013633
0.03 -0.019099
0.04 -0.0230676
0.05 -0.0253084
0.06 -0.0254512
0.07 -0.0237427
0.08 -0.0200642
0.09 -0.0148865
0.1 -0.00853562
0.11 -0.00151029
0.12 0.00564571
0.13 0.0123221
0.14 0.018087
0.15 0.0224112
0.16 0.0249852
0.17 0.0256856
0.18 0.0242604
0.19 0.0210728
0.2 0.0161376
0.21 0.0100041
0.22 0.00307807
0.23 -0.00408029
0.24 -0.0109593
0.25 -0.0169016
0.26 -0.0215976
0.27 -0.0245644
0.28 -0.0256116
0.29 -0.0247289
0.3 -0.021795
0.31 -0.0172722
0.32 -0.0113085
0.33 -0.00450551
0.34 0.00267044
0.35 0.00962428
0.36 0.0159011
0.37 0.020828
0.38 0.0242326
0.39 0.0257016
0.4 0.0251734
0.41 0.0227516
0.42 0.0184517
0.43 0.0128133
0.44 0.0061108
0.45 -0.0010301
0.46 -0.00810519
0.47 -0.0145125
0.48 -0.0198762
0.49 -0.0235401
0.5 -0.0254778
0.51 -0.025366
0.52 -0.023275
0.53 -0.0194179
0.54 -0.0139472
0.55 -0.00745418
0.56 -0.000326791
0.57 0.00681488
0.58 0.013453
0.59 0.0190074
0.6 0.0231999
0.61 0.0254228
0.62 0.0257973
0.63 0.0241063
0.64 0.0205495
0.65 0.0154398
0.66 0.00905983
0.67 0.00202469
0.68 -0.00518245
0.69 -0.0119766
0.7 -0.0178514
0.71 -0.0222759
0.72 -0.0250837
0.73 -0.0257445
0.74 -0.0245221
0.75 -0.0213157
0.76 -0.0164447
0.77 -0.0103064
0.78 -0.00329978
0.79 0.0039667
0.8 0.0109395
0.81 0.0170975
0.82 0.021972
0.83 0.0251084
0.84 0.0264603
0.85 0.0256032
0.86 0.0229289
0.87 0.0184585
0.88 0.0126137
0.89 0.00585399
0.9 -0.00132883
0.91 -0.00836814
0.92 -0.0146758
0.93 -0.0198277
0.94 -0.0234268
0.95 -0.0251314
0.96 -0.0250248
0.97 -0.0228343
0.98 -0.0190626
0.99 -0.0138726
1 -0.00777792
1.01 -0.00128178
1.02 0.00503532
1.03 0.0106919
1.04 0.0150805
1.05 0.0179166
1.06 0.018906
1.07 0.017859
1.08 0.0150201
1.09 0.0103188
1.1 0.0043914
1.11 -0.00240821
1.12 -0.00943828
1.13 -0.0161236
1.14 -0.0217233
1.15 -0.0258402
1.16 -0.0277586
1.17 -0.0273236
1.18 -0.0242915
1.19 -0.0185629
1.2 -0.0105632
1.21 -0.000305436
1.22 0.0113639
1.23 0.0239558
1.24 0.0366633
1.25 0.0487827
1.26 0.0593935
1.27 0.0680371
1.28 0.073813
1.29 0.0765235
1.3 0.0758199
1.31 0.0714808
1.32 0.0639573
1.33 0.0530217
1.34 0.0396282
1.35 0.0241046
1.36 0.00724423
1.37 -0.01023
1.38 -0.0275355
1.39 -0.0440242
1.4 -0.0588983
1.41 -0.0717457
1.42 -0.0821146
1.43 -0.0896036
1.44 -0.0943739
1.45 -0.0959458
1.46 -0.0949124
1.47 -0.0912275
1.48 -0.0852838
1.49 -0.0774817
1.5 -0.0680364
1.51 -0.0574982
1.52 -0.0460779
1.53 -0.0341715
1.54 -0.0220148
1.55 -0.00984491
1.56 0.00217206
1.57 0.0138293
1.58 0.0250414
1.59 0.0356282
1.6 0.0454475
1.61 0.054376
1.62 0.0620974
1.63 0.0685613
1.64 0.0733415
1.65 0.0763387
1.66 0.0772835
1.67 0.0758762
1.68 0.0722195
1.69 0.0658383
1.7 0.0571603
1.71 0.0460882
1.72 0.0329575
1.73 0.018181
1.74 0.0021128
1.75 -0.0145624
1.76 -0.0312816
1.77 -0.0473883
1.78 -0.0622856
1.79 -0.0753108
1.8 -0.0862389
1.81 -0.0943273
1.82 -0.0998316
1.83 -0.102506
1.84 -0.102634
1.85 -0.100647
1.86 -0.0968978
1.87 -0.092206
1.88 -0.0871889
1.89 -0.0826269
1.9 -0.0791882
1.91 -0.0775899
1.92 -0.0780706
1.93 -0.0813275
1.94 -0.0870282
1.95 -0.0952661
1.96 -0.105569
1.97 -0.117319
1.98 -0.129804
1.99 -0.142085
2 -0.153096
2.01 -0.161926
2.02 -0.167627
2.03 -0.169158
2.04 -0.166345
2.05 -0.157915
2.06 -0.14449
2.07 -0.125628
2.08 -0.101791
2.09 -0.0736482
2.1 -0.0415194
2.11 -0.00669037
2.12 0.0302697
2.13 0.0682549
2.14 0.106518
2.15 0.144296
2.16 0.181164
2.17 0.216588
2.18 0.250672
2.19 0.283381
2.2 0.315043
2.21 0.34607
2.22 0.376935
2.23 0.408108
2.24 0.440063
2.25 0.472998
2.26 0.506988
2.27 0.541845
2.28 0.577045
2.29 0.611737
2.3 0.644936
2.31 0.675208
2.32 0.701043
2.33 0.7212
2.34 0.733296
2.35 0.737036
2.36 0.730015
2.37 0.712303
2.38 0.683218
2.39 0.64236
2.4 0.591407
2.41 0.529841
2.42 0.460754
2.43 0.385356
2.44 0.306282
2.45 0.225966
2.46 0.1472
2.47 0.0721296
2.48 0.00367477
2.49 -0.056755
2.5 -0.107578
2.51 -0.147388
2.52 -0.177001
2.53 -0.19498
2.54 -0.203887
2.55 -0.204211
2.56 -0.19812
2.57 -0.187798
2.58 -0.175339
2.59 -0.163133
2.6 -0.153424
2.61 -0.147848
2.62 -0.147805
2.63 -0.154498
2.64 -0.167545
2.65 -0.187782
2.66 -0.213401
2.67 -0.243709
2.68 -0.276879
2.69 -0.31113
2.7 -0.344407
2.71 -0.375101
2.72 -0.401126
2.73 -0.421544
2.74 -0.435408
2.75 -0.442056
2.76 -0.442374
2.77 -0.436078
2.78 -0.425298
2.79 -0.41114
2.8 -0.39565
2.81 -0.380657
2.82 -0.368393
2.83 -0.360126
2.84 -0.357881
2.85 -0.362124
2.86 -0.373416
2.87 -0.391899
2.88 -0.416219
2.89 -0.445979
2.9 -0.478735
2.91 -0.512819
2.92 -0.545877
2.93 -0.575974
2.94 -0.600489
2.95 -0.618557
2.96 -0.627994
2.97 -0.628857
2.98 -0.620903
2.99 -0.60443
3 -0.581383
3.01 -0.552633
3.02 -0.521152
3.03 -0.489063
3.04 -0.459088
3.05 -0.433338
3.06 -0.41472
3.07 -0.403893
3.08 -0.403083
3.09 -0.411864
3.1 -0.430188
3.11 -0.457355
3.12 -0.49101
3.13 -0.529807
3.14 -0.570508
3.15 -0.610652
3.16 -0.647385
3.17 -0.678647
3.18 -0.701549
3.19 -0.715872
3.2 -0.719752
3.21 -0.71423
3.22 -0.699981
3.23 -0.678518
3.24 -0.652668
3.25 -0.624898
3.26 -0.598545
3.27 -0.576801
3.28 -0.562694
3.29 -0.558135
3.3 -0.566273
3.31 -0.586376
3.32 -0.620108
3.33 -0.665318
3.34 -0.720473
3.35 -0.782948
3.36 -0.848929
3.37 -0.914597
3.38 -0.975993
3.39 -1.02889
3.4 -1.06974
3.41 -1.09654
3.42 -1.10562
3.43 -1.09863
3.44 -1.07395
3.45 -1.03493
3.46 -0.984021
3.47 -0.925038
3.48 -0.862949
3.49 -0.802939
3.5 -0.749661
3.51 -0.708229
3.52 -0.682424
3.53 -0.673893
3.54 -0.685814
3.55 -0.714845
3.56 -0.760551
3.57 -0.816826
3.58 -0.877957
3.59 -0.935416
3.6 -0.981463
3.61 -1.00295
3.62 -0.99348
3.63 -0.940777
3.64 -0.836541
3.65 -0.676687
3.66 -0.449205
3.67 -0.160676
3.68 0.196648
3.69 0.613278
3.7 1.08426
3.71 1.60141
3.72 2.1491
3.73 2.71621
3.74 3.28414
3.75 3.83645
3.76 4.35511
3.77 4.82662
3.78 5.22819
3.79 5.55653
3.8 5.79057
3.81 5.93045
3.82 5.97034
3.83 5.90516
3.84 5.74835
3.85 5.49152
3.86 5.15826
3.87 4.75324
3.88 4.29307
3.89 3.79418
3.9 3.27023
3.91 2.73938
3.92 2.21653
3.93 1.71515
3.94 1.24674
3.95 0.823334
3.96 0.446573
3.97 0.129353
3.98 -0.135136
3.99 -0.342848
4 -0.49822
4.01 -0.608059
4.02 -0.674174
4.03 -0.70905
4.04 -0.716485
4.05 -0.706663
4.06 -0.685987
4.07 -0.661107
4.08 -0.637292
4.09 -0.619454
4.1 -0.609531
4.11 -0.609687
4.12 -0.619986
4.13 -0.639205
4.14 -0.666431
4.15 -0.698385
4.16 -0.732808
4.17 -0.766496
4.18 -0.796801
4.19 -0.820774
4.2 -0.837204
4.21 -0.843061
4.22 -0.838922
4.23 -0.823553
4.24 -0.79741
4.25 -0.761609
4.26 -0.71619
4.27 -0.663603
4.28 -0.604317
4.29 -0.540291
4.3 -0.472603
4.31 -0.402273
4.32 -0.330337
4.33 -0.257223
4.34 -0.183497
4.35 -0.10933
4.36 -0.0348801
4.37 0.0397358
4.38 0.114341
4.39 0.188647
4.4 0.26209
4.41 0.333976
4.42 0.403348
4.43 0.468725
4.44 0.529244
4.45 0.582298
4.46 0.627335
4.47 0.662101
4.48 0.685272
4.49 0.696344
4.5 0.692961
4.51 0.676652
4.52 0.645768
4.53 0.6021
4.54 0.546401
4.55 0.479779
4.56 0.405049
4.57 0.323294
4.58 0.237821
4.59 0.150625
4.6 0.0642402
4.61 -0.0194309
4.62 -0.0979617
4.63 -0.170637
4.64 -0.235578
4.65 -0.292804
4.66 -0.342046
4.67 -0.38324
4.68 -0.417801
4.69 -0.445671
4.7 -0.468913
4.71 -0.488317
4.72 -0.505288
4.73 -0.520987
4.74 -0.536379
4.75 -0.552215
4.76 -0.569069
4.77 -0.58708
4.78 -0.606224
4.79 -0.626243
4.8 -0.646628
4.81 -0.666777
4.82 -0.686084
4.83 -0.703862
4.84 -0.71955
4.85 -0.732866
4.86 -0.743244
4.87 -0.751018
4.88 -0.755981
4.89 -0.758689
4.9 -0.759537
4.91 -0.759065
4.92 -0.757969
4.93 -0.756845
4.94 -0.756254
4.95 -0.756696
4.96 -0.758503
4.97 -0.761766
4.98 -0.766674
4.99 -0.77288
5 -0.78028
5.01 -0.788417
5.02 -0.796938
5.03 -0.805437
5.04 -0.813617
5.05 -0.821155
5.06 -0.828022
5.07 -0.834171
5.08 -0.839761
5.09 -0.845029
5.1 -0.850267
5.11 -0.855753
5.12 -0.861753
5.13 -0.868313
5.14 -0.87533
5.15 -0.882394
5.16 -0.88888
5.17 -0.893523
5.18 -0.895225
5.19 -0.892109
5.2 -0.88222
5.21 -0.864051
5.22 -0.834249
5.23 -0.792501
5.24 -0.735426
5.25 -0.662878
5.26 -0.573863
5.27 -0.46741
5.28 -0.34587
5.29 -0.20827
5.3 -0.0590253
5.31 0.0999798
5.32 0.264616
5.33 0.430755
5.34 0.593275
5.35 0.748054
5.36 0.888976
5.37 1.01233
5.38 1.11391
5.39 1.18872
5.4 1.23713
5.41 1.25277
5.42 1.23955
5.43 1.19543
5.44 1.12265
5.45 1.02502
5.46 0.90352
5.47 0.765313
5.48 0.61315
5.49 0.453369
5.5 0.29061
5.51 0.130172
5.52 -0.0241442
5.53 -0.166901
5.54 -0.296578
5.55 -0.409827
5.56 -0.505426
5.57 -0.583823
5.58 -0.643325
5.59 -0.687473
5.6 -0.716004
5.61 -0.732355
5.62 -0.738557
5.63 -0.736805
5.64 -0.730019
5.65 -0.719665
5.66 -0.707859
5.67 -0.69559
5.68 -0.683534
5.69 -0.671768
5.7 -0.659877
5.71 -0.647115
5.72 -0.632222
5.73 -0.614059
5.74 -0.591392
5.75 -0.562733
5.76 -0.527934
5.77 -0.485426
5.78 -0.436267
5.79 -0.380396
5.8 -0.319051
5.81 -0.253912
5.82 -0.186764
5.83 -0.120053
5.84 -0.0564418
5.85 0.00166499
5.86 0.051901
5.87 0.0914266
5.88 0.119745
5.89 0.133506
5.9 0.133995
5.91 0.120002
5.92 0.0923389
5.93 0.0527483
5.94 0.00166257
5.95 -0.0574117
5.96 -0.12305
5.97 -0.192122
5.98 -0.262327
5.99 -0.331097
6 -0.396716
6.01 -0.456761
6.02 -0.510805
6.03 -0.557692
6.04 -0.597373
6.05 -0.630545
6.06 -0.657308
6.07 -0.679598
6.08 -0.698257
6.09 -0.715106
6.1 -0.731487
6.11 -0.74884
6.12 -0.768031
6.13 -0.790199
6.14 -0.815285
6.15 -0.843476
6.16 -0.874241
6.17 -0.906727
6.18 -0.939929
6.19 -0.972577
6.2 -1.00324
6.21 -1.03076
6.22 -1.05408
6.23 -1.07206
6.24 -1.08481
6.25 -1.09132
6.26 -1.09272
6.27 -1.08917
6.28 -1.08173
6.29 -1.07161
6.3 -1.05979
6.31 -1.04752
6.32 -1.03561
6.33 -1.02447
6.34 -1.01403
6.35 -1.00352
6.36 -0.991634
6.37 -0.975698
6.38 -0.953367
6.39 -0.920671
6.4 -0.873408
6.41 -0.80844
6.42 -0.718526
6.43 -0.602992
6.44 -0.45454
6.45 -0.272517
6.46 -0.0545744
6.47 0.202122
6.48 0.492945
6.49 0.821182
6.5 1.17804
6.51 1.56071
6.52 1.96147
6.53 2.372
6.54 2.78302
6.55 3.18504
6.56 3.56612
6.57 3.91711
6.58 4.2284
6.59 4.48776
6.6 4.6936
6.61 4.82992
6.62 4.90164
6.63 4.90106
6.64 4.82882
6.65 4.69051
6.66 4.48236
6.67 4.21938
6.68 3.90234
6.69 3.54473
6.7 3.15545
6.71 2.74466
6.72 2.32444
6.73 1.90522
6.74 1.49684
6.75 1.10895
6.76 0.749681
6.77 0.423178
6.78 0.138859
6.79 -0.106181
6.8 -0.305571
6.81 -0.463184
6.82 -0.580289
6.83 -0.658152
6.84 -0.704655
6.85 -0.720009
6.86 -0.713602
6.87 -0.688832
6.88 -0.651562
6.89 -0.606857
6.9 -0.558667
6.91 -0.510847
6.92 -0.466342
6.93 -0.426965
6.94 -0.393894
6.95 -0.368022
6.96 -0.348486
6.97 -0.335687
6.98 -0.327831
6.99 -0.324298
7 -0.323878
7.01 -0.325532
7.02 -0.328674
7.03 -0.332674
7.04 -0.337508
7.05 -0.343311
7.06 -0.35054
7.07 -0.360054
7.08 -0.372367
7.09 -0.388936
7.1 -0.410012
7.11 -0.436597
7.12 -0.469065
7.13 -0.507174
7.14 -0.551333
7.15 -0.600112
7.16 -0.653068
7.17 -0.708522
7.18 -0.765049
7.19 -0.82082
7.2 -0.874351
7.21 -0.923407
7.22 -0.96712
7.23 -1.00392
7.24 -1.03299
7.25 -1.05441
7.26 -1.06726
7.27 -1.07315
7.28 -1.07211
7.29 -1.06591
7.3 -1.05586
7.31 -1.04345
7.32 -1.03035
7.33 -1.01801
7.34 -1.00744
7.35 -0.999493
7.36 -0.994451
7.37 -0.99193
7.38 -0.991361
7.39 -0.991235
7.4 -0.989762
7.41 -0.98479
7.42 -0.97403
7.43 -0.954334
7.44 -0.924414
7.45 -0.880018
7.46 -0.821166
7.47 -0.74535
7.48 -0.651931
7.49 -0.541868
7.5 -0.41387
7.51 -0.271818
7.52 -0.116272
7.53 0.0486717
7.54 0.219786
7.55 0.392974
7.56 0.564162
7.57 0.728131
7.58 0.881581
7.59 1.01981
7.6 1.13912
7.61 1.2379
7.62 1.31088
7.63 1.3601
7.64 1.38177
7.65 1.37801
7.66 1.34942
7.67 1.29637
7.68 1.2235
7.69 1.13062
7.7 1.0235
7.71 0.904272
7.72 0.776836
7.73 0.644809
7.74 0.511441
7.75 0.379893
7.76 0.253342
7.77 0.134018
7.78 0.0239375
7.79 -0.0744762
7.8 -0.161315
7.81 -0.233669
7.82 -0.292926
7.83 -0.33788
7.84 -0.368816
7.85 -0.386918
7.86 -0.391298
7.87 -0.38468
7.88 -0.366814
7.89 -0.339888
7.9 -0.305228
7.91 -0.264235
7.92 -0.21922
7.93 -0.171666
7.94 -0.123896
7.95 -0.077851
7.96 -0.0356907
7.97 0.00106545
7.98 0.0296694
7.99 0.0497292
8 0.0588064
8.01 0.056698
8.02 0.0427984
8.03 0.0162843
8.04 -0.0211801
8.05 -0.0705071
8.06 -0.128918
8.07 -0.195564
8.08 -0.268295
8.09 -0.34482
8.1 -0.423059
8.11 -0.500632
8.12 -0.57525
8.13 -0.64514
8.14 -0.708811
8.15 -0.764615
8.16 -0.812789
8.17 -0.851882
8.18 -0.883393
8.19 -0.907468
8.2 -0.925385
8.21 -0.938746
8.22 -0.948678
8.23 -0.957057
8.24 -0.965038
8.25 -0.973678
8.26 -0.983478
8.27 -0.99447
8.28 -1.00592
8.29 -1.01639
8.3 -1.02399
8.31 -1.02596
8.32 -1.01894
8.33 -1.00036
8.34 -0.96452
8.35 -0.910371
8.36 -0.832149
8.37 -0.728637
8.38 -0.597734
8.39 -0.436519
8.4 -0.248207
8.41 -0.0296049
8.42 0.212986
8.43 0.477926
8.44 0.75989
8.45 1.05265
8.46 1.35006
8.47 1.64461
8.48 1.92811
8.49 2.19344
8.5 2.43367
8.51 2.6398
8.52 2.81023
8.53 2.93378
8.54 3.0131
8.55 3.04286
8.56 3.02289
8.57 2.95708
8.58 2.8422
8.59 2.68859
8.6 2.49647
8.61 2.27471
8.62 2.02928
8.63 1.76657
8.64 1.49489
8.65 1.22055
8.66 0.950407
8.67 0.690461
8.68 0.446111
8.69 0.220116
8.7 0.0183992
8.71 -0.160485
8.72 -0.312696
8.73 -0.440181
8.74 -0.5437
8.75 -0.623707
8.76 -0.684845
8.77 -0.727076
8.78 -0.755803
8.79 -0.772942
8.8 -0.781792
8.81 -0.785362
8.82 -0.785781
8.83 -0.785473
8.84 -0.786069
8.85 -0.788795
8.86 -0.794413
8.87 -0.803565
8.88 -0.815928
8.89 -0.831786
8.9 -0.850261
8.91 -0.870998
8.92 -0.893284
8.93 -0.916431
8.94 -0.939845
8.95 -0.962972
8.96 -0.985323
8.97 -1.00661
8.98 -1.02664
8.99 -1.04521
9 -1.06247
9.01 -1.07826
9.02 -1.09284
9.03 -1.10621
9.04 -1.11845
9.05 -1.12964
9.06 -1.13959
9.07 -1.14835
9.08 -1.15553
9.09 -1.16092
9.1 -1.16416
9.11 -1.16458
9.12 -1.16203
9.13 -1.15541
9.14 -1.14467
9.15 -1.12897
9.16 -1.10781
9.17 -1.08115
9.18 -1.04788
9.19 -1.00874
9.2 -0.962967
9.21 -0.91118
9.22 -0.85368
9.23 -0.790735
9.24 -0.72363
9.25 -0.652764
9.26 -0.579767
9.27 -0.505749
9.28 -0.432274
9.29 -0.360684
9.3 -0.293023
9.31 -0.230227
9.32 -0.174426
9.33 -0.126536
9.34 -0.0876437
9.35 -0.0593005
9.36 -0.0408788
9.37 -0.0342613
9.38 -0.0378256
9.39 -0.0518494
9.4 -0.0753642
9.41 -0.106717
9.42 -0.145288
9.43 -0.188462
9.44 -0.234915
9.45 -0.28241
9.46 -0.32918
9.47 -0.37317
9.48 -0.413231
9.49 -0.447246
9.5 -0.474993
9.51 -0.495432
9.52 -0.508378
9.53 -0.514488
9.54 -0.513521
9.55 -0.507355
9.56 -0.496607
9.57 -0.483093
9.58 -0.468254
9.59 -0.453776
9.6 -0.440993
9.61 -0.431695
9.62 -0.426567
9.63 -0.426721
9.64 -0.432695
9.65 -0.444287
9.66 -0.46209
9.67 -0.484821
9.68 -0.512385
9.69 -0.54354
9.7 -0.577379
9.71 -0.612936
9.72 -0.649134
9.73 -0.685098
9.74 -0.720128
9.75 -0.753623
9.76 -0.785169
9.77 -0.814675
9.78 -0.841709
9.79 -0.866514
9.8 -0.888651
9.81 -0.907987
9.82 -0.924021
9.83 -0.935584
9.84 -0.942042
9.85 -0.940696
9.86 -0.930384
9.87 -0.907982
9.88 -0.870352
9.89 -0.815597
9.9 -0.737586
9.91 -0.636419
9.92 -0.506096
9.93 -0.345874
9.94 -0.153938
9.95 0.0729209
9.96 0.330843
9.97 0.623525
9.98 0.944135
9.99 1.29105
10 1.65875
10.01 2.04034
10.02 2.42947
10.03 2.81743
10.04 3.19531
10.05 3.55456
10.06 3.88709
10.07 4.18196
10.08 4.43654
10.09 4.63724
10.1 4.78577
10.11 4.87506
10.12 4.90333
10.13 4.87451
10.14 4.78274
10.15 4.64004
10.16 4.44518
10.17 4.20819
10.18 3.93584
10.19 3.63484
10.2 3.31603
10.21 2.98601
10.22 2.65439
10.23 2.32838
10.24 2.01529
10.25 1.71942
10.26 1.44824
10.27 1.20135
10.28 0.983652
10.29 0.793799
10.3 0.631232
10.31 0.495906
10.32 0.382536
10.33 0.291193
10.34 0.215609
10.35 0.153346
10.36 0.100419
10.37 0.0531309
10.38 0.00875933
10.39 -0.0355494
10.4 -0.0818327
10.41 -0.131432
10.42 -0.185101
10.43 -0.243405
10.44 -0.305626
10.45 -0.371705
10.46 -0.440238
10.47 -0.510321
10.48 -0.580643
10.49 -0.650095
10.5 -0.717249
10.51 -0.781455
10.52 -0.841473
10.53 -0.89687
10.54 -0.947185
10.55 -0.991704
10.56 -1.03089
10.57 -1.06377
10.58 -1.09109
10.59 -1.11246
10.6 -1.1279
10.61 -1.13779
10.62 -1.14134
10.63 -1.13943
10.64 -1.13137
10.65 -1.11757
10.66 -1.09815
10.67 -1.07293
10.68 -1.04286
10.69 -1.00768
10.7 -0.96867
10.71 -0.926343
10.72 -0.88175
10.73 -0.836035
10.74 -0.790421
10.75 -0.746102
10.76 -0.704536
10.77 -0.666817
10.78 -0.633966
10.79 -0.607361
10.8 -0.586971
10.81 -0.574326
10.82 -0.568692
10.83 -0.570499
10.84 -0.579408
10.85 -0.594455
10.86 -0.615646
10.87 -0.641264
10.88 -0.670837
10.89 -0.703024
10.9 -0.736871
10.91 -0.771415
10.92 -0.805803
10.93 -0.839216
10.94 -0.871222
10.95 -0.90135
10.96 -0.929354
10.97 -0.955299
10.98 -0.978932
10.99 -1.00069
11 -1.02053
11.01 -1.03878
11.02 -1.05562
11.03 -1.07113
11.04 -1.08558
11.05 -1.09887
11.06 -1.11117
11.07 -1.12239
11.08 -1.13249
11.09 -1.14149
11.1 -1.14919
11.11 -1.15576
11.12 -1.16104
11.13 -1.16515
11.14 -1.16813
11.15 -1.16991
11.16 -1.17061
11.17 -1.16993
11.18 -1.16779
11.19 -1.16368
11.2 -1.15689
11.21 -1.1468
11.22 -1.13162
11.23 -1.11068
11.24 -1.08156
11.25 -1.04279
11.26 -0.992534
11.27 -0.927717
11.28 -0.848184
11.29 -0.749648
11.3 -0.633004
11.31 -0.496131
11.32 -0.338629
11.33 -0.162219
11.34 0.0344653
11.35 0.246676
11.36 0.473416
11.37 0.709943
11.38 0.952163
11.39 1.19487
11.4 1.43305
11.41 1.65967
11.42 1.87036
11.43 2.05873
11.44 2.2192
11.45 2.34966
11.46 2.44174
11.47 2.49837
11.48 2.51377
11.49 2.49033
11.5 2.42917
11.51 2.3302
11.52 2.20077
11.53 2.04086
11.54 1.85932
11.55 1.66012
11.56 1.4497
11.57 1.23416
11.58 1.01935
11.59 0.810218
11.6 0.612118
11.61 0.428313
11.62 0.261346
11.63 0.114396
11.64 -0.0141015
11.65 -0.121478
11.66 -0.211421
11.67 -0.284582
11.68 -0.343587
11.69 -0.391957
11.7 -0.431633
11.71 -0.46671
11.72 -0.49947
11.73 -0.532591
11.74 -0.567844
11.75 -0.606844
11.76 -0.64976
11.77 -0.697182
11.78 -0.747882
11.79 -0.800862
11.8 -0.854238
11.81 -0.906096
11.82 -0.953551
11.83 -0.994906
11.84 -1.02701
11.85 -1.04814
11.86 -1.05661
11.87 -1.04986
11.88 -1.02865
11.89 -0.990133
11.9 -0.936356
11.91 -0.86678
11.92 -0.782368
11.93 -0.685352
11.94 -0.575838
11.95 -0.457456
11.96 -0.331309
11.97 -0.200248
11.98 -0.0664453
11.99 0.0677024
12 0.200098
12.01 0.328082
12.02 0.450148
12.03 0.564118
12.04 0.668116
12.05 0.761485
12.06 0.841182
12.07 0.908076
12.08 0.959713
12.09 0.996335
12.1 1.01766
12.11 1.02244
12.12 1.01272
12.13 0.986712
12.14 0.94714
12.15 0.894155
12.16 0.829184
12.17 0.754526
12.18 0.670896
12.19 0.581505
12.2 0.487829
12.21 0.392415
12.22 0.297254
12.23 0.204623
12.24 0.115891
12.25 0.0333569
12.26 -0.0425289
12.27 -0.110586
12.28 -0.170377
12.29 -0.222532
12.3 -0.266466
12.31 -0.304133
12.32 -0.335915
12.33 -0.363567
12.34 -0.38846
12.35 -0.41203
12.36 -0.435672
12.37 -0.46067
12.38 -0.487723
12.39 -0.517415
12.4 -0.549814
12.41 -0.584372
