# xPDFsuite Configuration #
[PDF]
wavelength = 0.1432
dataformat = twotheta
inputfile = 1_1Pd_CeO2_cycle-00021.chi
backgroundfile = background-00000.chi
mode = xray
bgscale = 1.007
composition = CeO2
outputtype = gr
qmaxinst = 28.8974762299
qmin = 0.5
qmax = 27.9
rmax = 50.0
rmin = 0.0
rstep = 0.01
rpoly = 1.8657

[Misc]
inputdir = G:/SankarDec16/1Pd/Chi
savedir = D:/DATA/APS_CeO2/1Pd
backgroundfilefull = G:/SankarDec16/Background/background-00000.chi

#### start data
#S 1
#L r($\AA$)  G($\AA^{-2}$)
0 0
0.01 -0.0070551
0.02 -0.0135788
0.03 -0.0190239
0.04 -0.0229782
0.05 -0.0252123
0.06 -0.0253576
0.07 -0.0236594
0.08 -0.019999
0.09 -0.0148451
0.1 -0.00852168
0.11 -0.0015251
0.12 0.00560328
0.13 0.0122562
0.14 0.0180032
0.15 0.0223172
0.16 0.0248896
0.17 0.0255967
0.18 0.024187
0.19 0.0210212
0.2 0.0161131
0.21 0.0100089
0.22 0.00311226
0.23 -0.00401968
0.24 -0.0108771
0.25 -0.0168057
0.26 -0.021496
0.27 -0.0244667
0.28 -0.0255269
0.29 -0.024665
0.3 -0.0217586
0.31 -0.017267
0.32 -0.0113358
0.33 -0.00456372
0.34 0.0025857
0.35 0.0095202
0.36 0.0157859
0.37 0.0207126
0.38 0.0241266
0.39 0.0256151
0.4 0.0251145
0.41 0.0227262
0.42 0.0184632
0.43 0.0128618
0.44 0.00619293
0.45 -0.000920532
0.46 -0.00797692
0.47 -0.0143766
0.48 -0.0197437
0.49 -0.0234238
0.5 -0.0253877
0.51 -0.0253112
0.52 -0.0232614
0.53 -0.0194482
0.54 -0.0140203
0.55 -0.00756567
0.56 -0.000468097
0.57 0.00665439
0.58 0.0132861
0.59 0.0188483
0.6 0.0230613
0.61 0.025318
0.62 0.0257353
0.63 0.0240939
0.64 0.020589
0.65 0.0155294
0.66 0.00919317
0.67 0.00219244
0.68 -0.00499417
0.69 -0.0117826
0.7 -0.0176677
0.71 -0.0221189
0.72 -0.0249667
0.73 -0.0256799
0.74 -0.0245166
0.75 -0.0213724
0.76 -0.0165615
0.77 -0.0104768
0.78 -0.00351165
0.79 0.00372724
0.8 0.010691
0.81 0.0168578
0.82 0.0217593
0.83 0.0249398
0.84 0.0263486
0.85 0.0255587
0.86 0.0229558
0.87 0.0185563
0.88 0.0127767
0.89 0.00607266
0.9 -0.00106909
0.91 -0.0080822
0.92 -0.0143815
0.93 -0.0195406
0.94 -0.0231607
0.95 -0.0248968
0.96 -0.0248272
0.97 -0.0226743
0.98 -0.0189356
0.99 -0.0137691
1 -0.00768449
1.01 -0.00118355
1.02 0.00515538
1.03 0.0108471
1.04 0.0152821
1.05 0.0181686
1.06 0.0192054
1.07 0.0181926
1.08 0.0153673
1.09 0.010644
1.1 0.00465532
1.11 -0.00225646
1.12 -0.00945381
1.13 -0.0163617
1.14 -0.0222441
1.15 -0.0266916
1.16 -0.0289859
1.17 -0.0289549
1.18 -0.0263406
1.19 -0.0210231
1.2 -0.0134096
1.21 -0.00348329
1.22 0.00792338
1.23 0.0203494
1.24 0.0330055
1.25 0.0451983
1.26 0.0560345
1.27 0.0650426
1.28 0.0713433
1.29 0.0747199
1.3 0.0748185
1.31 0.071405
1.32 0.0648995
1.33 0.055061
1.34 0.0428024
1.35 0.0284232
1.36 0.0126794
1.37 -0.00373746
1.38 -0.0200909
1.39 -0.0357509
1.4 -0.0499698
1.41 -0.062348
1.42 -0.0724605
1.43 -0.079933
1.44 -0.0849131
1.45 -0.086966
1.46 -0.0866422
1.47 -0.0839088
1.48 -0.0791331
1.49 -0.0726851
1.5 -0.0647642
1.51 -0.055864
1.52 -0.0461649
1.53 -0.0360066
1.54 -0.0255776
1.55 -0.0150563
1.56 -0.00457045
1.57 0.0057513
1.58 0.0158397
1.59 0.0255744
1.6 0.0348391
1.61 0.0435182
1.62 0.0513392
1.63 0.0582038
1.64 0.0637098
1.65 0.0676969
1.66 0.0698617
1.67 0.0698516
1.68 0.067693
1.69 0.0628444
1.7 0.0556522
1.71 0.0459381
1.72 0.0339611
1.73 0.020081
1.74 0.00456054
1.75 -0.0119089
1.76 -0.0288354
1.77 -0.0455271
1.78 -0.0613786
1.79 -0.0756942
1.8 -0.0881591
1.81 -0.0979787
1.82 -0.105283
1.83 -0.109725
1.84 -0.111464
1.85 -0.110834
1.86 -0.108034
1.87 -0.103847
1.88 -0.0987435
1.89 -0.0935029
1.9 -0.0887531
1.91 -0.0851937
1.92 -0.0831628
1.93 -0.0833443
1.94 -0.0855904
1.95 -0.0900848
1.96 -0.0965255
1.97 -0.104453
1.98 -0.113356
1.99 -0.122427
2 -0.130826
2.01 -0.137736
2.02 -0.14234
2.03 -0.143723
2.04 -0.141657
2.05 -0.135031
2.06 -0.124273
2.07 -0.108944
2.08 -0.0893496
2.09 -0.065988
2.1 -0.0390252
2.11 -0.00950303
2.12 0.0222213
2.13 0.055262
2.14 0.089078
2.15 0.123138
2.16 0.157091
2.17 0.19069
2.18 0.223965
2.19 0.257018
2.2 0.29014
2.21 0.32365
2.22 0.358018
2.23 0.393454
2.24 0.430351
2.25 0.468642
2.26 0.508206
2.27 0.548613
2.28 0.58914
2.29 0.628654
2.3 0.666049
2.31 0.699669
2.32 0.727882
2.33 0.7494
2.34 0.761665
2.35 0.764524
2.36 0.755461
2.37 0.73472
2.38 0.701697
2.39 0.656109
2.4 0.599862
2.41 0.532551
2.42 0.457531
2.43 0.376193
2.44 0.29139
2.45 0.205726
2.46 0.122238
2.47 0.0431444
2.48 -0.028396
2.49 -0.0909446
2.5 -0.142824
2.51 -0.182537
2.52 -0.211012
2.53 -0.226661
2.54 -0.232282
2.55 -0.228367
2.56 -0.217241
2.57 -0.201264
2.58 -0.182659
2.59 -0.16406
2.6 -0.147894
2.61 -0.13602
2.62 -0.130037
2.63 -0.131385
2.64 -0.139788
2.65 -0.156388
2.66 -0.179361
2.67 -0.208208
2.68 -0.241135
2.69 -0.276324
2.7 -0.311823
2.71 -0.345787
2.72 -0.376153
2.73 -0.401729
2.74 -0.42141
2.75 -0.434317
2.76 -0.441081
2.77 -0.441165
2.78 -0.436464
2.79 -0.427825
2.8 -0.417073
2.81 -0.405902
2.82 -0.396271
2.83 -0.389508
2.84 -0.38743
2.85 -0.39062
2.86 -0.399664
2.87 -0.414774
2.88 -0.434846
2.89 -0.459552
2.9 -0.486787
2.91 -0.515078
2.92 -0.542345
2.93 -0.566882
2.94 -0.586358
2.95 -0.600033
2.96 -0.605994
2.97 -0.604349
2.98 -0.59495
2.99 -0.578169
3 -0.555812
3.01 -0.528833
3.02 -0.499927
3.03 -0.471137
3.04 -0.444963
3.05 -0.423305
3.06 -0.408857
3.07 -0.402071
3.08 -0.404945
3.09 -0.416907
3.1 -0.437764
3.11 -0.466678
3.12 -0.501321
3.13 -0.5402
3.14 -0.580237
3.15 -0.618971
3.16 -0.653681
3.17 -0.682453
3.18 -0.702522
3.19 -0.71387
3.2 -0.714787
3.21 -0.706481
3.22 -0.689764
3.23 -0.666296
3.24 -0.638941
3.25 -0.610323
3.26 -0.583709
3.27 -0.562339
3.28 -0.549185
3.29 -0.546075
3.3 -0.556109
3.31 -0.578397
3.32 -0.61452
3.33 -0.662184
3.34 -0.719745
3.35 -0.784455
3.36 -0.852432
3.37 -0.919724
3.38 -0.982371
3.39 -1.03607
3.4 -1.07728
3.41 -1.10401
3.42 -1.11258
3.43 -1.10473
3.44 -1.07885
3.45 -1.03839
3.46 -0.985858
3.47 -0.925136
3.48 -0.861266
3.49 -0.799501
3.5 -0.74455
3.51 -0.701587
3.52 -0.674438
3.53 -0.664779
3.54 -0.675845
3.55 -0.704284
3.56 -0.749715
3.57 -0.80602
3.58 -0.867498
3.59 -0.925641
3.6 -0.972669
3.61 -0.995478
3.62 -0.987607
3.63 -0.936781
3.64 -0.83466
3.65 -0.677114
3.66 -0.452091
3.67 -0.166096
3.68 0.188684
3.69 0.602844
3.7 1.07152
3.71 1.58662
3.72 2.13258
3.73 2.69841
3.74 3.26555
3.75 3.81765
3.76 4.3367
3.77 4.80919
3.78 5.21241
3.79 5.54293
3.8 5.77969
3.81 5.92268
3.82 5.96596
3.83 5.9043
3.84 5.75099
3.85 5.49742
3.86 5.16704
3.87 4.76433
3.88 4.30574
3.89 3.80761
3.9 3.28338
3.91 2.75133
3.92 2.22619
3.93 1.72156
3.94 1.24901
3.95 0.820686
3.96 0.438465
3.97 0.1154
3.98 -0.155023
3.99 -0.368512
4 -0.529218
4.01 -0.643736
4.02 -0.71353
4.03 -0.751026
4.04 -0.759717
4.05 -0.749795
4.06 -0.727603
4.07 -0.699755
4.08 -0.671755
4.09 -0.648486
4.1 -0.632275
4.11 -0.625464
4.12 -0.628454
4.13 -0.640325
4.14 -0.660531
4.15 -0.686045
4.16 -0.714984
4.17 -0.744316
4.18 -0.771592
4.19 -0.794059
4.2 -0.810391
4.21 -0.817771
4.22 -0.816441
4.23 -0.805116
4.24 -0.783973
4.25 -0.753827
4.26 -0.714431
4.27 -0.66787
4.28 -0.614262
4.29 -0.555268
4.3 -0.491693
4.31 -0.424261
4.32 -0.353989
4.33 -0.280996
4.34 -0.206055
4.35 -0.129288
4.36 -0.0510404
4.37 0.0283201
4.38 0.10842
4.39 0.18858
4.4 0.267934
4.41 0.345435
4.42 0.419822
4.43 0.48927
4.44 0.552802
4.45 0.607443
4.46 0.652752
4.47 0.686345
4.48 0.707007
4.49 0.714432
4.5 0.706382
4.51 0.68478
4.52 0.648226
4.53 0.598894
4.54 0.537856
4.55 0.46659
4.56 0.388098
4.57 0.303868
4.58 0.217182
4.59 0.130224
4.6 0.0454922
4.61 -0.0352615
4.62 -0.109656
4.63 -0.177364
4.64 -0.236706
4.65 -0.2881
4.66 -0.331602
4.67 -0.367539
4.68 -0.397568
4.69 -0.422066
4.7 -0.443149
4.71 -0.461849
4.72 -0.479604
4.73 -0.497469
4.74 -0.51644
4.75 -0.536891
4.76 -0.559253
4.77 -0.58326
4.78 -0.608567
4.79 -0.63452
4.8 -0.660321
4.81 -0.684918
4.82 -0.70758
4.83 -0.727338
4.84 -0.743536
4.85 -0.755947
4.86 -0.763915
4.87 -0.768122
4.88 -0.768457
4.89 -0.765869
4.9 -0.761065
4.91 -0.754974
4.92 -0.748617
4.93 -0.743037
4.94 -0.738979
4.95 -0.737249
4.96 -0.738319
4.97 -0.742264
4.98 -0.749398
4.99 -0.759046
5 -0.771039
5.01 -0.784522
5.02 -0.798827
5.03 -0.813142
5.04 -0.826812
5.05 -0.839024
5.06 -0.849525
5.07 -0.857902
5.08 -0.864119
5.09 -0.868395
5.1 -0.870818
5.11 -0.872002
5.12 -0.872221
5.13 -0.87194
5.14 -0.871379
5.15 -0.870555
5.16 -0.869273
5.17 -0.866798
5.18 -0.862361
5.19 -0.854536
5.2 -0.841666
5.21 -0.822347
5.22 -0.793569
5.23 -0.754721
5.24 -0.702544
5.25 -0.636496
5.26 -0.555301
5.27 -0.457609
5.28 -0.345262
5.29 -0.21681
5.3 -0.0761889
5.31 0.0752075
5.32 0.233671
5.33 0.395302
5.34 0.555448
5.35 0.709821
5.36 0.852576
5.37 0.979712
5.38 1.08685
5.39 1.16874
5.4 1.22523
5.41 1.2496
5.42 1.24519
5.43 1.20952
5.44 1.14432
5.45 1.05306
5.46 0.936215
5.47 0.800934
5.48 0.649596
5.49 0.488681
5.5 0.322881
5.51 0.157619
5.52 -0.00285433
5.53 -0.152906
5.54 -0.290432
5.55 -0.411685
5.56 -0.514935
5.57 -0.600248
5.58 -0.665383
5.59 -0.713742
5.6 -0.74462
5.61 -0.761456
5.62 -0.766225
5.63 -0.761109
5.64 -0.749398
5.65 -0.732608
5.66 -0.713422
5.67 -0.69315
5.68 -0.67297
5.69 -0.653381
5.7 -0.634517
5.71 -0.615903
5.72 -0.596783
5.73 -0.576163
5.74 -0.552986
5.75 -0.525927
5.76 -0.494572
5.77 -0.457479
5.78 -0.41518
5.79 -0.367403
5.8 -0.314924
5.81 -0.258969
5.82 -0.20082
5.83 -0.1425
5.84 -0.0861318
5.85 -0.0338069
5.86 0.0124239
5.87 0.0500598
5.88 0.0784895
5.89 0.0947092
5.9 0.0995803
5.91 0.0918517
5.92 0.071978
5.93 0.0412728
5.94 -0.000204892
5.95 -0.0495025
5.96 -0.105689
5.97 -0.166111
5.98 -0.22889
5.99 -0.291944
6 -0.353642
6.01 -0.412084
6.02 -0.466612
6.03 -0.516212
6.04 -0.560645
6.05 -0.60027
6.06 -0.635
6.07 -0.666162
6.08 -0.694215
6.09 -0.720409
6.1 -0.745602
6.11 -0.770667
6.12 -0.79619
6.13 -0.822679
6.14 -0.85009
6.15 -0.8783
6.16 -0.906788
6.17 -0.934916
6.18 -0.961679
6.19 -0.986405
6.2 -1.00792
6.21 -1.02569
6.22 -1.03917
6.23 -1.04784
6.24 -1.05227
6.25 -1.05218
6.26 -1.04889
6.27 -1.04307
6.28 -1.03596
6.29 -1.0287
6.3 -1.02253
6.31 -1.01813
6.32 -1.01622
6.33 -1.01661
6.34 -1.0187
6.35 -1.02109
6.36 -1.02186
6.37 -1.01752
6.38 -1.00528
6.39 -0.980475
6.4 -0.938463
6.41 -0.875942
6.42 -0.785113
6.43 -0.665725
6.44 -0.510235
6.45 -0.318534
6.46 -0.0886375
6.47 0.181797
6.48 0.487378
6.49 0.830776
6.5 1.20243
6.51 1.59881
6.52 2.01152
6.53 2.43181
6.54 2.84963
6.55 3.25559
6.56 3.63724
6.57 3.98569
6.58 4.29146
6.59 4.54251
6.6 4.73796
6.61 4.86209
6.62 4.9207
6.63 4.90664
6.64 4.82129
6.65 4.67077
6.66 4.45209
6.67 4.18043
6.68 3.85717
6.69 3.49581
6.7 3.1053
6.71 2.69585
6.72 2.27903
6.73 1.86522
6.74 1.46352
6.75 1.08319
6.76 0.731774
6.77 0.412884
6.78 0.135332
6.79 -0.104095
6.8 -0.299535
6.81 -0.454982
6.82 -0.571823
6.83 -0.651402
6.84 -0.701252
6.85 -0.721548
6.86 -0.721094
6.87 -0.70294
6.88 -0.672409
6.89 -0.634104
6.9 -0.591376
6.91 -0.547794
6.92 -0.505772
6.93 -0.466988
6.94 -0.432466
6.95 -0.402978
6.96 -0.377992
6.97 -0.357878
6.98 -0.341437
6.99 -0.328373
7 -0.318029
7.01 -0.309871
7.02 -0.303941
7.03 -0.299992
7.04 -0.298611
7.05 -0.300182
7.06 -0.30542
7.07 -0.315454
7.08 -0.330534
7.09 -0.352342
7.1 -0.380542
7.11 -0.415933
7.12 -0.458374
7.13 -0.507084
7.14 -0.561912
7.15 -0.62088
7.16 -0.682921
7.17 -0.745926
7.18 -0.808075
7.19 -0.867089
7.2 -0.921565
7.21 -0.968817
7.22 -1.00841
7.23 -1.03877
7.24 -1.05944
7.25 -1.07097
7.26 -1.0728
7.27 -1.06718
7.28 -1.05466
7.29 -1.03756
7.3 -1.01767
7.31 -0.997065
7.32 -0.977542
7.33 -0.96116
7.34 -0.94878
7.35 -0.941484
7.36 -0.939441
7.37 -0.941983
7.38 -0.948491
7.39 -0.956846
7.4 -0.965006
7.41 -0.970257
7.42 -0.969871
7.43 -0.960188
7.44 -0.939561
7.45 -0.903182
7.46 -0.850916
7.47 -0.779909
7.48 -0.689376
7.49 -0.580331
7.5 -0.451281
7.51 -0.306504
7.52 -0.146557
7.53 0.0240592
7.54 0.201827
7.55 0.382303
7.56 0.56101
7.57 0.732344
7.58 0.892672
7.59 1.03694
7.6 1.16118
7.61 1.26365
7.62 1.33874
7.63 1.38867
7.64 1.40944
7.65 1.40338
7.66 1.37121
7.67 1.31344
7.68 1.23506
7.69 1.13604
7.7 1.02252
7.71 0.896909
7.72 0.763406
7.73 0.62585
7.74 0.487821
7.75 0.35254
7.76 0.223444
7.77 0.102762
7.78 -0.00745303
7.79 -0.104738
7.8 -0.189391
7.81 -0.258466
7.82 -0.313652
7.83 -0.353864
7.84 -0.379617
7.85 -0.392314
7.86 -0.391279
7.87 -0.379431
7.88 -0.35673
7.89 -0.325501
7.9 -0.287185
7.91 -0.243325
7.92 -0.196196
7.93 -0.147425
7.94 -0.099202
7.95 -0.0534868
7.96 -0.0123563
7.97 0.0227904
7.98 0.0492466
7.99 0.0667977
8 0.0730751
8.01 0.0680109
8.02 0.0510939
8.03 0.0216006
8.04 -0.0187362
8.05 -0.0707361
8.06 -0.131593
8.07 -0.200402
8.08 -0.274982
8.09 -0.353048
8.1 -0.432465
8.11 -0.510901
8.12 -0.58603
8.13 -0.656115
8.14 -0.719673
8.15 -0.775058
8.16 -0.822563
8.17 -0.860725
8.18 -0.891113
8.19 -0.913901
8.2 -0.930418
8.21 -0.942326
8.22 -0.950815
8.23 -0.957823
8.24 -0.964585
8.25 -0.972219
8.26 -0.981281
8.27 -0.991879
8.28 -1.00328
8.29 -1.01411
8.3 -1.02244
8.31 -1.02548
8.32 -1.01985
8.33 -1.00286
8.34 -0.968734
8.35 -0.916283
8.36 -0.839601
8.37 -0.737332
8.38 -0.607241
8.39 -0.446236
8.4 -0.257497
8.41 -0.0376376
8.42 0.206974
8.43 0.474753
8.44 0.760311
8.45 1.05729
8.46 1.35944
8.47 1.65899
8.48 1.94757
8.49 2.21776
8.5 2.4624
8.51 2.67215
8.52 2.84526
8.53 2.97017
8.54 3.04954
8.55 3.07782
8.56 3.05483
8.57 2.98457
8.58 2.86377
8.59 2.70315
8.6 2.50306
8.61 2.27278
8.62 2.01862
8.63 1.74738
8.64 1.4677
8.65 1.18641
8.66 0.910556
8.67 0.646504
8.68 0.399864
8.69 0.17339
8.7 -0.0267273
8.71 -0.202291
8.72 -0.349416
8.73 -0.470442
8.74 -0.566428
8.75 -0.638193
8.76 -0.690836
8.77 -0.724758
8.78 -0.745753
8.79 -0.756147
8.8 -0.759579
8.81 -0.759199
8.82 -0.757507
8.83 -0.756731
8.84 -0.758663
8.85 -0.764259
8.86 -0.774076
8.87 -0.788501
8.88 -0.806775
8.89 -0.828856
8.9 -0.85343
8.91 -0.879769
8.92 -0.906796
8.93 -0.933622
8.94 -0.959274
8.95 -0.983284
8.96 -1.00496
8.97 -1.0242
8.98 -1.04093
8.99 -1.05514
9 -1.06735
9.01 -1.07766
9.02 -1.08674
9.03 -1.09492
9.04 -1.10262
9.05 -1.11015
9.06 -1.11766
9.07 -1.12519
9.08 -1.13256
9.09 -1.13943
9.1 -1.14536
9.11 -1.14956
9.12 -1.15152
9.13 -1.14997
9.14 -1.14446
9.15 -1.13387
9.16 -1.11736
9.17 -1.09466
9.18 -1.06432
9.19 -1.02705
9.2 -0.981848
9.21 -0.929399
9.22 -0.870038
9.23 -0.804081
9.24 -0.733094
9.25 -0.657577
9.26 -0.57951
9.27 -0.500229
9.28 -0.42159
9.29 -0.345159
9.3 -0.273279
9.31 -0.206978
9.32 -0.148616
9.33 -0.0991331
9.34 -0.0596465
9.35 -0.0317447
9.36 -0.0146219
9.37 -0.0101762
9.38 -0.0165316
9.39 -0.0338546
9.4 -0.0609877
9.41 -0.0961042
9.42 -0.138418
9.43 -0.185183
9.44 -0.234931
9.45 -0.285349
9.46 -0.334609
9.47 -0.380588
9.48 -0.422183
9.49 -0.457214
9.5 -0.485554
9.51 -0.506167
9.52 -0.518923
9.53 -0.524542
9.54 -0.522798
9.55 -0.515651
9.56 -0.503731
9.57 -0.488904
9.58 -0.472638
9.59 -0.456643
9.6 -0.44229
9.61 -0.431394
9.62 -0.424677
9.63 -0.423289
9.64 -0.427817
9.65 -0.438094
9.66 -0.454792
9.67 -0.476646
9.68 -0.503638
9.69 -0.534545
9.7 -0.568487
9.71 -0.604533
9.72 -0.641557
9.73 -0.67871
9.74 -0.715197
9.75 -0.75037
9.76 -0.783725
9.77 -0.815076
9.78 -0.843876
9.79 -0.870281
9.8 -0.893733
9.81 -0.91403
9.82 -0.930612
9.83 -0.942243
9.84 -0.948331
9.85 -0.946134
9.86 -0.9346
9.87 -0.910655
9.88 -0.871269
9.89 -0.814663
9.9 -0.734832
9.91 -0.631986
9.92 -0.500254
9.93 -0.338968
9.94 -0.146371
9.95 0.0806821
9.96 0.338388
9.97 0.630417
9.98 0.950063
9.99 1.29577
10 1.66215
10.01 2.04242
10.02 2.43036
10.03 2.81736
10.04 3.19461
10.05 3.5536
10.06 3.88627
10.07 4.18165
10.08 4.43702
10.09 4.6387
10.1 4.78823
10.11 4.87839
10.12 4.90722
10.13 4.87848
10.14 4.7861
10.15 4.64206
10.16 4.44496
10.17 4.20486
10.18 3.92857
10.19 3.62283
10.2 3.29876
10.21 2.96307
10.22 2.62571
10.23 2.29417
10.24 1.97609
10.25 1.676
10.26 1.40181
10.27 1.15318
10.28 0.935308
10.29 0.74687
10.3 0.587305
10.31 0.456577
10.32 0.349072
10.33 0.264782
10.34 0.196969
10.35 0.142889
10.36 0.0981217
10.37 0.0586074
10.38 0.0211292
10.39 -0.0173725
10.4 -0.0593558
10.41 -0.106271
10.42 -0.158969
10.43 -0.218134
10.44 -0.282758
10.45 -0.352818
10.46 -0.42644
10.47 -0.502476
10.48 -0.579201
10.49 -0.655125
10.5 -0.728383
10.51 -0.798035
10.52 -0.862452
10.53 -0.921025
10.54 -0.97316
10.55 -1.01799
10.56 -1.05618
10.57 -1.08669
10.58 -1.11063
10.59 -1.12779
10.6 -1.13851
10.61 -1.14349
10.62 -1.14225
10.63 -1.13589
10.64 -1.12401
10.65 -1.10716
10.66 -1.08549
10.67 -1.05891
10.68 -1.02819
10.69 -0.993061
10.7 -0.954515
10.71 -0.912887
10.72 -0.868985
10.73 -0.823755
10.74 -0.778184
10.75 -0.733403
10.76 -0.690739
10.77 -0.651341
10.78 -0.616311
10.79 -0.587176
10.8 -0.56415
10.81 -0.549052
10.82 -0.541423
10.83 -0.542018
10.84 -0.550797
10.85 -0.566926
10.86 -0.590755
10.87 -0.620405
10.88 -0.655529
10.89 -0.694522
10.9 -0.736182
10.91 -0.779211
10.92 -0.822279
10.93 -0.864055
10.94 -0.903626
10.95 -0.939988
10.96 -0.972399
10.97 -1.00071
10.98 -1.02408
10.99 -1.04319
11 -1.05772
11.01 -1.06835
11.02 -1.07556
11.03 -1.07983
11.04 -1.0821
11.05 -1.08288
11.06 -1.08305
11.07 -1.08324
11.08 -1.0841
11.09 -1.08606
11.1 -1.08971
11.11 -1.09509
11.12 -1.10251
11.13 -1.11181
11.14 -1.12277
11.15 -1.13505
11.16 -1.14797
11.17 -1.16074
11.18 -1.17236
11.19 -1.1816
11.2 -1.18692
11.21 -1.18717
11.22 -1.17963
11.23 -1.16361
11.24 -1.13607
11.25 -1.09571
11.26 -1.04081
11.27 -0.968429
11.28 -0.879181
11.29 -0.769107
11.3 -0.64003
11.31 -0.490484
11.32 -0.320882
11.33 -0.133529
11.34 0.0720841
11.35 0.291043
11.36 0.521764
11.37 0.759538
11.38 1.00032
11.39 1.23897
11.4 1.4711
11.41 1.68993
11.42 1.89189
11.43 2.07115
11.44 2.22282
11.45 2.34532
11.46 2.43097
11.47 2.48286
11.48 2.49567
11.49 2.47175
11.5 2.41212
11.51 2.31659
11.52 2.19194
11.53 2.03783
11.54 1.86242
11.55 1.66917
11.56 1.46388
11.57 1.25227
11.58 1.03953
11.59 0.830589
11.6 0.63046
11.61 0.442566
11.62 0.269631
11.63 0.115087
11.64 -0.0220277
11.65 -0.138585
11.66 -0.237586
11.67 -0.319075
11.68 -0.385033
11.69 -0.438614
11.7 -0.481049
11.71 -0.516534
11.72 -0.546974
11.73 -0.575304
11.74 -0.603537
11.75 -0.63359
11.76 -0.666338
11.77 -0.702875
11.78 -0.742744
11.79 -0.785611
11.8 -0.830291
11.81 -0.875275
11.82 -0.918431
11.83 -0.957964
11.84 -0.991125
11.85 -1.01593
11.86 -1.03042
11.87 -1.03174
11.88 -1.0199
11.89 -0.991527
11.9 -0.947859
11.91 -0.887665
11.92 -0.811171
11.93 -0.720184
11.94 -0.61402
11.95 -0.496404
11.96 -0.368016
11.97 -0.231979
11.98 -0.0907262
11.99 0.0530247
12 0.196399
12.01 0.336193
12.02 0.470042
12.03 0.595035
12.04 0.708509
12.05 0.809341
12.06 0.893618
12.07 0.962286
12.08 1.01239
12.09 1.04442
12.1 1.05832
12.11 1.05314
12.12 1.0317
12.13 0.99272
12.14 0.939859
12.15 0.874009
12.16 0.797444
12.17 0.713005
12.18 0.622347
12.19 0.528707
12.2 0.434159
12.21 0.341112
12.22 0.25141
12.23 0.167192
12.24 0.0890369
12.25 0.0188923
12.26 -0.0437432
12.27 -0.0983831
12.28 -0.145445
12.29 -0.186178
12.3 -0.22094
12.31 -0.251875
12.32 -0.280046
12.33 -0.307232
12.34 -0.334798
12.35 -0.364226
12.36 -0.396242
12.37 -0.431994
12.38 -0.47129
12.39 -0.514161
12.4 -0.559897
12.41 -0.607298
