# xPDFsuite Configuration #
[PDF]
wavelength = 0.1432
dataformat = twotheta
inputfile = 1_1Pd_CeO2_cycle-00374.chi
backgroundfile = background-00000.chi
mode = xray
bgscale = 1.007
composition = CeO2
outputtype = gr
qmaxinst = 28.8974762299
qmin = 0.5
qmax = 27.9
rmax = 50.0
rmin = 0.0
rstep = 0.01
rpoly = 1.8657

[Misc]
inputdir = G:/SankarDec16/1Pd/Chi
savedir = D:/DATA/APS_CeO2/1Pd
backgroundfilefull = G:/SankarDec16/Background/background-00000.chi

#### start data
#S 1
#L r($\AA$)  G($\AA^{-2}$)
0 0
0.01 -0.00614134
0.02 -0.0118221
0.03 -0.016568
0.04 -0.0200212
0.05 -0.0219823
0.06 -0.0221302
0.07 -0.0206765
0.08 -0.0175159
0.09 -0.0130531
0.1 -0.00756711
0.11 -0.00148633
0.12 0.00471957
0.13 0.0105261
0.14 0.015557
0.15 0.0193545
0.16 0.0216473
0.17 0.0223245
0.18 0.0211629
0.19 0.0184711
0.2 0.0142549
0.21 0.00898471
0.22 0.00300681
0.23 -0.00319854
0.24 -0.00918733
0.25 -0.0143944
0.26 -0.0185444
0.27 -0.0212168
0.28 -0.0222387
0.29 -0.0215929
0.3 -0.0191641
0.31 -0.0153447
0.32 -0.0102512
0.33 -0.00439952
0.34 0.00181248
0.35 0.0078735
0.36 0.0133851
0.37 0.0177664
0.38 0.0208555
0.39 0.0222877
0.4 0.0219964
0.41 0.0200594
0.42 0.0164748
0.43 0.0117012
0.44 0.00596123
0.45 -0.000206446
0.46 -0.00637009
0.47 -0.0120097
0.48 -0.0167903
0.49 -0.0201415
0.5 -0.0220218
0.51 -0.0221394
0.52 -0.020537
0.53 -0.0173843
0.54 -0.0127934
0.55 -0.00726932
0.56 -0.00113092
0.57 0.00508396
0.58 0.010929
0.59 0.0158982
0.6 0.0197358
0.61 0.0219069
0.62 0.022493
0.63 0.0212884
0.64 0.0184438
0.65 0.0142138
0.66 0.0088201
0.67 0.00279178
0.68 -0.00346965
0.69 -0.00945082
0.7 -0.0147107
0.71 -0.0187794
0.72 -0.0214918
0.73 -0.0223722
0.74 -0.0216217
0.75 -0.0191291
0.76 -0.0151469
0.77 -0.0100021
0.78 -0.0040158
0.79 0.00228277
0.8 0.00842912
0.81 0.0139573
0.82 0.0184524
0.83 0.0215028
0.84 0.0230408
0.85 0.0226725
0.86 0.0207075
0.87 0.0171334
0.88 0.0122897
0.89 0.00655815
0.9 0.000338532
0.91 -0.00586885
0.92 -0.0115678
0.93 -0.0163684
0.94 -0.0199118
0.95 -0.0218772
0.96 -0.0223035
0.97 -0.0209213
0.98 -0.0181335
0.99 -0.0140469
1 -0.0090792
1.01 -0.00365074
1.02 0.00176265
1.03 0.00673046
1.04 0.0107399
1.05 0.0135186
1.06 0.0147969
1.07 0.0143863
1.08 0.0124659
1.09 0.00894851
1.1 0.00435525
1.11 -0.00103244
1.12 -0.00667768
1.13 -0.0120911
1.14 -0.0166433
1.15 -0.0199775
1.16 -0.0214729
1.17 -0.0209737
1.18 -0.0182531
1.19 -0.0132043
1.2 -0.00617883
1.21 0.00283008
1.22 0.0130934
1.23 0.0241916
1.24 0.0354164
1.25 0.0461426
1.26 0.0555469
1.27 0.0632055
1.28 0.0682959
1.29 0.0706179
1.3 0.0698346
1.31 0.065718
1.32 0.05866
1.33 0.0484225
1.34 0.0358716
1.35 0.0212933
1.36 0.00541854
1.37 -0.0110763
1.38 -0.0274537
1.39 -0.0430842
1.4 -0.0571943
1.41 -0.0693643
1.42 -0.0791357
1.43 -0.0860912
1.44 -0.0903672
1.45 -0.0914679
1.46 -0.0899688
1.47 -0.0858189
1.48 -0.0794175
1.49 -0.0711827
1.5 -0.0613699
1.51 -0.0505632
1.52 -0.0390438
1.53 -0.0272521
1.54 -0.0154826
1.55 -0.00403609
1.56 0.00692349
1.57 0.0171133
1.58 0.0265175
1.59 0.0349565
1.6 0.0423649
1.61 0.0487102
1.62 0.0537831
1.63 0.0576607
1.64 0.060069
1.65 0.061029
1.66 0.0603986
1.67 0.0580125
1.68 0.0539829
1.69 0.0479886
1.7 0.0403451
1.71 0.0309776
1.72 0.0201118
1.73 0.00802652
1.74 -0.00505326
1.75 -0.0186463
1.76 -0.0323742
1.77 -0.0457623
1.78 -0.0583798
1.79 -0.0697357
1.8 -0.0796348
1.81 -0.0875078
1.82 -0.0934899
1.83 -0.0973506
1.84 -0.0992389
1.85 -0.0994249
1.86 -0.0980934
1.87 -0.0958334
1.88 -0.0930311
1.89 -0.0902674
1.9 -0.0880206
1.91 -0.0868172
1.92 -0.0868841
1.93 -0.0887287
1.94 -0.092187
1.95 -0.097355
1.96 -0.103938
1.97 -0.111524
1.98 -0.119616
1.99 -0.127546
2 -0.13453
2.01 -0.139881
2.02 -0.142872
2.03 -0.142677
2.04 -0.139123
2.05 -0.131155
2.06 -0.11919
2.07 -0.102784
2.08 -0.0821966
2.09 -0.0578702
2.1 -0.0299009
2.11 0.000722135
2.12 0.0337072
2.13 0.0681819
2.14 0.103606
2.15 0.139412
2.16 0.175164
2.17 0.210493
2.18 0.245289
2.19 0.279466
2.2 0.313129
2.21 0.34645
2.22 0.379638
2.23 0.412905
2.24 0.446428
2.25 0.480229
2.26 0.514212
2.27 0.548054
2.28 0.581318
2.29 0.613075
2.3 0.642633
2.31 0.668707
2.32 0.690098
2.33 0.705863
2.34 0.713997
2.35 0.714451
2.36 0.705217
2.37 0.686508
2.38 0.657821
2.39 0.618885
2.4 0.571202
2.41 0.514341
2.42 0.450969
2.43 0.382101
2.44 0.309964
2.45 0.236615
2.46 0.164381
2.47 0.0950961
2.48 0.0312018
2.49 -0.0260802
2.5 -0.0753929
2.51 -0.115509
2.52 -0.14706
2.53 -0.16876
2.54 -0.182703
2.55 -0.189213
2.56 -0.190037
2.57 -0.186962
2.58 -0.18164
2.59 -0.176094
2.6 -0.172118
2.61 -0.171114
2.62 -0.174248
2.63 -0.182524
2.64 -0.195701
2.65 -0.214445
2.66 -0.237348
2.67 -0.26384
2.68 -0.292441
2.69 -0.321705
2.7 -0.349921
2.71 -0.375795
2.72 -0.397575
2.73 -0.414512
2.74 -0.425822
2.75 -0.430964
2.76 -0.430715
2.77 -0.424858
2.78 -0.415227
2.79 -0.402803
2.8 -0.389366
2.81 -0.376516
2.82 -0.366232
2.83 -0.359621
2.84 -0.358511
2.85 -0.363322
2.86 -0.374586
2.87 -0.392476
2.88 -0.415792
2.89 -0.444249
2.9 -0.475639
2.91 -0.50849
2.92 -0.54066
2.93 -0.570357
2.94 -0.59516
2.95 -0.614174
2.96 -0.6253
2.97 -0.628448
2.98 -0.623246
2.99 -0.609779
3 -0.589738
3.01 -0.563672
3.02 -0.534323
3.03 -0.503512
3.04 -0.473761
3.05 -0.447102
3.06 -0.42626
3.07 -0.412112
3.08 -0.406892
3.09 -0.410524
3.1 -0.423249
3.11 -0.444776
3.12 -0.473134
3.13 -0.507518
3.14 -0.54495
3.15 -0.583401
3.16 -0.620236
3.17 -0.653427
3.18 -0.680286
3.19 -0.700192
3.2 -0.711206
3.21 -0.71382
3.22 -0.708264
3.23 -0.695448
3.24 -0.677673
3.25 -0.656649
3.26 -0.635392
3.27 -0.616527
3.28 -0.602821
3.29 -0.596179
3.3 -0.599515
3.31 -0.612662
3.32 -0.637408
3.33 -0.672339
3.34 -0.716514
3.35 -0.768092
3.36 -0.823932
3.37 -0.881175
3.38 -0.936259
3.39 -0.985657
3.4 -1.02612
3.41 -1.05566
3.42 -1.07084
3.43 -1.0726
3.44 -1.05914
3.45 -1.03287
3.46 -0.995495
3.47 -0.949827
3.48 -0.899997
3.49 -0.849958
3.5 -0.803878
3.51 -0.765967
3.52 -0.739604
3.53 -0.726432
3.54 -0.729232
3.55 -0.74557
3.56 -0.775161
3.57 -0.813058
3.58 -0.854457
3.59 -0.892049
3.6 -0.919185
3.61 -0.92424
3.62 -0.901548
3.63 -0.840041
3.64 -0.732086
3.65 -0.573773
3.66 -0.35385
3.67 -0.0779492
3.68 0.261508
3.69 0.656274
3.7 1.10227
3.71 1.59248
3.72 2.11268
3.73 2.65316
3.74 3.19651
3.75 3.72765
3.76 4.22954
3.77 4.68918
3.78 5.08493
3.79 5.41286
3.8 5.65253
3.81 5.80314
3.82 5.85832
3.83 5.81223
3.84 5.67698
3.85 5.44332
3.86 5.13346
3.87 4.75102
3.88 4.31157
3.89 3.83087
3.9 3.32156
3.91 2.8019
3.92 2.28615
3.93 1.7882
3.94 1.31973
3.95 0.893121
3.96 0.510873
3.97 0.186249
3.98 -0.0865939
3.99 -0.303038
4 -0.466851
4.01 -0.584391
4.02 -0.656954
4.03 -0.696973
4.04 -0.70799
4.05 -0.700384
4.06 -0.680709
4.07 -0.655868
4.08 -0.631534
4.09 -0.612936
4.1 -0.602385
4.11 -0.602346
4.12 -0.61311
4.13 -0.633534
4.14 -0.66281
4.15 -0.697461
4.16 -0.735116
4.17 -0.772247
4.18 -0.805911
4.19 -0.832778
4.2 -0.851388
4.21 -0.858266
4.22 -0.853941
4.23 -0.83696
4.24 -0.807803
4.25 -0.767753
4.26 -0.716962
4.27 -0.658333
4.28 -0.592668
4.29 -0.52242
4.3 -0.449109
4.31 -0.374274
4.32 -0.299188
4.33 -0.224858
4.34 -0.151764
4.35 -0.0803096
4.36 -0.010534
4.37 0.0577226
4.38 0.124452
4.39 0.189965
4.4 0.254086
4.41 0.31671
4.42 0.377374
4.43 0.435164
4.44 0.489469
4.45 0.538277
4.46 0.580947
4.47 0.615454
4.48 0.640354
4.49 0.65487
4.5 0.656505
4.51 0.64622
4.52 0.622046
4.53 0.585256
4.54 0.536206
4.55 0.475577
4.56 0.405989
4.57 0.328158
4.58 0.245482
4.59 0.159889
4.6 0.074083
4.61 -0.00977894
4.62 -0.089031
4.63 -0.162583
4.64 -0.228234
4.65 -0.285714
4.66 -0.334529
4.67 -0.374421
4.68 -0.406861
4.69 -0.43173
4.7 -0.451397
4.71 -0.466876
4.72 -0.479961
4.73 -0.492175
4.74 -0.505004
4.75 -0.519442
4.76 -0.536556
4.77 -0.556584
4.78 -0.579622
4.79 -0.605453
4.8 -0.633194
4.81 -0.662112
4.82 -0.690933
4.83 -0.718474
4.84 -0.743475
4.85 -0.765079
4.86 -0.781879
4.87 -0.793933
4.88 -0.800306
4.89 -0.801512
4.9 -0.797831
4.91 -0.789811
4.92 -0.77877
4.93 -0.765512
4.94 -0.751607
4.95 -0.738258
4.96 -0.726779
4.97 -0.718062
4.98 -0.71343
4.99 -0.712916
5 -0.717392
5.01 -0.726462
5.02 -0.739938
5.03 -0.757432
5.04 -0.777849
5.05 -0.800656
5.06 -0.824532
5.07 -0.84858
5.08 -0.871735
5.09 -0.89322
5.1 -0.911935
5.11 -0.927627
5.12 -0.939344
5.13 -0.946981
5.14 -0.950166
5.15 -0.948374
5.16 -0.941876
5.17 -0.929518
5.18 -0.911715
5.19 -0.887498
5.2 -0.856311
5.21 -0.817851
5.22 -0.770334
5.23 -0.714185
5.24 -0.647447
5.25 -0.570295
5.26 -0.48216
5.27 -0.382373
5.28 -0.272403
5.29 -0.151387
5.3 -0.0221273
5.31 0.114311
5.32 0.255248
5.33 0.39786
5.34 0.538598
5.35 0.674299
5.36 0.800337
5.37 0.913534
5.38 1.01027
5.39 1.08603
5.4 1.14049
5.41 1.16761
5.42 1.16981
5.43 1.14443
5.44 1.0924
5.45 1.0163
5.46 0.915738
5.47 0.796826
5.48 0.660984
5.49 0.513902
5.5 0.35961
5.51 0.20286
5.52 0.047951
5.53 -0.100064
5.54 -0.238458
5.55 -0.363416
5.56 -0.472639
5.57 -0.565533
5.58 -0.639296
5.59 -0.696545
5.6 -0.735934
5.61 -0.760342
5.62 -0.771304
5.63 -0.77059
5.64 -0.761535
5.65 -0.745374
5.66 -0.725222
5.67 -0.702536
5.68 -0.678931
5.69 -0.655368
5.7 -0.632452
5.71 -0.610151
5.72 -0.588178
5.73 -0.565802
5.74 -0.542182
5.75 -0.516156
5.76 -0.487121
5.77 -0.453675
5.78 -0.415905
5.79 -0.373284
5.8 -0.326155
5.81 -0.275367
5.82 -0.221735
5.83 -0.167046
5.84 -0.113031
5.85 -0.0617081
5.86 -0.015052
5.87 0.0244521
5.88 0.0559004
5.89 0.0762026
5.9 0.0857598
5.91 0.0830236
5.92 0.0680448
5.93 0.0418239
5.94 0.00402219
5.95 -0.0425192
5.96 -0.0971388
5.97 -0.157132
5.98 -0.220583
5.99 -0.285292
6 -0.349313
6.01 -0.410523
6.02 -0.467876
6.03 -0.52004
6.04 -0.566449
6.05 -0.607262
6.06 -0.642089
6.07 -0.672325
6.08 -0.698313
6.09 -0.721519
6.1 -0.742991
6.11 -0.763896
6.12 -0.785184
6.13 -0.807782
6.14 -0.831978
6.15 -0.858042
6.16 -0.885739
6.17 -0.91453
6.18 -0.943685
6.19 -0.972259
6.2 -0.999092
6.21 -1.02325
6.22 -1.04382
6.23 -1.05983
6.24 -1.07133
6.25 -1.07743
6.26 -1.07906
6.27 -1.07635
6.28 -1.0702
6.29 -1.06163
6.3 -1.05151
6.31 -1.0409
6.32 -1.03048
6.33 -1.02056
6.34 -1.01099
6.35 -1.00091
6.36 -0.989059
6.37 -0.97268
6.38 -0.949528
6.39 -0.915652
6.4 -0.86693
6.41 -0.800313
6.42 -0.708649
6.43 -0.591377
6.44 -0.441326
6.45 -0.257959
6.46 -0.0390563
6.47 0.218043
6.48 0.508644
6.49 0.835775
6.5 1.19063
6.51 1.57022
6.52 1.96674
6.53 2.37188
6.54 2.77621
6.55 3.17047
6.56 3.54269
6.57 3.88402
6.58 4.18506
6.59 4.43393
6.6 4.62945
6.61 4.75612
6.62 4.81929
6.63 4.81181
6.64 4.73484
6.65 4.59423
6.66 4.38697
6.67 4.12786
6.68 3.81822
6.69 3.47126
6.7 3.09574
6.71 2.70163
6.72 2.30025
6.73 1.90166
6.74 1.51468
6.75 1.14822
6.76 0.809457
6.77 0.501766
6.78 0.233399
6.79 0.00113519
6.8 -0.189686
6.81 -0.343053
6.82 -0.460475
6.83 -0.543446
6.84 -0.599113
6.85 -0.627833
6.86 -0.637764
6.87 -0.631743
6.88 -0.614579
6.89 -0.590354
6.9 -0.561905
6.91 -0.532278
6.92 -0.503333
6.93 -0.476362
6.94 -0.452048
6.95 -0.430787
6.96 -0.412128
6.97 -0.396086
6.98 -0.381843
6.99 -0.36912
7 -0.357559
7.01 -0.346997
7.02 -0.337721
7.03 -0.329941
7.04 -0.324521
7.05 -0.322151
7.06 -0.323746
7.07 -0.3306
7.08 -0.342955
7.09 -0.362528
7.1 -0.388806
7.11 -0.422446
7.12 -0.463086
7.13 -0.509753
7.14 -0.562039
7.15 -0.617888
7.16 -0.67607
7.17 -0.73453
7.18 -0.791529
7.19 -0.844967
7.2 -0.893741
7.21 -0.935547
7.22 -0.970322
7.23 -0.996956
7.24 -1.01544
7.25 -1.02655
7.26 -1.03028
7.27 -1.02872
7.28 -1.02272
7.29 -1.01427
7.3 -1.00491
7.31 -0.996299
7.32 -0.989571
7.33 -0.986131
7.34 -0.98607
7.35 -0.989675
7.36 -0.996339
7.37 -1.00493
7.38 -1.01391
7.39 -1.02133
7.4 -1.02458
7.41 -1.02137
7.42 -1.00924
7.43 -0.984993
7.44 -0.947976
7.45 -0.894122
7.46 -0.824468
7.47 -0.73721
7.48 -0.632687
7.49 -0.512655
7.5 -0.376926
7.51 -0.22976
7.52 -0.0726154
7.53 0.0903356
7.54 0.255759
7.55 0.419546
7.56 0.578405
7.57 0.727363
7.58 0.864312
7.59 0.985367
7.6 1.08797
7.61 1.17141
7.62 1.23171
7.63 1.27137
7.64 1.28767
7.65 1.28288
7.66 1.25779
7.67 1.21291
7.68 1.15207
7.69 1.07501
7.7 0.986194
7.71 0.887004
7.72 0.780177
7.73 0.668313
7.74 0.553403
7.75 0.437946
7.76 0.324
7.77 0.213448
7.78 0.107956
7.79 0.00960555
7.8 -0.0810632
7.81 -0.161339
7.82 -0.231473
7.83 -0.289763
7.84 -0.335537
7.85 -0.369076
7.86 -0.388541
7.87 -0.39592
7.88 -0.390086
7.89 -0.372791
7.9 -0.344994
7.91 -0.307747
7.92 -0.263717
7.93 -0.214171
7.94 -0.162194
7.95 -0.110037
7.96 -0.0605039
7.97 -0.0157458
7.98 0.020874
7.99 0.0484307
8 0.0639327
8.01 0.0668849
8.02 0.0564659
8.03 0.0316726
8.04 -0.00558728
8.05 -0.0562687
8.06 -0.117103
8.07 -0.186975
8.08 -0.263296
8.09 -0.343392
8.1 -0.424749
8.11 -0.504748
8.12 -0.580766
8.13 -0.650959
8.14 -0.713792
8.15 -0.767619
8.16 -0.812942
8.17 -0.848418
8.18 -0.875928
8.19 -0.89588
8.2 -0.909879
8.21 -0.919765
8.22 -0.926974
8.23 -0.933432
8.24 -0.940475
8.25 -0.949089
8.26 -0.959704
8.27 -0.972243
8.28 -0.985718
8.29 -0.998523
8.3 -1.0085
8.31 -1.01269
8.32 -1.00757
8.33 -0.990472
8.34 -0.955622
8.35 -0.902066
8.36 -0.824107
8.37 -0.720741
8.38 -0.590076
8.39 -0.429483
8.4 -0.24237
8.41 -0.0259016
8.42 0.213554
8.43 0.47417
8.44 0.750599
8.45 1.03675
8.46 1.32655
8.47 1.61286
8.48 1.88783
8.49 2.14478
8.5 2.37725
8.51 2.57678
8.52 2.74206
8.53 2.86262
8.54 2.94111
8.55 2.97257
8.56 2.95689
8.57 2.89773
8.58 2.79193
8.59 2.64917
8.6 2.4694
8.61 2.26084
8.62 2.02889
8.63 1.77926
8.64 1.51977
8.65 1.25599
8.66 0.994544
8.67 0.74096
8.68 0.500458
8.69 0.27591
8.7 0.0730417
8.71 -0.109005
8.72 -0.266269
8.73 -0.400093
8.74 -0.510768
8.75 -0.598202
8.76 -0.666541
8.77 -0.715188
8.78 -0.749266
8.79 -0.770345
8.8 -0.781566
8.81 -0.78601
8.82 -0.785721
8.83 -0.78355
8.84 -0.781298
8.85 -0.780655
8.86 -0.782765
8.87 -0.78872
8.88 -0.79851
8.89 -0.812874
8.9 -0.831024
8.91 -0.852807
8.92 -0.877508
8.93 -0.904257
8.94 -0.932364
8.95 -0.960828
8.96 -0.988849
8.97 -1.01568
8.98 -1.04072
8.99 -1.0633
9 -1.08336
9.01 -1.10026
9.02 -1.11433
9.03 -1.12541
9.04 -1.1337
9.05 -1.13956
9.06 -1.14298
9.07 -1.14454
9.08 -1.14425
9.09 -1.14243
9.1 -1.13913
9.11 -1.13424
9.12 -1.12779
9.13 -1.1192
9.14 -1.10835
9.15 -1.09456
9.16 -1.07721
9.17 -1.05596
9.18 -1.02956
9.19 -0.998188
9.2 -0.960723
9.21 -0.917263
9.22 -0.867686
9.23 -0.811763
9.24 -0.750558
9.25 -0.68399
9.26 -0.613728
9.27 -0.540712
9.28 -0.466572
9.29 -0.392889
9.3 -0.321784
9.31 -0.254667
9.32 -0.193905
9.33 -0.140833
9.34 -0.0968511
9.35 -0.0638602
9.36 -0.0414093
9.37 -0.0316778
9.38 -0.0330203
9.39 -0.0457887
9.4 -0.0689342
9.41 -0.100624
9.42 -0.140113
9.43 -0.184491
9.44 -0.23222
9.45 -0.28082
9.46 -0.328335
9.47 -0.372514
9.48 -0.412186
9.49 -0.445111
9.5 -0.471203
9.51 -0.489489
9.52 -0.49997
9.53 -0.503514
9.54 -0.500137
9.55 -0.49193
9.56 -0.479789
9.57 -0.465689
9.58 -0.451205
9.59 -0.438169
9.6 -0.427803
9.61 -0.421974
9.62 -0.421091
9.63 -0.426123
9.64 -0.437324
9.65 -0.454207
9.66 -0.477021
9.67 -0.504229
9.68 -0.535383
9.69 -0.56905
9.7 -0.604152
9.71 -0.639514
9.72 -0.674182
9.73 -0.707104
9.74 -0.737877
9.75 -0.765973
9.76 -0.791221
9.77 -0.813822
9.78 -0.833579
9.79 -0.85106
9.8 -0.866108
9.81 -0.878843
9.82 -0.888976
9.83 -0.895593
9.84 -0.898088
9.85 -0.894037
9.86 -0.882185
9.87 -0.859522
9.88 -0.822909
9.89 -0.770348
9.9 -0.695835
9.91 -0.599247
9.92 -0.47467
9.93 -0.321228
9.94 -0.137051
9.95 0.0810815
9.96 0.329494
9.97 0.611873
9.98 0.92162
9.99 1.25723
10 1.61341
10.01 1.9835
10.02 2.36146
10.03 2.73886
10.04 3.10719
10.05 3.45822
10.06 3.78418
10.07 4.07458
10.08 4.32683
10.09 4.52793
10.1 4.67936
10.11 4.77431
10.12 4.8109
10.13 4.79273
10.14 4.71395
10.15 4.5859
10.16 4.40705
10.17 4.1868
10.18 3.93136
10.19 3.64679
10.2 3.34348
10.21 3.02725
10.22 2.7075
10.23 2.39093
10.24 2.08462
10.25 1.79291
10.26 1.52298
10.27 1.27495
10.28 1.0537
10.29 0.858461
10.3 0.689074
10.31 0.545959
10.32 0.424405
10.33 0.324972
10.34 0.241833
10.35 0.172954
10.36 0.114659
10.37 0.0633343
10.38 0.0165213
10.39 -0.0288959
10.4 -0.0749375
10.41 -0.123274
10.42 -0.174932
10.43 -0.2308
10.44 -0.290522
10.45 -0.354392
10.46 -0.421258
10.47 -0.490471
10.48 -0.560875
10.49 -0.631355
10.5 -0.700579
10.51 -0.76764
10.52 -0.831201
10.53 -0.890525
10.54 -0.944892
10.55 -0.993265
10.56 -1.03587
10.57 -1.07141
10.58 -1.10053
10.59 -1.12267
10.6 -1.13779
10.61 -1.14641
10.62 -1.14775
10.63 -1.14298
10.64 -1.13159
10.65 -1.11435
10.66 -1.09159
10.67 -1.06349
10.68 -1.03115
10.69 -0.994626
10.7 -0.955184
10.71 -0.913437
10.72 -0.870385
10.73 -0.826994
10.74 -0.784375
10.75 -0.743391
10.76 -0.705254
10.77 -0.670752
10.78 -0.640648
10.79 -0.616024
10.8 -0.596767
10.81 -0.584155
10.82 -0.577563
10.83 -0.577412
10.84 -0.583519
10.85 -0.595169
10.86 -0.612592
10.87 -0.634416
10.88 -0.660486
10.89 -0.689758
10.9 -0.72152
10.91 -0.755092
10.92 -0.789606
10.93 -0.824458
10.94 -0.858991
10.95 -0.892663
10.96 -0.924975
10.97 -0.955672
10.98 -0.98418
10.99 -1.01058
11 -1.03444
11.01 -1.0558
11.02 -1.07462
11.03 -1.09072
11.04 -1.10445
11.05 -1.11554
11.06 -1.12448
11.07 -1.1313
11.08 -1.13629
11.09 -1.13984
11.1 -1.14212
11.11 -1.14365
11.12 -1.14469
11.13 -1.14559
11.14 -1.14657
11.15 -1.1478
11.16 -1.14922
11.17 -1.15062
11.18 -1.15156
11.19 -1.15134
11.2 -1.14888
11.21 -1.1432
11.22 -1.13211
11.23 -1.11466
11.24 -1.08809
11.25 -1.05079
11.26 -1.00088
11.27 -0.935219
11.28 -0.853941
11.29 -0.752899
11.3 -0.633437
11.31 -0.493807
11.32 -0.334093
11.33 -0.156373
11.34 0.0401422
11.35 0.250613
11.36 0.473648
11.37 0.704563
11.38 0.939353
11.39 1.17296
11.4 1.40093
11.41 1.61662
11.42 1.8164
11.43 1.99454
11.44 2.14623
11.45 2.26989
11.46 2.35811
11.47 2.41388
11.48 2.4321
11.49 2.41507
11.5 2.36379
11.51 2.2781
11.52 2.1645
11.53 2.02259
11.54 1.86011
11.55 1.68022
11.56 1.48829
11.57 1.28961
11.58 1.08879
11.59 0.890441
11.6 0.698964
11.61 0.517506
11.62 0.348527
11.63 0.19507
11.64 0.0564373
11.65 -0.0645824
11.66 -0.17043
11.67 -0.260984
11.68 -0.337739
11.69 -0.403239
11.7 -0.458169
11.71 -0.506017
11.72 -0.548002
11.73 -0.586459
11.74 -0.622898
11.75 -0.658601
11.76 -0.694445
11.77 -0.730936
11.78 -0.767998
11.79 -0.805273
11.8 -0.841919
11.81 -0.877011
11.82 -0.908816
11.83 -0.936383
11.84 -0.95762
11.85 -0.9713
11.86 -0.976119
11.87 -0.970007
11.88 -0.953223
11.89 -0.923193
11.9 -0.881007
11.91 -0.825695
11.92 -0.757377
11.93 -0.677383
11.94 -0.584942
11.95 -0.482855
11.96 -0.371344
11.97 -0.252678
11.98 -0.128583
11.99 -0.000909585
12 0.127993
12.01 0.255873
12.02 0.38058
12.03 0.499755
12.04 0.610996
12.05 0.713
12.06 0.802243
12.07 0.878905
12.08 0.94001
12.09 0.985334
12.1 1.01427
12.11 1.02522
12.12 1.02029
12.13 0.997475
12.14 0.959804
12.15 0.907542
12.16 0.842395
12.17 0.766995
12.18 0.682324
12.19 0.591906
12.2 0.497461
12.21 0.401705
12.22 0.30672
12.23 0.214844
12.24 0.127329
12.25 0.0464141
12.26 -0.0276734
12.27 -0.0939389
12.28 -0.152179
12.29 -0.20319
12.3 -0.246641
12.31 -0.284505
12.32 -0.317306
12.33 -0.346735
12.34 -0.37408
12.35 -0.400661
12.36 -0.427627
12.37 -0.456049
12.38 -0.486356
12.39 -0.518887
