# xPDFsuite Configuration #
[PDF]
wavelength = 0.1432
dataformat = twotheta
inputfile = 1_1Pd_CeO2_cycle-00180.chi
backgroundfile = background-00000.chi
mode = xray
bgscale = 1.007
composition = CeO2
outputtype = gr
qmaxinst = 28.8974762299
qmin = 0.5
qmax = 27.9
rmax = 50.0
rmin = 0.0
rstep = 0.01
rpoly = 1.8657

[Misc]
inputdir = G:/SankarDec16/1Pd/Chi
savedir = D:/DATA/APS_CeO2/1Pd
backgroundfilefull = G:/SankarDec16/Background/background-00000.chi

#### start data
#S 1
#L r($\AA$)  G($\AA^{-2}$)
0 0
0.01 -0.00770106
0.02 -0.0148233
0.03 -0.0207705
0.04 -0.0250936
0.05 -0.0275422
0.06 -0.0277136
0.07 -0.0258746
0.08 -0.0218944
0.09 -0.0162825
0.1 -0.00939078
0.11 -0.00175879
0.12 0.00602347
0.13 0.0132956
0.14 0.0195867
0.15 0.0243222
0.16 0.0271632
0.17 0.0279729
0.18 0.0264738
0.19 0.0230565
0.2 0.0177322
0.21 0.011094
0.22 0.00357937
0.23 -0.00420634
0.24 -0.0117063
0.25 -0.018209
0.26 -0.0233728
0.27 -0.0266711
0.28 -0.0278912
0.29 -0.0270161
0.3 -0.0239066
0.31 -0.0190593
0.32 -0.012627
0.33 -0.0052598
0.34 0.00253955
0.35 0.0101271
0.36 0.0170051
0.37 0.0224433
0.38 0.0262454
0.39 0.0279571
0.4 0.0275018
0.41 0.0249837
0.42 0.0204084
0.43 0.0143565
0.44 0.00711532
0.45 -0.00063716
0.46 -0.0083563
0.47 -0.0153885
0.48 -0.0213185
0.49 -0.0254311
0.5 -0.0276842
0.51 -0.0277177
0.52 -0.0255948
0.53 -0.0215366
0.54 -0.0156942
0.55 -0.00870558
0.56 -0.000980126
0.57 0.00680736
0.58 0.0140954
0.59 0.0202505
0.6 0.0249593
0.61 0.0275549
0.62 0.0281521
0.63 0.0265019
0.64 0.0228052
0.65 0.0173903
0.66 0.0105479
0.67 0.00294402
0.68 -0.00490821
0.69 -0.0123678
0.7 -0.0188825
0.71 -0.0238678
0.72 -0.0271275
0.73 -0.0280733
0.74 -0.0269722
0.75 -0.0236976
0.76 -0.0185794
0.77 -0.0120375
0.78 -0.00448829
0.79 0.00340504
0.8 0.0110512
0.81 0.017873
0.82 0.0233548
0.83 0.0269895
0.84 0.0287078
0.85 0.0280303
0.86 0.0253627
0.87 0.0207079
0.88 0.0145083
0.89 0.00725357
0.9 -0.000535932
0.91 -0.00823604
0.92 -0.0152115
0.93 -0.0209832
0.94 -0.0251059
0.95 -0.0271865
0.96 -0.0272932
0.97 -0.0251008
0.98 -0.0211384
0.99 -0.0155584
1 -0.00890578
1.01 -0.0017235
1.02 0.00536763
1.03 0.0118234
1.04 0.0169774
1.05 0.0204879
1.06 0.0220071
1.07 0.0212895
1.08 0.0185682
1.09 0.0137119
1.1 0.00739222
1.11 -5.10049e-05
1.12 -0.00794174
1.13 -0.0156619
1.14 -0.0224337
1.15 -0.02779
1.16 -0.0309607
1.17 -0.0317278
1.18 -0.029793
1.19 -0.0249981
1.2 -0.0177484
1.21 -0.00799112
1.22 0.00340719
1.23 0.0159862
1.24 0.0289254
1.25 0.0414987
1.26 0.0527853
1.27 0.0622743
1.28 0.0690599
1.29 0.0729023
1.3 0.0734344
1.31 0.0704174
1.32 0.0642813
1.33 0.054799
1.34 0.0429095
1.35 0.028942
1.36 0.0136841
1.37 -0.00214959
1.38 -0.0177871
1.39 -0.0326038
1.4 -0.0458348
1.41 -0.0571097
1.42 -0.0660296
1.43 -0.0722691
1.44 -0.0760339
1.45 -0.0769751
1.46 -0.0757054
1.47 -0.0722878
1.48 -0.0671642
1.49 -0.0607527
1.5 -0.053353
1.51 -0.0454259
1.52 -0.0372219
1.53 -0.0290126
1.54 -0.0209541
1.55 -0.0131574
1.56 -0.00562669
1.57 0.00160616
1.58 0.00862325
1.59 0.0154436
1.6 0.0220959
1.61 0.0285718
1.62 0.0347724
1.63 0.0406091
1.64 0.0458256
1.65 0.0502223
1.66 0.0535062
1.67 0.055301
1.68 0.0554941
1.69 0.0535144
1.7 0.0495006
1.71 0.0431586
1.72 0.0345738
1.73 0.0239624
1.74 0.0114081
1.75 -0.00247971
1.76 -0.0173719
1.77 -0.032603
1.78 -0.0476211
1.79 -0.06176
1.8 -0.0746144
1.81 -0.0854208
1.82 -0.0941372
1.83 -0.100357
1.84 -0.104107
1.85 -0.105599
1.86 -0.104917
1.87 -0.102744
1.88 -0.0994483
1.89 -0.0957596
1.9 -0.0922633
1.91 -0.0896338
1.92 -0.0882527
1.93 -0.0887955
1.94 -0.0912093
1.95 -0.0957229
1.96 -0.102114
1.97 -0.10999
1.98 -0.11891
1.99 -0.128103
2 -0.136775
2.01 -0.144105
2.02 -0.149267
2.03 -0.151313
2.04 -0.149955
2.05 -0.144009
2.06 -0.133828
2.07 -0.118881
2.08 -0.0993929
2.09 -0.0758081
2.1 -0.0481955
2.11 -0.0176221
2.12 0.0156171
2.13 0.0505726
2.14 0.0866668
2.15 0.123298
2.16 0.159999
2.17 0.196418
2.18 0.232448
2.19 0.268059
2.2 0.30341
2.21 0.338728
2.22 0.37433
2.23 0.410433
2.24 0.447308
2.25 0.48494
2.26 0.523216
2.27 0.561744
2.28 0.599935
2.29 0.636703
2.3 0.671128
2.31 0.701668
2.32 0.726846
2.33 0.745498
2.34 0.75523
2.35 0.75595
2.36 0.745286
2.37 0.7235
2.38 0.69003
2.39 0.644621
2.4 0.589095
2.41 0.523083
2.42 0.449784
2.43 0.370538
2.44 0.288079
2.45 0.204898
2.46 0.123916
2.47 0.0472428
2.48 -0.0220889
2.49 -0.082723
2.5 -0.13307
2.51 -0.171728
2.52 -0.199626
2.53 -0.215303
2.54 -0.221492
2.55 -0.218739
2.56 -0.209342
2.57 -0.195606
2.58 -0.179758
2.59 -0.164304
2.6 -0.151638
2.61 -0.143486
2.62 -0.141347
2.63 -0.146523
2.64 -0.158619
2.65 -0.178586
2.66 -0.2045
2.67 -0.235677
2.68 -0.270187
2.69 -0.306131
2.7 -0.341346
2.71 -0.374052
2.72 -0.402011
2.73 -0.424136
2.74 -0.43934
2.75 -0.446814
2.76 -0.447418
2.77 -0.440711
2.78 -0.428917
2.79 -0.413118
2.8 -0.395461
2.81 -0.377905
2.82 -0.362814
2.83 -0.351663
2.84 -0.346674
2.85 -0.348508
2.86 -0.357911
2.87 -0.37523
2.88 -0.399152
2.89 -0.429507
2.9 -0.463732
2.91 -0.500213
2.92 -0.53647
2.93 -0.570401
2.94 -0.599227
2.95 -0.621796
2.96 -0.635669
2.97 -0.640624
2.98 -0.636155
2.99 -0.622262
3 -0.6008
3.01 -0.572294
3.02 -0.539831
3.03 -0.505408
3.04 -0.471856
3.05 -0.441471
3.06 -0.417285
3.07 -0.400338
3.08 -0.393115
3.09 -0.395572
3.1 -0.40799
3.11 -0.430059
3.12 -0.45961
3.13 -0.495746
3.14 -0.535192
3.15 -0.57571
3.16 -0.614411
3.17 -0.649085
3.18 -0.676812
3.19 -0.696954
3.2 -0.707455
3.21 -0.70892
3.22 -0.701674
3.23 -0.686811
3.24 -0.666877
3.25 -0.643864
3.26 -0.621024
3.27 -0.601261
3.28 -0.587542
3.29 -0.58185
3.3 -0.587263
3.31 -0.603421
3.32 -0.63208
3.33 -0.671497
3.34 -0.720438
3.35 -0.77665
3.36 -0.836631
3.37 -0.896965
3.38 -0.95386
3.39 -1.00336
3.4 -1.04203
3.41 -1.06787
3.42 -1.07728
3.43 -1.07164
3.44 -1.04931
3.45 -1.01329
3.46 -0.965815
3.47 -0.910403
3.48 -0.851763
3.49 -0.794779
3.5 -0.743965
3.51 -0.704237
3.52 -0.679311
3.53 -0.670863
3.54 -0.682052
3.55 -0.709767
3.56 -0.753692
3.57 -0.807997
3.58 -0.867206
3.59 -0.923079
3.6 -0.968061
3.61 -0.989332
3.62 -0.980533
3.63 -0.929561
3.64 -0.828116
3.65 -0.672017
3.66 -0.449214
3.67 -0.165983
3.68 0.185613
3.69 0.596427
3.7 1.06181
3.71 1.57393
3.72 2.11739
3.73 2.68149
3.74 3.24765
3.75 3.7997
3.76 4.31959
3.77 4.79372
3.78 5.19934
3.79 5.53275
3.8 5.77273
3.81 5.91901
3.82 5.9654
3.83 5.90642
3.84 5.75521
3.85 5.5029
3.86 5.17294
3.87 4.7697
3.88 4.30969
3.89 3.8094
3.9 3.28236
3.91 2.74713
3.92 2.21867
3.93 1.71087
3.94 1.23557
3.95 0.805213
3.96 0.421802
3.97 0.0987193
3.98 -0.170618
3.99 -0.381799
4 -0.539066
4.01 -0.649192
4.02 -0.713771
4.03 -0.745595
4.04 -0.748427
4.05 -0.732829
4.06 -0.705472
4.07 -0.673355
4.08 -0.642148
4.09 -0.617174
4.1 -0.600695
4.11 -0.595248
4.12 -0.601167
4.13 -0.617349
4.14 -0.643168
4.15 -0.675156
4.16 -0.71118
4.17 -0.747752
4.18 -0.782046
4.19 -0.810851
4.2 -0.832581
4.21 -0.843897
4.22 -0.845009
4.23 -0.834347
4.24 -0.812069
4.25 -0.779117
4.26 -0.735223
4.27 -0.682926
4.28 -0.622523
4.29 -0.556164
4.3 -0.485046
4.31 -0.410376
4.32 -0.333525
4.33 -0.25517
4.34 -0.176241
4.35 -0.0972268
4.36 -0.0186016
4.37 0.0593128
4.38 0.136
4.39 0.211202
4.4 0.284125
4.41 0.354207
4.42 0.420557
4.43 0.481821
4.44 0.537455
4.45 0.585041
4.46 0.624422
4.47 0.653649
4.48 0.671751
4.49 0.678479
4.5 0.671861
4.51 0.653479
4.52 0.621981
4.53 0.579102
4.54 0.525601
4.55 0.462535
4.56 0.392417
4.57 0.316231
4.58 0.236848
4.59 0.155985
4.6 0.0757883
4.61 -0.00215
4.62 -0.0758294
4.63 -0.144687
4.64 -0.207215
4.65 -0.263475
4.66 -0.313286
4.67 -0.356636
4.68 -0.394681
4.69 -0.427371
4.7 -0.456328
4.71 -0.48211
4.72 -0.50573
4.73 -0.527995
4.74 -0.549442
4.75 -0.570569
4.76 -0.591534
4.77 -0.612336
4.78 -0.632779
4.79 -0.652464
4.8 -0.671076
4.81 -0.687899
4.82 -0.702746
4.83 -0.715099
4.84 -0.724769
4.85 -0.731837
4.86 -0.736143
4.87 -0.738345
4.88 -0.738662
4.89 -0.737868
4.9 -0.736579
4.91 -0.735544
4.92 -0.735328
4.93 -0.736706
4.94 -0.739862
4.95 -0.745175
4.96 -0.752631
4.97 -0.761964
4.98 -0.772979
4.99 -0.78496
5 -0.797382
5.01 -0.809516
5.02 -0.820752
5.03 -0.830424
5.04 -0.838321
5.05 -0.843883
5.06 -0.847426
5.07 -0.848973
5.08 -0.848997
5.09 -0.848083
5.1 -0.846863
5.11 -0.846006
5.12 -0.846178
5.13 -0.847724
5.14 -0.850809
5.15 -0.855297
5.16 -0.86052
5.17 -0.865456
5.18 -0.868715
5.19 -0.868368
5.2 -0.862182
5.21 -0.848333
5.22 -0.823162
5.23 -0.785985
5.24 -0.733063
5.25 -0.663971
5.26 -0.577473
5.27 -0.472364
5.28 -0.351041
5.29 -0.212351
5.3 -0.0609887
5.31 0.101066
5.32 0.269389
5.33 0.439536
5.34 0.606029
5.35 0.764416
5.36 0.90818
5.37 1.03337
5.38 1.13554
5.39 1.20947
5.4 1.25565
5.41 1.2675
5.42 1.24931
5.43 1.19916
5.44 1.11964
5.45 1.01493
5.46 0.886438
5.47 0.741702
5.48 0.583944
5.49 0.41979
5.5 0.254162
5.51 0.0926536
5.52 -0.0610373
5.53 -0.201197
5.54 -0.326691
5.55 -0.434244
5.56 -0.52298
5.57 -0.593737
5.58 -0.64519
5.59 -0.681336
5.6 -0.70235
5.61 -0.712027
5.62 -0.712714
5.63 -0.706938
5.64 -0.697607
5.65 -0.686506
5.66 -0.67547
5.67 -0.665494
5.68 -0.65701
5.69 -0.649786
5.7 -0.643173
5.71 -0.636014
5.72 -0.626749
5.73 -0.61392
5.74 -0.596043
5.75 -0.571373
5.76 -0.539721
5.77 -0.499299
5.78 -0.451315
5.79 -0.395696
5.8 -0.333825
5.81 -0.267566
5.82 -0.198837
5.83 -0.130321
5.84 -0.0648329
5.85 -0.00493317
5.86 0.0469102
5.87 0.0877799
5.88 0.117195
5.89 0.131802
5.9 0.132993
5.91 0.119643
5.92 0.0926927
5.93 0.0539829
5.94 0.00407877
5.95 -0.0534904
5.96 -0.117233
5.97 -0.18408
5.98 -0.251801
5.99 -0.317967
6 -0.381035
6.01 -0.438829
6.02 -0.491113
6.03 -0.536987
6.04 -0.576611
6.05 -0.610775
6.06 -0.639815
6.07 -0.665511
6.08 -0.688779
6.09 -0.711177
6.1 -0.733823
6.11 -0.757835
6.12 -0.783683
6.13 -0.812032
6.14 -0.842454
6.15 -0.874665
6.16 -0.907764
6.17 -0.940732
6.18 -0.972138
6.19 -1.00097
6.2 -1.02562
6.21 -1.04534
6.22 -1.05938
6.23 -1.06706
6.24 -1.0691
6.25 -1.06514
6.26 -1.0569
6.27 -1.04524
6.28 -1.0318
6.29 -1.01808
6.3 -1.00576
6.31 -0.995815
6.32 -0.989405
6.33 -0.986503
6.34 -0.986712
6.35 -0.988776
6.36 -0.990601
6.37 -0.988818
6.38 -0.980213
6.39 -0.959988
6.4 -0.923134
6.41 -0.866021
6.42 -0.780496
6.43 -0.666026
6.44 -0.514739
6.45 -0.326366
6.46 -0.098789
6.47 0.170445
6.48 0.475798
6.49 0.819983
6.5 1.19312
6.51 1.59155
6.52 2.00656
6.53 2.42917
6.54 2.84904
6.55 3.25661
6.56 3.63918
6.57 3.98781
6.58 4.29296
6.59 4.54257
6.6 4.73595
6.61 4.85742
6.62 4.91305
6.63 4.89591
6.64 4.80763
6.65 4.65451
6.66 4.43385
6.67 4.16092
6.68 3.83728
6.69 3.47641
6.7 3.08727
6.71 2.68001
6.72 2.26602
6.73 1.85555
6.74 1.45745
6.75 1.08077
6.76 0.732812
6.77 0.417027
6.78 0.141997
6.79 -0.0955218
6.8 -0.289811
6.81 -0.444807
6.82 -0.561855
6.83 -0.642218
6.84 -0.693239
6.85 -0.714968
6.86 -0.715994
6.87 -0.699205
6.88 -0.669763
6.89 -0.632182
6.9 -0.589691
6.91 -0.545911
6.92 -0.503241
6.93 -0.46349
6.94 -0.427809
6.95 -0.397146
6.96 -0.371139
6.97 -0.350392
6.98 -0.333823
6.99 -0.321303
7 -0.312255
7.01 -0.306122
7.02 -0.302985
7.03 -0.30238
7.04 -0.304776
7.05 -0.310274
7.06 -0.319334
7.07 -0.332744
7.08 -0.350532
7.09 -0.373961
7.1 -0.402612
7.11 -0.437034
7.12 -0.477019
7.13 -0.521882
7.14 -0.571426
7.15 -0.62407
7.16 -0.678927
7.17 -0.734343
7.18 -0.788894
7.19 -0.840806
7.2 -0.889032
7.21 -0.9315
7.22 -0.967939
7.23 -0.997169
7.24 -1.0189
7.25 -1.0336
7.26 -1.04087
7.27 -1.04248
7.28 -1.03885
7.29 -1.03175
7.3 -1.02249
7.31 -1.01257
7.32 -1.00328
7.33 -0.995965
7.34 -0.991152
7.35 -0.989393
7.36 -0.990543
7.37 -0.993894
7.38 -0.998468
7.39 -1.0026
7.4 -1.0042
7.41 -1.00107
7.42 -0.990897
7.43 -0.970518
7.44 -0.938892
7.45 -0.891805
7.46 -0.829631
7.47 -0.750054
7.48 -0.652716
7.49 -0.538807
7.5 -0.407295
7.51 -0.262187
7.52 -0.104242
7.53 0.0624071
7.54 0.234495
7.55 0.4079
7.56 0.578681
7.57 0.741611
7.58 0.893583
7.59 1.02997
7.6 1.14722
7.61 1.24381
7.62 1.31457
7.63 1.36163
7.64 1.38123
7.65 1.37553
7.66 1.34514
7.67 1.29044
7.68 1.21606
7.69 1.1218
7.7 1.01343
7.71 0.893079
7.72 0.764684
7.73 0.631878
7.74 0.497985
7.75 0.366183
7.76 0.239739
7.77 0.120912
7.78 0.0117571
7.79 -0.0852539
7.8 -0.170268
7.81 -0.240342
7.82 -0.296987
7.83 -0.339065
7.84 -0.366995
7.85 -0.3821
7.86 -0.383668
7.87 -0.374552
7.88 -0.354696
7.89 -0.326388
7.9 -0.291045
7.91 -0.250176
7.92 -0.206013
7.93 -0.160113
7.94 -0.1146
7.95 -0.0713306
7.96 -0.0322677
7.97 0.00127085
7.98 0.0267685
7.99 0.0440222
8 0.0508356
8.01 0.0471382
8.02 0.0324403
8.03 0.00603567
8.04 -0.0305077
8.05 -0.0780376
8.06 -0.134013
8.07 -0.197705
8.08 -0.267202
8.09 -0.34045
8.1 -0.415647
8.11 -0.490612
8.12 -0.563328
8.13 -0.63215
8.14 -0.695693
8.15 -0.752409
8.16 -0.802397
8.17 -0.844238
8.18 -0.87914
8.19 -0.907083
8.2 -0.929056
8.21 -0.946398
8.22 -0.959899
8.23 -0.971245
8.24 -0.981283
8.25 -0.990967
8.26 -1.0007
8.27 -1.01043
8.28 -1.01962
8.29 -1.02682
8.3 -1.03047
8.31 -1.02801
8.32 -1.01644
8.33 -0.993418
8.34 -0.953645
8.35 -0.896235
8.36 -0.815733
8.37 -0.711003
8.38 -0.580009
8.39 -0.419877
8.4 -0.233601
8.41 -0.0179466
8.42 0.221145
8.43 0.482265
8.44 0.760423
8.45 1.04966
8.46 1.3442
8.47 1.63664
8.48 1.91908
8.49 2.1844
8.5 2.42569
8.51 2.63388
8.52 2.80712
8.53 2.93406
8.54 3.01698
8.55 3.05025
8.56 3.03332
8.57 2.96983
8.58 2.85613
8.59 2.70254
8.6 2.50899
8.61 2.28444
8.62 2.03493
8.63 1.76697
8.64 1.48925
8.65 1.20832
8.66 0.931519
8.67 0.665219
8.68 0.41527
8.69 0.184722
8.7 -0.0200055
8.71 -0.200353
8.72 -0.35215
8.73 -0.477459
8.74 -0.577122
8.75 -0.651718
8.76 -0.706329
8.77 -0.741152
8.78 -0.762123
8.79 -0.771559
8.8 -0.773226
8.81 -0.770453
8.82 -0.765854
8.83 -0.7619
8.84 -0.760535
8.85 -0.762895
8.86 -0.769676
8.87 -0.781408
8.88 -0.797371
8.89 -0.817648
8.9 -0.840887
8.91 -0.866395
8.92 -0.893073
8.93 -0.919978
8.94 -0.946154
8.95 -0.971038
8.96 -0.993954
8.97 -1.01474
8.98 -1.03332
8.99 -1.04967
9 -1.06428
9.01 -1.07724
9.02 -1.08918
9.03 -1.10038
9.04 -1.1112
9.05 -1.12183
9.06 -1.13233
9.07 -1.14258
9.08 -1.15224
9.09 -1.16082
9.1 -1.16772
9.11 -1.17195
9.12 -1.17302
9.13 -1.16938
9.14 -1.16075
9.15 -1.14595
9.16 -1.12428
9.17 -1.09567
9.18 -1.05887
9.19 -1.01494
9.2 -0.963218
9.21 -0.904742
9.22 -0.840196
9.23 -0.770329
9.24 -0.696839
9.25 -0.620705
9.26 -0.543804
9.27 -0.467635
9.28 -0.393959
9.29 -0.324053
9.3 -0.260125
9.31 -0.202624
9.32 -0.153527
9.33 -0.113194
9.34 -0.082235
9.35 -0.0616091
9.36 -0.0502132
9.37 -0.0492511
9.38 -0.0568474
9.39 -0.0728578
9.4 -0.0961325
9.41 -0.125136
9.42 -0.15912
9.43 -0.196054
9.44 -0.234845
9.45 -0.273911
9.46 -0.312043
9.47 -0.347883
9.48 -0.380789
9.49 -0.409429
9.5 -0.433813
9.51 -0.453354
9.52 -0.468031
9.53 -0.478324
9.54 -0.484101
9.55 -0.486544
9.56 -0.48598
9.57 -0.483471
9.58 -0.479819
9.59 -0.475923
9.6 -0.472558
9.61 -0.470639
9.62 -0.470612
9.63 -0.47309
9.64 -0.478442
9.65 -0.486669
9.66 -0.498239
9.67 -0.512637
9.68 -0.530066
9.69 -0.550095
9.7 -0.572495
9.71 -0.597118
9.72 -0.623484
9.73 -0.65161
9.74 -0.681056
9.75 -0.71172
9.76 -0.74336
9.77 -0.775675
9.78 -0.808346
9.79 -0.840839
9.8 -0.872403
9.81 -0.902091
9.82 -0.928722
9.83 -0.95031
9.84 -0.96564
9.85 -0.971135
9.86 -0.965398
9.87 -0.944828
9.88 -0.906141
9.89 -0.847673
9.9 -0.763207
9.91 -0.65362
9.92 -0.513244
9.93 -0.342139
9.94 -0.139158
9.95 0.0981027
9.96 0.365234
9.97 0.665077
9.98 0.990594
9.99 1.33971
10 1.70677
10.01 2.08511
10.02 2.46829
10.03 2.84837
10.04 3.21669
10.05 3.56548
10.06 3.88724
10.07 4.17173
10.08 4.41682
10.09 4.60964
10.1 4.75207
10.11 4.83741
10.12 4.86394
10.13 4.83538
10.14 4.74589
10.15 4.60687
10.16 4.41679
10.17 4.18507
10.18 3.918
10.19 3.62173
10.2 3.30677
10.21 2.9792
10.22 2.64861
10.23 2.32202
10.24 2.00684
10.25 1.70764
10.26 1.43209
10.27 1.18031
10.28 0.957618
10.29 0.763175
10.3 0.596836
10.31 0.459043
10.32 0.344634
10.33 0.254101
10.34 0.180978
10.35 0.122846
10.36 0.0754584
10.37 0.0347087
10.38 -0.00249079
10.39 -0.039557
10.4 -0.0790442
10.41 -0.122776
10.42 -0.171901
10.43 -0.227439
10.44 -0.288658
10.45 -0.355847
10.46 -0.427246
10.47 -0.501848
10.48 -0.57794
10.49 -0.653915
10.5 -0.727837
10.51 -0.798486
10.52 -0.864024
10.53 -0.923568
10.54 -0.976299
10.55 -1.02109
10.56 -1.05855
10.57 -1.08744
10.58 -1.10901
10.59 -1.12309
10.6 -1.13022
10.61 -1.13137
10.62 -1.12639
10.63 -1.1167
10.64 -1.10228
10.65 -1.08397
10.66 -1.06217
10.67 -1.03708
10.68 -1.00935
10.69 -0.978912
10.7 -0.946389
10.71 -0.911949
10.72 -0.875992
10.73 -0.839008
10.74 -0.801446
10.75 -0.763964
10.76 -0.727282
10.77 -0.692148
10.78 -0.659319
10.79 -0.629894
10.8 -0.60425
10.81 -0.583862
10.82 -0.568785
10.83 -0.55994
10.84 -0.557785
10.85 -0.562093
10.86 -0.573817
10.87 -0.591758
10.88 -0.616292
10.89 -0.646387
10.9 -0.681326
10.91 -0.720406
10.92 -0.762222
10.93 -0.80597
10.94 -0.850258
10.95 -0.894027
10.96 -0.936098
10.97 -0.975698
10.98 -1.0115
10.99 -1.04338
11 -1.07035
11.01 -1.09242
11.02 -1.10951
11.03 -1.12146
11.04 -1.12912
11.05 -1.13242
11.06 -1.13255
11.07 -1.13007
11.08 -1.12593
11.09 -1.12106
11.1 -1.11638
11.11 -1.11263
11.12 -1.11066
11.13 -1.11089
11.14 -1.1136
11.15 -1.11898
11.16 -1.1265
11.17 -1.13584
11.18 -1.14582
11.19 -1.15526
11.2 -1.16243
11.21 -1.1658
11.22 -1.16241
11.23 -1.15102
11.24 -1.12823
11.25 -1.09228
11.26 -1.04111
11.27 -0.97143
11.28 -0.883775
11.29 -0.773918
11.3 -0.643878
11.31 -0.49224
11.32 -0.319663
11.33 -0.128787
11.34 0.080567
11.35 0.303089
11.36 0.536796
11.37 0.776658
11.38 1.01838
11.39 1.25653
11.4 1.4868
11.41 1.7022
11.42 1.8995
11.43 2.07298
11.44 2.2181
11.45 2.33365
11.46 2.41237
11.47 2.45776
11.48 2.46494
11.49 2.43659
11.5 2.37398
11.51 2.27723
11.52 2.15302
11.53 2.00122
11.54 1.82966
11.55 1.64166
11.56 1.4427
11.57 1.23809
11.58 1.03266
11.59 0.830894
11.6 0.637387
11.61 0.455231
11.62 0.286891
11.63 0.135494
11.64 0.000148349
11.65 -0.116243
11.66 -0.216396
11.67 -0.300264
11.68 -0.369558
11.69 -0.427092
11.7 -0.473799
11.71 -0.513502
11.72 -0.547768
11.73 -0.579257
11.74 -0.609777
11.75 -0.641011
11.76 -0.673896
11.77 -0.709374
11.78 -0.747231
11.79 -0.787228
11.8 -0.828427
11.81 -0.869596
11.82 -0.908887
11.83 -0.944781
11.84 -0.974827
11.85 -0.99724
11.86 -1.01023
11.87 -1.01109
11.88 -0.999774
11.89 -0.972991
11.9 -0.931752
11.91 -0.874719
11.92 -0.801891
11.93 -0.714826
11.94 -0.612588
11.95 -0.49867
11.96 -0.373501
11.97 -0.240042
11.98 -0.100612
11.99 0.0422072
12 0.18545
12.01 0.325985
12.02 0.461237
12.03 0.588198
12.04 0.704006
12.05 0.807335
12.06 0.894065
12.07 0.964965
12.08 1.01689
12.09 1.05021
12.1 1.06481
12.11 1.05963
12.12 1.0376
12.13 0.997423
12.14 0.942914
12.15 0.87507
12.16 0.796324
12.17 0.709673
12.18 0.616937
12.19 0.521463
12.2 0.425462
12.21 0.331393
12.22 0.241129
12.23 0.15683
12.24 0.0789817
12.25 0.00950489
12.26 -0.0522482
12.27 -0.10589
12.28 -0.15197
12.29 -0.191837
12.3 -0.225978
12.31 -0.25657
12.32 -0.284745
12.33 -0.312264
12.34 -0.340457
12.35 -0.370748
12.36 -0.403743
12.37 -0.440478
12.38 -0.480627
12.39 -0.524085
12.4 -0.570011
12.41 -0.617146
