# xPDFsuite Configuration #
[PDF]
wavelength = 0.1432
dataformat = twotheta
inputfile = 1_1Pd_CeO2_cycle-00423.chi
backgroundfile = background-00000.chi
mode = xray
bgscale = 1.007
composition = CeO2
outputtype = gr
qmaxinst = 28.8974762299
qmin = 0.5
qmax = 27.9
rmax = 50.0
rmin = 0.0
rstep = 0.01
rpoly = 1.8657

[Misc]
inputdir = G:/SankarDec16/1Pd/Chi
savedir = D:/DATA/APS_CeO2/1Pd
backgroundfilefull = G:/SankarDec16/Background/background-00000.chi

#### start data
#S 1
#L r($\AA$)  G($\AA^{-2}$)
0 0
0.01 -0.00369854
0.02 -0.00711776
0.03 -0.00997011
0.04 -0.0120391
0.05 -0.0132045
0.06 -0.013273
0.07 -0.012374
0.08 -0.0104461
0.09 -0.00773592
0.1 -0.00441455
0.11 -0.000743435
0.12 0.00299309
0.13 0.00647531
0.14 0.00947807
0.15 0.011725
0.16 0.0130551
0.17 0.013405
0.18 0.0126444
0.19 0.0109643
0.2 0.00837428
0.21 0.00516246
0.22 0.00154212
0.23 -0.00219303
0.24 -0.00577601
0.25 -0.00886251
0.26 -0.0112926
0.27 -0.0128149
0.28 -0.0133319
0.29 -0.0128405
0.3 -0.0112797
0.31 -0.00889302
0.32 -0.00576071
0.33 -0.00219821
0.34 0.00154954
0.35 0.0051708
0.36 0.00842929
0.37 0.0109731
0.38 0.0127156
0.39 0.0134428
0.4 0.0131258
0.41 0.0118219
0.42 0.009543
0.43 0.0065731
0.44 0.0030592
0.45 -0.000671264
0.46 -0.00435384
0.47 -0.00767402
0.48 -0.0104381
0.49 -0.0123042
0.5 -0.0132631
0.51 -0.0131495
0.52 -0.0120045
0.53 -0.00994327
0.54 -0.00705044
0.55 -0.00363647
0.56 9.18791e-05
0.57 0.00381124
0.58 0.00725088
0.59 0.0101089
0.6 0.0122442
0.61 0.0133418
0.62 0.0134709
0.63 0.0125231
0.64 0.0106078
0.65 0.00789271
0.66 0.00453116
0.67 0.000844855
0.68 -0.00290987
0.69 -0.00642957
0.7 -0.00945083
0.71 -0.0116992
0.72 -0.0130932
0.73 -0.0133603
0.74 -0.0126447
0.75 -0.0108997
0.76 -0.00829755
0.77 -0.00504915
0.78 -0.00136786
0.79 0.00243009
0.8 0.00605368
0.81 0.00923539
0.82 0.0117341
0.83 0.0133185
0.84 0.0139712
0.85 0.0134788
0.86 0.0120518
0.87 0.00970875
0.88 0.00667422
0.89 0.00318947
0.9 -0.000485857
0.91 -0.00406267
0.92 -0.00723717
0.93 -0.00979933
0.94 -0.0115529
0.95 -0.0123351
0.96 -0.0122018
0.97 -0.0110346
0.98 -0.00910331
0.99 -0.0065136
1 -0.00354373
1.01 -0.000460568
1.02 0.00241835
1.03 0.00485713
1.04 0.00653316
1.05 0.007321
1.06 0.00708339
1.07 0.0057474
1.08 0.00347168
1.09 0.000259949
1.1 -0.00352238
1.11 -0.0076424
1.12 -0.0117229
1.13 -0.0154312
1.14 -0.018315
1.15 -0.0201665
1.16 -0.0205444
1.17 -0.019375
1.18 -0.0165097
1.19 -0.0118822
1.2 -0.00575882
1.21 0.00188097
1.22 0.0105078
1.23 0.0198406
1.24 0.0293805
1.25 0.0386821
1.26 0.0471679
1.27 0.0545063
1.28 0.0600937
1.29 0.063732
1.3 0.0651204
1.31 0.0640031
1.32 0.0605841
1.33 0.0545298
1.34 0.0463966
1.35 0.0362296
1.36 0.0244506
1.37 0.0114849
1.38 -0.00229589
1.39 -0.0163576
1.4 -0.0302515
1.41 -0.0435374
1.42 -0.0558125
1.43 -0.0666363
1.44 -0.0758757
1.45 -0.0829635
1.46 -0.0880325
1.47 -0.0907533
1.48 -0.0911185
1.49 -0.0892065
1.5 -0.0848168
1.51 -0.0783494
1.52 -0.0696606
1.53 -0.0591404
1.54 -0.0469519
1.55 -0.0333357
1.56 -0.0187162
1.57 -0.0033314
1.58 0.0123114
1.59 0.0278125
1.6 0.0426827
1.61 0.056514
1.62 0.0686539
1.63 0.0788885
1.64 0.0865049
1.65 0.0913623
1.66 0.0931124
1.67 0.0914285
1.68 0.0865845
1.69 0.0780877
1.7 0.066663
1.71 0.0523334
1.72 0.0356593
1.73 0.0172403
1.74 -0.00237994
1.75 -0.0223879
1.76 -0.0420657
1.77 -0.0607059
1.78 -0.0776556
1.79 -0.0922151
1.8 -0.104219
1.81 -0.112873
1.82 -0.118542
1.83 -0.120973
1.84 -0.120491
1.85 -0.117556
1.86 -0.11249
1.87 -0.106148
1.88 -0.0990838
1.89 -0.0920889
1.9 -0.0858049
1.91 -0.0809286
1.92 -0.0777577
1.93 -0.0769788
1.94 -0.0783983
1.95 -0.0822043
1.96 -0.0880969
1.97 -0.0956304
1.98 -0.104353
1.99 -0.113475
2 -0.122244
2.01 -0.129866
2.02 -0.135568
2.03 -0.138469
2.04 -0.138287
2.05 -0.133916
2.06 -0.125646
2.07 -0.112937
2.08 -0.0959218
2.09 -0.0749346
2.1 -0.0498988
2.11 -0.0217347
2.12 0.00946085
2.13 0.0428676
2.14 0.0780459
2.15 0.114523
2.16 0.151791
2.17 0.189604
2.18 0.227646
2.19 0.265797
2.2 0.303973
2.21 0.342152
2.22 0.380325
2.23 0.418462
2.24 0.456459
2.25 0.494126
2.26 0.531145
2.27 0.56696
2.28 0.601123
2.29 0.632435
2.3 0.660396
2.31 0.683671
2.32 0.701232
2.33 0.712353
2.34 0.715214
2.35 0.710107
2.36 0.695298
2.37 0.671311
2.38 0.637916
2.39 0.595138
2.4 0.544566
2.41 0.486087
2.42 0.422242
2.43 0.354141
2.44 0.283885
2.45 0.213344
2.46 0.144713
2.47 0.0794898
2.48 0.0198973
2.49 -0.0331412
2.5 -0.0785053
2.51 -0.115215
2.52 -0.14399
2.53 -0.163766
2.54 -0.176537
2.55 -0.182655
2.56 -0.183727
2.57 -0.181362
2.58 -0.177029
2.59 -0.172497
2.6 -0.169317
2.61 -0.168691
2.62 -0.171608
2.63 -0.178916
2.64 -0.190401
2.65 -0.206634
2.66 -0.22643
2.67 -0.249332
2.68 -0.274129
2.69 -0.299643
2.7 -0.32452
2.71 -0.347701
2.72 -0.367826
2.73 -0.384296
2.74 -0.396512
2.75 -0.404076
2.76 -0.407591
2.77 -0.406926
2.78 -0.403486
2.79 -0.398032
2.8 -0.391912
2.81 -0.386309
2.82 -0.382682
2.83 -0.381799
2.84 -0.38494
2.85 -0.392324
2.86 -0.404233
2.87 -0.420646
2.88 -0.440606
2.89 -0.463692
2.9 -0.488277
2.91 -0.513155
2.92 -0.536744
2.93 -0.557782
2.94 -0.574493
2.95 -0.586434
2.96 -0.592177
2.97 -0.591909
2.98 -0.585577
2.99 -0.573522
3 -0.557166
3.01 -0.537251
3.02 -0.515835
3.03 -0.494453
3.04 -0.474975
3.05 -0.458812
3.06 -0.44795
3.07 -0.442715
3.08 -0.444565
3.09 -0.453069
3.1 -0.468076
3.11 -0.488966
3.12 -0.514037
3.13 -0.54221
3.14 -0.571257
3.15 -0.599417
3.16 -0.624752
3.17 -0.645915
3.18 -0.660984
3.19 -0.669985
3.2 -0.671795
3.21 -0.667338
3.22 -0.657287
3.23 -0.642941
3.24 -0.626363
3.25 -0.609597
3.26 -0.594915
3.27 -0.584711
3.28 -0.581067
3.29 -0.585209
3.3 -0.599316
3.31 -0.622554
3.32 -0.655928
3.33 -0.69758
3.34 -0.746139
3.35 -0.79939
3.36 -0.854412
3.37 -0.908059
3.38 -0.957467
3.39 -0.999363
3.4 -1.03116
3.41 -1.05151
3.42 -1.05771
3.43 -1.05129
3.44 -1.03119
3.45 -1.0002
3.46 -0.960366
3.47 -0.914789
3.48 -0.86732
3.49 -0.822061
3.5 -0.782459
3.51 -0.752362
3.52 -0.734441
3.53 -0.729678
3.54 -0.74005
3.55 -0.762611
3.56 -0.796298
3.57 -0.835902
3.58 -0.876332
3.59 -0.910098
3.6 -0.93098
3.61 -0.927343
3.62 -0.894408
3.63 -0.821644
3.64 -0.702307
3.65 -0.533276
3.66 -0.304358
3.67 -0.0217139
3.68 0.321204
3.69 0.715886
3.7 1.15788
3.71 1.6399
3.72 2.14829
3.73 2.67318
3.74 3.19831
3.75 3.70917
3.76 4.18977
3.77 4.62814
3.78 5.00384
3.79 5.31379
3.8 5.5388
3.81 5.67863
3.82 5.72756
3.83 5.68033
3.84 5.54866
3.85 5.32391
3.86 5.02716
3.87 4.66181
3.88 4.24247
3.89 3.78392
3.9 3.29788
3.91 2.80148
3.92 2.30792
3.93 1.83024
3.94 1.37936
3.95 0.966887
3.96 0.595306
3.97 0.277089
3.98 0.00703112
3.99 -0.210355
4 -0.378325
4.01 -0.502601
4.02 -0.584056
4.03 -0.634201
4.04 -0.656025
4.05 -0.659185
4.06 -0.649702
4.07 -0.633941
4.08 -0.617392
4.09 -0.604836
4.1 -0.598777
4.11 -0.601603
4.12 -0.613824
4.13 -0.634594
4.14 -0.663321
4.15 -0.696953
4.16 -0.733383
4.17 -0.769387
4.18 -0.802225
4.19 -0.828737
4.2 -0.847467
4.21 -0.854996
4.22 -0.851684
4.23 -0.835959
4.24 -0.808093
4.25 -0.769183
4.26 -0.719144
4.27 -0.660784
4.28 -0.594731
4.29 -0.52346
4.3 -0.448519
4.31 -0.371556
4.32 -0.294069
4.33 -0.2173
4.34 -0.142022
4.35 -0.0689521
4.36 0.00157503
4.37 0.0695403
4.38 0.134615
4.39 0.197207
4.4 0.256993
4.41 0.31412
4.42 0.368325
4.43 0.419026
4.44 0.466053
4.45 0.507898
4.46 0.544369
4.47 0.573975
4.48 0.595717
4.49 0.609053
4.5 0.611986
4.51 0.605247
4.52 0.587112
4.53 0.558432
4.54 0.519267
4.55 0.469835
4.56 0.412086
4.57 0.346088
4.58 0.274548
4.59 0.198668
4.6 0.120516
4.61 0.0418774
4.62 -0.0352956
4.63 -0.109691
4.64 -0.179518
4.65 -0.244047
4.66 -0.302494
4.67 -0.35413
4.68 -0.399602
4.69 -0.438134
4.7 -0.471192
4.71 -0.498961
4.72 -0.52243
4.73 -0.542607
4.74 -0.560096
4.75 -0.576011
4.76 -0.590852
4.77 -0.605251
4.78 -0.619527
4.79 -0.633862
4.8 -0.648254
4.81 -0.662553
4.82 -0.676528
4.83 -0.689847
4.84 -0.702169
4.85 -0.713269
4.86 -0.722732
4.87 -0.730638
4.88 -0.736751
4.89 -0.74131
4.9 -0.744483
4.91 -0.74654
4.92 -0.747938
4.93 -0.749039
4.94 -0.750305
4.95 -0.752134
4.96 -0.754872
4.97 -0.758696
4.98 -0.763896
4.99 -0.770317
5 -0.778038
5.01 -0.786774
5.02 -0.796314
5.03 -0.806372
5.04 -0.816621
5.05 -0.826758
5.06 -0.836544
5.07 -0.845754
5.08 -0.854243
5.09 -0.861972
5.1 -0.8688
5.11 -0.874817
5.12 -0.879863
5.13 -0.883898
5.14 -0.886702
5.15 -0.887808
5.16 -0.886907
5.17 -0.88282
5.18 -0.875041
5.19 -0.862132
5.2 -0.84278
5.21 -0.816033
5.22 -0.779367
5.23 -0.732795
5.24 -0.673732
5.25 -0.602194
5.26 -0.517438
5.27 -0.418694
5.28 -0.307814
5.29 -0.183928
5.3 -0.0505021
5.31 0.0910592
5.32 0.237515
5.33 0.385564
5.34 0.53111
5.35 0.670694
5.36 0.799246
5.37 0.913497
5.38 1.00974
5.39 1.08346
5.4 1.13464
5.41 1.15736
5.42 1.15457
5.43 1.12398
5.44 1.067
5.45 0.986598
5.46 0.882933
5.47 0.762276
5.48 0.626489
5.49 0.481268
5.5 0.330697
5.51 0.17952
5.52 0.0316618
5.53 -0.107915
5.54 -0.237054
5.55 -0.352292
5.56 -0.45184
5.57 -0.535522
5.58 -0.60109
5.59 -0.65139
5.6 -0.685566
5.61 -0.706588
5.62 -0.716133
5.63 -0.716088
5.64 -0.709498
5.65 -0.6977
5.66 -0.683299
5.67 -0.667564
5.68 -0.651714
5.69 -0.636332
5.7 -0.62166
5.71 -0.607334
5.72 -0.592721
5.73 -0.576885
5.74 -0.558804
5.75 -0.537142
5.76 -0.51138
5.77 -0.479958
5.78 -0.443212
5.79 -0.400649
5.8 -0.352794
5.81 -0.300694
5.82 -0.245294
5.83 -0.188605
5.84 -0.132485
5.85 -0.0790898
5.86 -0.030486
5.87 0.0107659
5.88 0.0437558
5.89 0.0653574
5.9 0.0760274
5.91 0.0742406
5.92 0.0601035
5.93 0.0346695
5.94 -0.00235183
5.95 -0.048082
5.96 -0.101829
5.97 -0.160882
5.98 -0.223328
5.99 -0.286984
6 -0.349935
6.01 -0.410093
6.02 -0.466446
6.03 -0.517698
6.04 -0.563309
6.05 -0.603446
6.06 -0.637739
6.07 -0.667553
6.08 -0.693225
6.09 -0.71618
6.1 -0.737434
6.11 -0.758112
6.12 -0.779137
6.13 -0.801398
6.14 -0.825179
6.15 -0.850743
6.16 -0.877874
6.17 -0.906062
6.18 -0.934622
6.19 -0.962656
6.2 -0.989068
6.21 -1.01297
6.22 -1.03349
6.23 -1.0497
6.24 -1.06163
6.25 -1.0684
6.26 -1.07086
6.27 -1.06909
6.28 -1.06389
6.29 -1.05617
6.3 -1.04664
6.31 -1.0363
6.32 -1.02565
6.33 -1.01494
6.34 -1.00397
6.35 -0.991834
6.36 -0.977366
6.37 -0.957829
6.38 -0.9312
6.39 -0.893699
6.4 -0.841479
6.41 -0.771744
6.42 -0.677739
6.43 -0.559096
6.44 -0.409076
6.45 -0.227307
6.46 -0.0117774
6.47 0.239934
6.48 0.523305
6.49 0.841123
6.5 1.18502
6.51 1.55213
6.52 1.93506
6.53 2.32595
6.54 2.71588
6.55 3.09612
6.56 3.45537
6.57 3.78526
6.58 4.07691
6.59 4.31906
6.6 4.51055
6.61 4.63665
6.62 4.70233
6.63 4.70071
6.64 4.63274
6.65 4.50384
6.66 4.31088
6.67 4.06786
6.68 3.77571
6.69 3.44688
6.7 3.08955
6.71 2.71299
6.72 2.32806
6.73 1.94405
6.74 1.56963
6.75 1.21322
6.76 0.881831
6.77 0.578929
6.78 0.312504
6.79 0.0798794
6.8 -0.113628
6.81 -0.271473
6.82 -0.394812
6.83 -0.484741
6.84 -0.547908
6.85 -0.584299
6.86 -0.601682
6.87 -0.60258
6.88 -0.591555
6.89 -0.572589
6.9 -0.548322
6.91 -0.521947
6.92 -0.495278
6.93 -0.469811
6.94 -0.446376
6.95 -0.425547
6.96 -0.407095
6.97 -0.391206
6.98 -0.377226
6.99 -0.364999
7 -0.354249
7.01 -0.344816
7.02 -0.337005
7.03 -0.330918
7.04 -0.327345
7.05 -0.326833
7.06 -0.330169
7.07 -0.338491
7.08 -0.351959
7.09 -0.372125
7.1 -0.398481
7.11 -0.431626
7.12 -0.471226
7.13 -0.516393
7.14 -0.566774
7.15 -0.62049
7.16 -0.67643
7.17 -0.732706
7.18 -0.787716
7.19 -0.839511
7.2 -0.887042
7.21 -0.928135
7.22 -0.962679
7.23 -0.989575
7.24 -1.00873
7.25 -1.02081
7.26 -1.02568
7.27 -1.02529
7.28 -1.02029
7.29 -1.01257
7.3 -1.00351
7.31 -0.994687
7.32 -0.987221
7.33 -0.982446
7.34 -0.980586
7.35 -0.981995
7.36 -0.986232
7.37 -0.992347
7.38 -0.99903
7.39 -1.00451
7.4 -1.00644
7.41 -1.00266
7.42 -0.990873
7.43 -0.968012
7.44 -0.933341
7.45 -0.882906
7.46 -0.817498
7.47 -0.735213
7.48 -0.636144
7.49 -0.521782
7.5 -0.391643
7.51 -0.249723
7.52 -0.0971511
7.53 0.0621017
7.54 0.224887
7.55 0.387294
7.56 0.545946
7.57 0.696028
7.58 0.835149
7.59 0.959335
7.6 1.06576
7.61 1.15341
7.62 1.21803
7.63 1.26179
7.64 1.28165
7.65 1.27966
7.66 1.25642
7.67 1.21228
7.68 1.15115
7.69 1.07268
7.7 0.981611
7.71 0.879504
7.72 0.769411
7.73 0.654254
7.74 0.536431
7.75 0.41872
7.76 0.303598
7.77 0.193142
7.78 0.0892019
7.79 -0.00595867
7.8 -0.0919921
7.81 -0.166095
7.82 -0.228958
7.83 -0.279119
7.84 -0.316362
7.85 -0.341415
7.86 -0.353015
7.87 -0.35353
7.88 -0.342436
7.89 -0.321774
7.9 -0.292793
7.91 -0.256866
7.92 -0.216435
7.93 -0.173034
7.94 -0.129181
7.95 -0.0869296
7.96 -0.0485593
7.97 -0.0156472
7.98 0.00904801
7.99 0.0252054
8 0.030525
8.01 0.024994
8.02 0.00822946
8.03 -0.0202708
8.04 -0.0587052
8.05 -0.107563
8.06 -0.164083
8.07 -0.227214
8.08 -0.294821
8.09 -0.364806
8.1 -0.435146
8.11 -0.503952
8.12 -0.569235
8.13 -0.62975
8.14 -0.684462
8.15 -0.732295
8.16 -0.773783
8.17 -0.8081
8.18 -0.836759
8.19 -0.86018
8.2 -0.879601
8.21 -0.896351
8.22 -0.911442
8.23 -0.926094
8.24 -0.941051
8.25 -0.956699
8.26 -0.972971
8.27 -0.989226
8.28 -1.00441
8.29 -1.01643
8.3 -1.02345
8.31 -1.02252
8.32 -1.01052
8.33 -0.985288
8.34 -0.941568
8.35 -0.879126
8.36 -0.792984
8.37 -0.682796
8.38 -0.547266
8.39 -0.384477
8.4 -0.197907
8.41 0.0145566
8.42 0.246941
8.43 0.497309
8.44 0.760684
8.45 1.03159
8.46 1.30438
8.47 1.5729
8.48 1.83004
8.49 2.07006
8.5 2.28727
8.51 2.47422
8.52 2.62993
8.53 2.74502
8.54 2.82198
8.55 2.85633
8.56 2.84786
8.57 2.79978
8.58 2.70894
8.59 2.58393
8.6 2.42427
8.61 2.23715
8.62 2.02715
8.63 1.79898
8.64 1.55973
8.65 1.31388
8.66 1.06767
8.67 0.825924
8.68 0.59349
8.69 0.373311
8.7 0.170633
8.71 -0.0146464
8.72 -0.178632
8.73 -0.321904
8.74 -0.444203
8.75 -0.544811
8.76 -0.627059
8.77 -0.689673
8.78 -0.737097
8.79 -0.770279
8.8 -0.791828
8.81 -0.804595
8.82 -0.810081
8.83 -0.811391
8.84 -0.810077
8.85 -0.808181
8.86 -0.807093
8.87 -0.808198
8.88 -0.812056
8.89 -0.819751
8.9 -0.831061
8.91 -0.846258
8.92 -0.865064
8.93 -0.886873
8.94 -0.911417
8.95 -0.937662
8.96 -0.965045
8.97 -0.992675
8.98 -1.01985
8.99 -1.04577
9 -1.07
9.01 -1.0917
9.02 -1.1108
9.03 -1.12685
9.04 -1.1397
9.05 -1.14951
9.06 -1.1559
9.07 -1.15947
9.08 -1.15999
9.09 -1.15785
9.1 -1.15314
9.11 -1.14582
9.12 -1.13618
9.13 -1.12377
9.14 -1.10879
9.15 -1.09079
9.16 -1.06945
9.17 -1.04463
9.18 -1.01538
9.19 -0.981942
9.2 -0.943428
9.21 -0.899935
9.22 -0.851353
9.23 -0.797463
9.24 -0.739119
9.25 -0.676204
9.26 -0.610096
9.27 -0.541559
9.28 -0.471968
9.29 -0.402684
9.3 -0.335548
9.31 -0.271831
9.32 -0.213653
9.33 -0.162262
9.34 -0.11898
9.35 -0.0856072
9.36 -0.0618301
9.37 -0.0497549
9.38 -0.0479858
9.39 -0.0569741
9.4 -0.0758847
9.41 -0.103109
9.42 -0.138132
9.43 -0.178265
9.44 -0.222222
9.45 -0.267696
9.46 -0.312889
9.47 -0.355741
9.48 -0.395045
9.49 -0.428748
9.5 -0.456599
9.51 -0.477626
9.52 -0.491696
9.53 -0.499481
9.54 -0.500864
9.55 -0.497655
9.56 -0.490542
9.57 -0.481252
9.58 -0.47115
9.59 -0.46181
9.6 -0.454366
9.61 -0.450404
9.62 -0.450369
9.63 -0.455107
9.64 -0.464877
9.65 -0.479304
9.66 -0.498603
9.67 -0.521511
9.68 -0.547648
9.69 -0.575826
9.7 -0.605153
9.71 -0.634664
9.72 -0.663594
9.73 -0.691111
9.74 -0.716926
9.75 -0.740665
9.76 -0.762253
9.77 -0.781893
9.78 -0.799501
9.79 -0.815514
9.8 -0.829808
9.81 -0.842378
9.82 -0.852853
9.83 -0.860245
9.84 -0.863814
9.85 -0.861096
9.86 -0.85074
9.87 -0.829713
9.88 -0.794869
9.89 -0.744228
9.9 -0.671869
9.91 -0.577722
9.92 -0.45602
9.93 -0.305986
9.94 -0.125871
9.95 0.0873699
9.96 0.330063
9.97 0.605682
9.98 0.907735
9.99 1.23468
10 1.58131
10.01 1.94114
10.02 2.3083
10.03 2.67468
10.04 3.03208
10.05 3.37264
10.06 3.68896
10.07 3.97106
10.08 4.21655
10.09 4.4131
10.1 4.56224
10.11 4.65757
10.12 4.6974
10.13 4.68521
10.14 4.61552
10.15 4.4991
10.16 4.33449
10.17 4.13055
10.18 3.89307
10.19 3.62764
10.2 3.34397
10.21 3.04727
10.22 2.7463
10.23 2.44711
10.24 2.15614
10.25 1.87741
10.26 1.61725
10.27 1.37595
10.28 1.15782
10.29 0.962247
10.3 0.789173
10.31 0.639043
10.32 0.507841
10.33 0.396224
10.34 0.299246
10.35 0.215364
10.36 0.141633
10.37 0.0750779
10.38 0.0140234
10.39 -0.0442044
10.4 -0.100907
10.41 -0.157449
10.42 -0.214576
10.43 -0.272804
10.44 -0.332095
10.45 -0.39242
10.46 -0.453259
10.47 -0.514142
10.48 -0.57442
10.49 -0.633581
10.5 -0.690799
10.51 -0.745844
10.52 -0.797986
10.53 -0.84703
10.54 -0.892706
10.55 -0.93453
10.56 -0.972753
10.57 -1.0066
10.58 -1.03642
10.59 -1.06175
10.6 -1.08233
10.61 -1.09823
10.62 -1.10849
10.63 -1.11362
10.64 -1.11271
10.65 -1.10596
10.66 -1.09328
10.67 -1.07428
10.68 -1.04984
10.69 -1.01948
10.7 -0.984504
10.71 -0.945295
10.72 -0.902872
10.73 -0.858425
10.74 -0.813061
10.75 -0.768147
10.76 -0.725091
10.77 -0.685133
10.78 -0.649394
10.79 -0.619357
10.8 -0.595195
10.81 -0.578579
10.82 -0.56899
10.83 -0.567048
10.84 -0.572623
10.85 -0.584884
10.86 -0.604089
10.87 -0.628523
10.88 -0.657884
10.89 -0.69079
10.9 -0.726252
10.91 -0.76326
10.92 -0.800727
10.93 -0.837716
10.94 -0.873493
10.95 -0.907356
10.96 -0.938768
10.97 -0.967589
10.98 -0.993241
10.99 -1.01611
11 -1.03593
11.01 -1.05305
11.02 -1.06769
11.03 -1.07999
11.04 -1.09049
11.05 -1.09923
11.06 -1.10676
11.07 -1.11324
11.08 -1.11898
11.09 -1.12421
11.1 -1.12909
11.11 -1.1338
11.12 -1.1384
11.13 -1.1429
11.14 -1.14725
11.15 -1.15123
11.16 -1.15463
11.17 -1.15686
11.18 -1.15749
11.19 -1.15564
11.2 -1.15028
11.21 -1.14062
11.22 -1.12455
11.23 -1.10154
11.24 -1.06912
11.25 -1.02614
11.26 -0.971097
11.27 -0.901381
11.28 -0.817357
11.29 -0.715468
11.3 -0.59709
11.31 -0.460763
11.32 -0.306631
11.33 -0.136557
11.34 0.0501702
11.35 0.249303
11.36 0.459675
11.37 0.6772
11.38 0.898386
11.39 1.11882
11.4 1.33451
11.41 1.53959
11.42 1.73072
11.43 1.90269
11.44 2.05103
11.45 2.17413
11.46 2.26501
11.47 2.32612
11.48 2.35247
11.49 2.34581
11.5 2.30676
11.51 2.23467
11.52 2.13538
11.53 2.00796
11.54 1.85957
11.55 1.69283
11.56 1.51259
11.57 1.32395
11.58 1.13095
11.59 0.938394
11.6 0.75041
11.61 0.570385
11.62 0.400966
11.63 0.245379
11.64 0.103435
11.65 -0.0218404
11.66 -0.13237
11.67 -0.227691
11.68 -0.308915
11.69 -0.378344
11.7 -0.436333
11.71 -0.486363
11.72 -0.529502
11.73 -0.56819
11.74 -0.604054
11.75 -0.638529
11.76 -0.672782
11.77 -0.707554
11.78 -0.74306
11.79 -0.7792
11.8 -0.815372
11.81 -0.85076
11.82 -0.883859
11.83 -0.913605
11.84 -0.937964
11.85 -0.955526
11.86 -0.964813
11.87 -0.963534
11.88 -0.951664
11.89 -0.926334
11.9 -0.88839
11.91 -0.836603
11.92 -0.770888
11.93 -0.692527
11.94 -0.600555
11.95 -0.497972
11.96 -0.385001
11.97 -0.264171
11.98 -0.137443
11.99 -0.00697106
12 0.124586
12.01 0.254597
12.02 0.380678
12.03 0.500181
12.04 0.610508
12.05 0.710355
12.06 0.796024
12.07 0.867994
12.08 0.923361
12.09 0.962277
12.1 0.984473
12.11 0.988818
12.12 0.977788
12.13 0.949967
12.14 0.90867
12.15 0.854585
12.16 0.789718
12.17 0.716691
12.18 0.636833
12.19 0.553231
12.2 0.467616
12.21 0.382218
12.22 0.298693
12.23 0.218865
12.24 0.14339
12.25 0.073847
12.26 0.00996382
12.27 -0.0478383
12.28 -0.0998344
12.29 -0.146948
12.3 -0.189396
12.31 -0.22877
12.32 -0.265769
12.33 -0.301636
12.34 -0.337269
12.35 -0.373541
12.36 -0.410895
12.37 -0.449808
