# xPDFsuite Configuration #
[PDF]
wavelength = 0.1432
dataformat = twotheta
inputfile = 1_1Pd_CeO2_cycle-00182.chi
backgroundfile = background-00000.chi
mode = xray
bgscale = 1.007
composition = CeO2
outputtype = gr
qmaxinst = 28.8974762299
qmin = 0.5
qmax = 27.9
rmax = 50.0
rmin = 0.0
rstep = 0.01
rpoly = 1.8657

[Misc]
inputdir = G:/SankarDec16/1Pd/Chi
savedir = D:/DATA/APS_CeO2/1Pd
backgroundfilefull = G:/SankarDec16/Background/background-00000.chi

#### start data
#S 1
#L r($\AA$)  G($\AA^{-2}$)
0 0
0.01 -0.00710532
0.02 -0.0136765
0.03 -0.0191633
0.04 -0.0231513
0.05 -0.0254096
0.06 -0.0255666
0.07 -0.0238685
0.08 -0.0201948
0.09 -0.0150158
0.1 -0.0086564
0.11 -0.00161446
0.12 0.00556551
0.13 0.012274
0.14 0.0180767
0.15 0.0224434
0.16 0.0250617
0.17 0.0258056
0.18 0.0244193
0.19 0.0212635
0.2 0.0163489
0.21 0.010223
0.22 0.00328967
0.23 -0.00389245
0.24 -0.0108097
0.25 -0.0168056
0.26 -0.0215652
0.27 -0.024603
0.28 -0.0257231
0.29 -0.0249105
0.3 -0.022037
0.31 -0.0175615
0.32 -0.0116252
0.33 -0.00482814
0.34 0.00236571
0.35 0.00936223
0.36 0.0157026
0.37 0.0207134
0.38 0.024214
0.39 0.025786
0.4 0.0253594
0.41 0.0230309
0.42 0.0188064
0.43 0.0132217
0.44 0.00654259
0.45 -0.000605825
0.46 -0.00772112
0.47 -0.0142007
0.48 -0.0196622
0.49 -0.0234464
0.5 -0.0255155
0.51 -0.025538
0.52 -0.0235733
0.53 -0.0198257
0.54 -0.0144355
0.55 -0.00799102
0.56 -0.000870302
0.57 0.00630484
0.58 0.0130169
0.59 0.0186824
0.6 0.0230135
0.61 0.0253959
0.62 0.0259366
0.63 0.0244071
0.64 0.0209935
0.65 0.0159989
0.66 0.00969213
0.67 0.00268688
0.68 -0.00454368
0.69 -0.0114095
0.7 -0.0174022
0.71 -0.021984
0.72 -0.0249751
0.73 -0.0258348
0.74 -0.0248098
0.75 -0.0217848
0.76 -0.0170643
0.77 -0.0110354
0.78 -0.00408223
0.79 0.00318501
0.8 0.0102218
0.81 0.0164978
0.82 0.0215388
0.83 0.0248793
0.84 0.0264564
0.85 0.02583
0.86 0.0233741
0.87 0.0190923
0.88 0.0133915
0.89 0.00672203
0.9 -0.000438058
0.91 -0.00751591
0.92 -0.013929
0.93 -0.0192387
0.94 -0.0230375
0.95 -0.0249671
0.96 -0.0250913
0.97 -0.0231149
0.98 -0.0195237
0.99 -0.01446
1 -0.0084237
1.01 -0.00191227
1.02 0.00450539
1.03 0.010334
1.04 0.0149658
1.05 0.0180932
1.06 0.0194035
1.07 0.0186801
1.08 0.0161424
1.09 0.0116835
1.1 0.00592197
1.11 -0.000819401
1.12 -0.00791568
1.13 -0.0147983
1.14 -0.0207458
1.15 -0.0253389
1.16 -0.0278679
1.17 -0.0281459
1.18 -0.0259082
1.19 -0.0210238
1.2 -0.0138822
1.21 -0.0044566
1.22 0.00643894
1.23 0.0183559
1.24 0.0305181
1.25 0.042242
1.26 0.0526476
1.27 0.0612663
1.28 0.0672328
1.29 0.0703328
1.3 0.0702215
1.31 0.066677
1.32 0.0601211
1.33 0.0503406
1.34 0.0382463
1.35 0.0241634
1.36 0.00886107
1.37 -0.00696074
1.38 -0.0225343
1.39 -0.0372446
1.4 -0.0503168
1.41 -0.0613737
1.42 -0.0699982
1.43 -0.0758371
1.44 -0.0790843
1.45 -0.0793427
1.46 -0.0772298
1.47 -0.0727808
1.48 -0.0664422
1.49 -0.0586511
1.5 -0.0497223
1.51 -0.0401781
1.52 -0.0303223
1.53 -0.020507
1.54 -0.0109704
1.55 -0.00192899
1.56 0.00655504
1.57 0.0143014
1.58 0.021387
1.59 0.0277347
1.6 0.0333591
1.61 0.038274
1.62 0.0423598
1.63 0.0456596
1.64 0.0479599
1.65 0.0492223
1.66 0.0492842
1.67 0.0479421
1.68 0.0452219
1.69 0.0407757
1.7 0.0348201
1.71 0.0272335
1.72 0.0181781
1.73 0.00788672
1.74 -0.00346353
1.75 -0.015413
1.76 -0.0276211
1.77 -0.0396207
1.78 -0.0509987
1.79 -0.0612846
1.8 -0.0702789
1.81 -0.0774607
1.82 -0.0829539
1.83 -0.0865716
1.84 -0.0884843
1.85 -0.0889757
1.86 -0.0882882
1.87 -0.0869838
1.88 -0.0854999
1.89 -0.0843778
1.9 -0.084083
1.91 -0.0851067
1.92 -0.0875936
1.93 -0.0919921
1.94 -0.0980237
1.95 -0.105681
1.96 -0.11455
1.97 -0.124126
1.98 -0.133769
1.99 -0.142787
2 -0.150275
2.01 -0.155576
2.02 -0.157961
2.03 -0.156642
2.04 -0.151579
2.05 -0.141797
2.06 -0.12791
2.07 -0.109634
2.08 -0.0874194
2.09 -0.061858
2.1 -0.0332622
2.11 -0.00265429
2.12 0.0295088
2.13 0.0624099
2.14 0.0955324
2.15 0.128402
2.16 0.160799
2.17 0.192542
2.18 0.223823
2.19 0.254854
2.2 0.286058
2.21 0.317849
2.22 0.35083
2.23 0.385238
2.24 0.42157
2.25 0.459745
2.26 0.499654
2.27 0.540858
2.28 0.582545
2.29 0.623569
2.3 0.662693
2.31 0.698192
2.32 0.728328
2.33 0.751727
2.34 0.765726
2.35 0.770124
2.36 0.762312
2.37 0.742521
2.38 0.710118
2.39 0.664809
2.4 0.608553
2.41 0.540938
2.42 0.465417
2.43 0.383421
2.44 0.297885
2.45 0.211476
2.46 0.127309
2.47 0.0476442
2.48 -0.0243003
2.49 -0.0870755
2.5 -0.138995
2.51 -0.178575
2.52 -0.206791
2.53 -0.2221
2.54 -0.227382
2.55 -0.223211
2.56 -0.212005
2.57 -0.196194
2.58 -0.178119
2.59 -0.160426
2.6 -0.145641
2.61 -0.135594
2.62 -0.131886
2.63 -0.135918
2.64 -0.147301
2.65 -0.167099
2.66 -0.193316
2.67 -0.225296
2.68 -0.261057
2.69 -0.298629
2.7 -0.335807
2.71 -0.37069
2.72 -0.400971
2.73 -0.425451
2.74 -0.442957
2.75 -0.452575
2.76 -0.455109
2.77 -0.449999
2.78 -0.439459
2.79 -0.424497
2.8 -0.40724
2.81 -0.38966
2.82 -0.374078
2.83 -0.362052
2.84 -0.355792
2.85 -0.356044
2.86 -0.363606
2.87 -0.378891
2.88 -0.400676
2.89 -0.428858
2.9 -0.460959
2.91 -0.495442
2.92 -0.529897
2.93 -0.562268
2.94 -0.589861
2.95 -0.611517
2.96 -0.624869
2.97 -0.629669
2.98 -0.625422
2.99 -0.612127
3 -0.591579
3.01 -0.564319
3.02 -0.533343
3.03 -0.500628
3.04 -0.468945
3.05 -0.440537
3.06 -0.418392
3.07 -0.403497
3.08 -0.398291
3.09 -0.402692
3.1 -0.416944
3.11 -0.440697
3.12 -0.471768
3.13 -0.509203
3.14 -0.549731
3.15 -0.591067
3.16 -0.6303
3.17 -0.665208
3.18 -0.692807
3.19 -0.712484
3.2 -0.722112
3.21 -0.722311
3.22 -0.713392
3.23 -0.696429
3.24 -0.674024
3.25 -0.648136
3.26 -0.622124
3.27 -0.598924
3.28 -0.581598
3.29 -0.57223
3.3 -0.574019
3.31 -0.586719
3.32 -0.612249
3.33 -0.648977
3.34 -0.695802
3.35 -0.750621
3.36 -0.809947
3.37 -0.870568
3.38 -0.928594
3.39 -0.980151
3.4 -1.02174
3.41 -1.05123
3.42 -1.06501
3.43 -1.06421
3.44 -1.04705
3.45 -1.01632
3.46 -0.974031
3.47 -0.923473
3.48 -0.869203
3.49 -0.815811
3.5 -0.767769
3.51 -0.729807
3.52 -0.705584
3.53 -0.696806
3.54 -0.706544
3.55 -0.731907
3.56 -0.772585
3.57 -0.82299
3.58 -0.877809
3.59 -0.929015
3.6 -0.969272
3.61 -0.985994
3.62 -0.972991
3.63 -0.918358
3.64 -0.81393
3.65 -0.655584
3.66 -0.431414
3.67 -0.147588
3.68 0.203763
3.69 0.613641
3.7 1.07748
3.71 1.58757
3.72 2.12868
3.73 2.69024
3.74 3.25384
3.75 3.80343
3.76 4.32108
3.77 4.79325
3.78 5.1973
3.79 5.52949
3.8 5.76865
3.81 5.91445
3.82 5.96067
3.83 5.90178
3.84 5.75082
3.85 5.49887
3.86 5.16932
3.87 4.76648
3.88 4.30683
3.89 3.80684
3.9 3.28003
3.91 2.74497
3.92 2.21664
3.93 1.70897
3.94 1.23381
3.95 0.803632
3.96 0.420455
3.97 0.0976701
3.98 -0.171328
3.99 -0.382152
4 -0.539092
4.01 -0.648968
4.02 -0.713451
4.03 -0.745369
4.04 -0.748568
4.05 -0.733629
4.06 -0.707246
4.07 -0.676428
4.08 -0.646778
4.09 -0.62359
4.1 -0.609
4.11 -0.605434
4.12 -0.613077
4.13 -0.630698
4.14 -0.657469
4.15 -0.689858
4.16 -0.725538
4.17 -0.761007
4.18 -0.79339
4.19 -0.819463
4.2 -0.837788
4.21 -0.845057
4.22 -0.841747
4.23 -0.826467
4.24 -0.799646
4.25 -0.762461
4.26 -0.714976
4.27 -0.659871
4.28 -0.59776
4.29 -0.530855
4.3 -0.460448
4.31 -0.38781
4.32 -0.314108
4.33 -0.240032
4.34 -0.166128
4.35 -0.092671
4.36 -0.0197674
4.37 0.0525891
4.38 0.124303
4.39 0.195348
4.4 0.265334
4.41 0.333817
4.42 0.400046
4.43 0.462769
4.44 0.521209
4.45 0.57298
4.46 0.617463
4.47 0.652454
4.48 0.676539
4.49 0.689068
4.5 0.687563
4.51 0.673318
4.52 0.644497
4.53 0.602692
4.54 0.548492
4.55 0.48284
4.56 0.40853
4.57 0.32652
4.58 0.240241
4.59 0.151725
4.6 0.0636637
4.61 -0.0218684
4.62 -0.102243
4.63 -0.176557
4.64 -0.242706
4.65 -0.300579
4.66 -0.349788
4.67 -0.390172
4.68 -0.42323
4.69 -0.448864
4.7 -0.469372
4.71 -0.485684
4.72 -0.499458
4.73 -0.512088
4.74 -0.52485
4.75 -0.538666
4.76 -0.554405
4.77 -0.57229
4.78 -0.592391
4.79 -0.614505
4.8 -0.637935
4.81 -0.662056
4.82 -0.6859
4.83 -0.708546
4.84 -0.729066
4.85 -0.746865
4.86 -0.760946
4.87 -0.771454
4.88 -0.777794
4.89 -0.780451
4.9 -0.779719
4.91 -0.776092
4.92 -0.77054
4.93 -0.763696
4.94 -0.75661
4.95 -0.750085
4.96 -0.744922
4.97 -0.741615
4.98 -0.740888
4.99 -0.742634
5 -0.747239
5.01 -0.75434
5.02 -0.763717
5.03 -0.775043
5.04 -0.787699
5.05 -0.801354
5.06 -0.8154
5.07 -0.829461
5.08 -0.843157
5.09 -0.856253
5.1 -0.868441
5.11 -0.879686
5.12 -0.889703
5.13 -0.898391
5.14 -0.905469
5.15 -0.910402
5.16 -0.91289
5.17 -0.911626
5.18 -0.906128
5.19 -0.894841
5.2 -0.876374
5.21 -0.849728
5.22 -0.812171
5.23 -0.763758
5.24 -0.70169
5.25 -0.626021
5.26 -0.53597
5.27 -0.430744
5.28 -0.312391
5.29 -0.180038
5.3 -0.0374894
5.31 0.113653
5.32 0.269811
5.33 0.427366
5.34 0.581786
5.35 0.729354
5.36 0.864524
5.37 0.983819
5.38 1.08328
5.39 1.1581
5.4 1.20841
5.41 1.22796
5.42 1.2201
5.43 1.18258
5.44 1.11711
5.45 1.02704
5.46 0.912797
5.47 0.781162
5.48 0.634355
5.49 0.478471
5.5 0.317917
5.51 0.157784
5.52 0.00208041
5.53 -0.143894
5.54 -0.278128
5.55 -0.397073
5.56 -0.49906
5.57 -0.584113
5.58 -0.650063
5.59 -0.700084
5.6 -0.733445
5.61 -0.753355
5.62 -0.761632
5.63 -0.760278
5.64 -0.752392
5.65 -0.739314
5.66 -0.723592
5.67 -0.706397
5.68 -0.688802
5.69 -0.671269
5.7 -0.653812
5.71 -0.636022
5.72 -0.617068
5.73 -0.596026
5.74 -0.571864
5.75 -0.543284
5.76 -0.509979
5.77 -0.470514
5.78 -0.425553
5.79 -0.374878
5.8 -0.31936
5.81 -0.260315
5.82 -0.199123
5.83 -0.137886
5.84 -0.0788377
5.85 -0.0241377
5.86 0.0240882
5.87 0.0632503
5.88 0.0927451
5.89 0.109461
5.9 0.114335
5.91 0.106093
5.92 0.0852474
5.93 0.0531976
5.94 0.0100589
5.95 -0.0410741
5.96 -0.099174
5.97 -0.161458
5.98 -0.225943
5.99 -0.290431
6 -0.353252
6.01 -0.412397
6.02 -0.467253
6.03 -0.516796
6.04 -0.560855
6.05 -0.599886
6.06 -0.633908
6.07 -0.664392
6.08 -0.691952
6.09 -0.717965
6.1 -0.743411
6.11 -0.769288
6.12 -0.796175
6.13 -0.824676
6.14 -0.854615
6.15 -0.885812
6.16 -0.917574
6.17 -0.949068
6.18 -0.979037
6.19 -1.00659
6.2 -1.03024
6.21 -1.04926
6.22 -1.0629
6.23 -1.07042
6.24 -1.07244
6.25 -1.06848
6.26 -1.06014
6.27 -1.04815
6.28 -1.03404
6.29 -1.01929
6.3 -1.00549
6.31 -0.993718
6.32 -0.985195
6.33 -0.980055
6.34 -0.978067
6.35 -0.978205
6.36 -0.978535
6.37 -0.975982
6.38 -0.967397
6.39 -0.948156
6.4 -0.913289
6.41 -0.859083
6.42 -0.777376
6.43 -0.667335
6.44 -0.5209
6.45 -0.337445
6.46 -0.114531
6.47 0.150702
6.48 0.452948
6.49 0.795395
6.5 1.1682
6.51 1.56793
6.52 1.9859
6.53 2.41294
6.54 2.83867
6.55 3.25304
6.56 3.64306
6.57 3.99927
6.58 4.31166
6.59 4.56761
6.6 4.76613
6.61 4.89087
6.62 4.94789
6.63 4.92993
6.64 4.83862
6.65 4.6805
6.66 4.45292
6.67 4.17176
6.68 3.83894
6.69 3.4686
6.7 3.07028
6.71 2.65479
6.72 2.23393
6.73 1.81872
6.74 1.41804
6.75 1.04134
6.76 0.695934
6.77 0.385012
6.78 0.117117
6.79 -0.111712
6.8 -0.296133
6.81 -0.440833
6.82 -0.547785
6.83 -0.619007
6.84 -0.662297
6.85 -0.678528
6.86 -0.676376
6.87 -0.659135
6.88 -0.631987
6.89 -0.599177
6.9 -0.563892
6.91 -0.528983
6.92 -0.496451
6.93 -0.467305
6.94 -0.442028
6.95 -0.420769
6.96 -0.402686
6.97 -0.387516
6.98 -0.374088
6.99 -0.361844
7 -0.350189
7.01 -0.338852
7.02 -0.327951
7.03 -0.317829
7.04 -0.309366
7.05 -0.303497
7.06 -0.301368
7.07 -0.3046
7.08 -0.31372
7.09 -0.330888
7.1 -0.355788
7.11 -0.389419
7.12 -0.431615
7.13 -0.481411
7.14 -0.538608
7.15 -0.600813
7.16 -0.666762
7.17 -0.733971
7.18 -0.80034
7.19 -0.863285
7.2 -0.921237
7.21 -0.971257
7.22 -1.01293
7.23 -1.0446
7.24 -1.06592
7.25 -1.07758
7.26 -1.07911
7.27 -1.07305
7.28 -1.06008
7.29 -1.04274
7.3 -1.02294
7.31 -1.00287
7.32 -0.98432
7.33 -0.969377
7.34 -0.958737
7.35 -0.953354
7.36 -0.953176
7.37 -0.957329
7.38 -0.964892
7.39 -0.973611
7.4 -0.981164
7.41 -0.984774
7.42 -0.98165
7.43 -0.968095
7.44 -0.942683
7.45 -0.900671
7.46 -0.842303
7.47 -0.765004
7.48 -0.668382
7.49 -0.55378
7.5 -0.420192
7.51 -0.272069
7.52 -0.110392
7.53 0.0602686
7.54 0.236302
7.55 0.413195
7.56 0.586787
7.57 0.751488
7.58 0.904194
7.59 1.04016
7.6 1.1559
7.61 1.25008
7.62 1.31767
7.63 1.36114
7.64 1.377
7.65 1.36772
7.66 1.33417
7.67 1.27701
7.68 1.20094
7.69 1.10601
7.7 0.99785
7.71 0.878616
7.72 0.752071
7.73 0.621636
7.74 0.490432
7.75 0.361357
7.76 0.237428
7.77 0.120689
7.78 0.0130355
7.79 -0.0832193
7.8 -0.168177
7.81 -0.238969
7.82 -0.296895
7.83 -0.340699
7.84 -0.370559
7.85 -0.387568
7.86 -0.390729
7.87 -0.382719
7.88 -0.363221
7.89 -0.334442
7.9 -0.297739
7.91 -0.254593
7.92 -0.207426
7.93 -0.157879
7.94 -0.108403
7.95 -0.06111
7.96 -0.0183016
7.97 0.0184401
7.98 0.0462048
7.99 0.0646974
8 0.0714265
8.01 0.0663451
8.02 0.04898
8.03 0.0186923
8.04 -0.0226193
8.05 -0.0756107
8.06 -0.13729
8.07 -0.206564
8.08 -0.281089
8.09 -0.358503
8.1 -0.436521
8.11 -0.512914
8.12 -0.585335
8.13 -0.652226
8.14 -0.712268
8.15 -0.764043
8.16 -0.808075
8.17 -0.843205
8.18 -0.871181
8.19 -0.892415
8.2 -0.908391
8.21 -0.920783
8.22 -0.930921
8.23 -0.940514
8.24 -0.950761
8.25 -0.962489
8.26 -0.976011
8.27 -0.991122
8.28 -1.0068
8.29 -1.02131
8.3 -1.03254
8.31 -1.03746
8.32 -1.03256
8.33 -1.01518
8.34 -0.979469
8.35 -0.924544
8.36 -0.844618
8.37 -0.738695
8.38 -0.604847
8.39 -0.440368
8.4 -0.248718
8.41 -0.0269428
8.42 0.218477
8.43 0.485718
8.44 0.769338
8.45 1.0631
8.46 1.36076
8.47 1.65495
8.48 1.93755
8.49 2.20157
8.5 2.44026
8.51 2.64475
8.52 2.81358
8.53 2.93573
8.54 3.01389
8.55 3.04278
8.56 3.02221
8.57 2.95599
8.58 2.8408
8.59 2.68683
8.6 2.49413
8.61 2.27144
8.62 2.0246
8.63 1.75987
8.64 1.48559
8.65 1.20798
8.66 0.934091
8.67 0.670021
8.68 0.421411
8.69 0.191266
8.7 -0.0141365
8.71 -0.196013
8.72 -0.35013
8.73 -0.478247
8.74 -0.580936
8.75 -0.658441
8.76 -0.715576
8.77 -0.752164
8.78 -0.774024
8.79 -0.783278
8.8 -0.783657
8.81 -0.778615
8.82 -0.770827
8.83 -0.763137
8.84 -0.757759
8.85 -0.756244
8.86 -0.759646
8.87 -0.768938
8.88 -0.783583
8.89 -0.8041
8.9 -0.829053
8.91 -0.857847
8.92 -0.889216
8.93 -0.921879
8.94 -0.954575
8.95 -0.986168
8.96 -1.01544
8.97 -1.04167
8.98 -1.06426
8.99 -1.08259
9 -1.09701
9.01 -1.10706
9.02 -1.11364
9.03 -1.117
9.04 -1.11785
9.05 -1.11697
9.06 -1.11492
9.07 -1.11246
9.08 -1.11003
9.09 -1.10797
9.1 -1.10637
9.11 -1.10512
9.12 -1.10383
9.13 -1.10181
9.14 -1.09832
9.15 -1.0923
9.16 -1.08256
9.17 -1.0683
9.18 -1.04766
9.19 -1.02056
9.2 -0.985385
9.21 -0.94213
9.22 -0.890589
9.23 -0.830452
9.24 -0.763196
9.25 -0.688783
9.26 -0.609532
9.27 -0.52678
9.28 -0.442765
9.29 -0.359596
9.3 -0.28009
9.31 -0.206
9.32 -0.140321
9.33 -0.08459
9.34 -0.0404029
9.35 -0.00987969
9.36 0.00780144
9.37 0.0103424
9.38 5.56996e-05
9.39 -0.0230898
9.4 -0.057447
9.41 -0.100597
9.42 -0.151134
9.43 -0.205651
9.44 -0.261959
9.45 -0.317231
9.46 -0.369209
9.47 -0.4153
9.48 -0.454573
9.49 -0.484529
9.5 -0.505649
9.51 -0.517158
9.52 -0.519557
9.53 -0.514259
9.54 -0.501802
9.55 -0.484826
9.56 -0.464784
9.57 -0.444042
9.58 -0.424491
9.59 -0.408306
9.6 -0.39658
9.61 -0.391426
9.62 -0.39283
9.63 -0.40161
9.64 -0.417628
9.65 -0.439951
9.66 -0.468405
9.67 -0.501011
9.68 -0.536882
9.69 -0.574293
9.7 -0.611948
9.71 -0.648464
9.72 -0.683044
9.73 -0.714572
9.74 -0.743048
9.75 -0.768196
9.76 -0.79028
9.77 -0.809904
9.78 -0.827397
9.79 -0.843612
9.8 -0.85886
9.81 -0.873407
9.82 -0.887071
9.83 -0.899019
9.84 -0.908288
9.85 -0.912335
9.86 -0.90929
9.87 -0.895661
9.88 -0.867633
9.89 -0.822643
9.9 -0.753801
9.91 -0.660675
9.92 -0.536552
9.93 -0.380362
9.94 -0.19003
9.95 0.0379234
9.96 0.299273
9.97 0.597816
9.98 0.92601
9.99 1.28185
10 1.65916
10.01 2.0504
10.02 2.4485
10.03 2.84428
10.04 3.22816
10.05 3.59133
10.06 3.92546
10.07 4.21938
10.08 4.47082
10.09 4.66609
10.1 4.80757
10.11 4.88851
10.12 4.90772
10.13 4.86966
10.14 4.76907
10.15 4.61837
10.16 4.41684
10.17 4.17471
10.18 3.89891
10.19 3.59627
10.2 3.27735
10.21 2.94874
10.22 2.61956
10.23 2.29672
10.24 1.98712
10.25 1.69467
10.26 1.42644
10.27 1.18182
10.28 0.965426
10.29 0.775905
10.3 0.612717
10.31 0.475903
10.32 0.360486
10.33 0.266778
10.34 0.188898
10.35 0.124758
10.36 0.070738
10.37 0.0233478
10.38 -0.0197595
10.39 -0.0615266
10.4 -0.103841
10.41 -0.148267
10.42 -0.195782
10.43 -0.247257
10.44 -0.302424
10.45 -0.361688
10.46 -0.42408
10.47 -0.489168
10.48 -0.556046
10.49 -0.623766
10.5 -0.691332
10.51 -0.757832
10.52 -0.822156
10.53 -0.883489
10.54 -0.941037
10.55 -0.993653
10.56 -1.04122
10.57 -1.08219
10.58 -1.11678
10.59 -1.14404
10.6 -1.16351
10.61 -1.17542
10.62 -1.17847
10.63 -1.17384
10.64 -1.16069
10.65 -1.13986
10.66 -1.11182
10.67 -1.07683
10.68 -1.03648
10.69 -0.991087
10.7 -0.942491
10.71 -0.891764
10.72 -0.840446
10.73 -0.789872
10.74 -0.741762
10.75 -0.697039
10.76 -0.657333
10.77 -0.623367
10.78 -0.59585
10.79 -0.575798
10.8 -0.562611
10.81 -0.557375
10.82 -0.558851
10.83 -0.567039
10.84 -0.581225
10.85 -0.600299
10.86 -0.623949
10.87 -0.650673
10.88 -0.679947
10.89 -0.710745
10.9 -0.742387
10.91 -0.774244
10.92 -0.805849
10.93 -0.836764
10.94 -0.86683
10.95 -0.895848
10.96 -0.923733
10.97 -0.950526
10.98 -0.976041
10.99 -1.00042
11 -1.02343
11.01 -1.04505
11.02 -1.06512
11.03 -1.08332
11.04 -1.09966
11.05 -1.1136
11.06 -1.12527
11.07 -1.13441
11.08 -1.141
11.09 -1.1453
11.1 -1.14722
11.11 -1.14743
11.12 -1.14614
11.13 -1.14398
11.14 -1.14142
11.15 -1.13896
11.16 -1.1369
11.17 -1.13551
11.18 -1.13461
11.19 -1.13383
11.2 -1.13234
11.21 -1.12914
11.22 -1.1222
11.23 -1.11018
11.24 -1.09016
11.25 -1.06003
11.26 -1.01739
11.27 -0.958512
11.28 -0.883007
11.29 -0.78593
11.3 -0.668322
11.31 -0.527891
11.32 -0.364416
11.33 -0.180071
11.34 0.0262566
11.35 0.249027
11.36 0.486695
11.37 0.733781
11.38 0.98558
11.39 1.23615
11.4 1.4802
11.41 1.70998
11.42 1.92125
11.43 2.10742
11.44 2.26305
11.45 2.3865
11.46 2.46957
11.47 2.51601
11.48 2.52055
11.49 2.48627
11.5 2.41489
11.51 2.30701
11.52 2.17025
11.53 2.00521
11.54 1.82066
11.55 1.62075
11.56 1.41177
11.57 1.19944
11.58 0.98942
11.59 0.785965
11.6 0.594025
11.61 0.416275
11.62 0.254804
11.63 0.112283
11.64 -0.0130206
11.65 -0.118839
11.66 -0.208711
11.67 -0.283296
11.68 -0.34498
11.69 -0.396904
11.7 -0.44066
11.71 -0.479831
11.72 -0.51623
11.73 -0.552112
11.74 -0.588918
11.75 -0.62789
11.76 -0.669255
11.77 -0.713367
11.78 -0.759361
11.79 -0.806416
11.8 -0.853068
11.81 -0.897883
11.82 -0.938523
11.83 -0.973758
11.84 -1.00102
11.85 -1.01893
11.86 -1.02608
11.87 -1.02021
11.88 -1.00184
11.89 -0.968249
11.9 -0.920922
11.91 -0.858987
11.92 -0.782812
11.93 -0.694033
11.94 -0.59203
11.95 -0.47995
11.96 -0.358206
11.97 -0.229325
11.98 -0.0952425
11.99 0.0419213
12 0.179671
12.01 0.315403
12.02 0.446859
12.03 0.571391
12.04 0.686356
12.05 0.79038
12.06 0.879495
12.07 0.95405
12.08 1.01075
12.09 1.04949
12.1 1.06975
12.11 1.06997
12.12 1.0527
12.13 1.01609
12.14 0.963782
12.15 0.896493
12.16 0.816549
12.17 0.727102
12.18 0.629936
12.19 0.5289
12.2 0.426451
12.21 0.325572
12.22 0.228579
12.23 0.138177
12.24 0.0551855
12.25 -0.0179112
12.26 -0.081662
12.27 -0.13542
12.28 -0.179689
12.29 -0.216037
12.3 -0.244952
12.31 -0.269164
12.32 -0.290083
12.33 -0.31001
12.34 -0.330727
12.35 -0.354196
12.36 -0.381345
12.37 -0.413749
12.38 -0.451163
12.39 -0.493715
12.4 -0.540596
12.41 -0.59032
