# xPDFsuite Configuration #
[PDF]
wavelength = 0.1432
dataformat = twotheta
inputfile = 1_1Pd_CeO2_cycle-00438.chi
backgroundfile = background-00000.chi
mode = xray
bgscale = 1.007
composition = CeO2
outputtype = gr
qmaxinst = 28.8974762299
qmin = 0.5
qmax = 27.9
rmax = 50.0
rmin = 0.0
rstep = 0.01
rpoly = 1.8657

[Misc]
inputdir = G:/SankarDec16/1Pd/Chi
savedir = D:/DATA/APS_CeO2/1Pd
backgroundfilefull = G:/SankarDec16/Background/background-00000.chi

#### start data
#S 1
#L r($\AA$)  G($\AA^{-2}$)
0 0
0.01 -0.00439013
0.02 -0.00844828
0.03 -0.0118327
0.04 -0.0142863
0.05 -0.0156662
0.06 -0.0157431
0.07 -0.0146709
0.08 -0.0123773
0.09 -0.00915566
0.1 -0.00520976
0.11 -0.000850686
0.12 0.00358372
0.13 0.0077131
0.14 0.0112706
0.15 0.0139278
0.16 0.0154945
0.17 0.015896
0.18 0.0149787
0.19 0.0129704
0.2 0.00988389
0.21 0.00606222
0.22 0.00175964
0.23 -0.00267426
0.24 -0.00692266
0.25 -0.010576
0.26 -0.0134459
0.27 -0.0152341
0.28 -0.0158267
0.29 -0.0152213
0.3 -0.0133477
0.31 -0.0104964
0.32 -0.00676477
0.33 -0.00252831
0.34 0.00192108
0.35 0.00621263
0.36 0.0100667
0.37 0.0130652
0.38 0.0151077
0.39 0.0159414
0.4 0.0155346
0.41 0.0139574
0.42 0.011227
0.43 0.00768184
0.44 0.0034993
0.45 -0.000931442
0.46 -0.00529566
0.47 -0.0092199
0.48 -0.012476
0.49 -0.0146587
0.5 -0.0157607
0.51 -0.0155877
0.52 -0.014192
0.53 -0.011713
0.54 -0.00825477
0.55 -0.0041869
0.56 0.000242221
0.57 0.0046491
0.58 0.00871221
0.59 0.0120741
0.6 0.0145702
0.61 0.0158282
0.62 0.0159349
0.63 0.0147646
0.64 0.0124512
0.65 0.00919671
0.66 0.00518699
0.67 0.000804183
0.68 -0.00364469
0.69 -0.0078011
0.7 -0.0113532
0.71 -0.0139774
0.72 -0.015581
0.73 -0.0158438
0.74 -0.0149419
0.75 -0.0128241
0.76 -0.00969903
0.77 -0.00581975
0.78 -0.00144362
0.79 0.00305496
0.8 0.00732839
0.81 0.0110622
0.82 0.0139721
0.83 0.0157872
0.84 0.0164918
0.85 0.0158376
0.86 0.0140794
0.87 0.0112444
0.88 0.00760368
0.89 0.00344596
0.9 -0.000916212
0.91 -0.00514162
0.92 -0.00886735
0.93 -0.0118479
0.94 -0.0138524
0.95 -0.0146913
0.96 -0.0144355
0.97 -0.012948
0.98 -0.010554
0.99 -0.00738218
1 -0.00376559
1.01 -2.23732e-05
1.02 0.00346892
1.03 0.00642969
1.04 0.00847687
1.05 0.00946371
1.06 0.00922835
1.07 0.00768503
1.08 0.00502246
1.09 0.00124275
1.1 -0.00322256
1.11 -0.00810293
1.12 -0.0129578
1.13 -0.0173998
1.14 -0.0209071
1.15 -0.0232382
1.16 -0.0238889
1.17 -0.0227768
1.18 -0.0197369
1.19 -0.0147009
1.2 -0.00797801
1.21 0.00044268
1.22 0.00995564
1.23 0.020233
1.24 0.0307068
1.25 0.0408747
1.26 0.0500864
1.27 0.0579828
1.28 0.063899
1.29 0.0676371
1.3 0.0688871
1.31 0.0674005
1.32 0.0634321
1.33 0.0566689
1.34 0.0477471
1.35 0.0367664
1.36 0.0242209
1.37 0.0105925
1.38 -0.00367068
1.39 -0.0180139
1.4 -0.0319266
1.41 -0.0449769
1.42 -0.0567575
1.43 -0.0668421
1.44 -0.0751557
1.45 -0.0811599
1.46 -0.0850748
1.47 -0.0866353
1.48 -0.0859158
1.49 -0.0830601
1.5 -0.0779617
1.51 -0.0710465
1.52 -0.0622567
1.53 -0.051983
1.54 -0.0404115
1.55 -0.027792
1.56 -0.0144922
1.57 -0.000762676
1.58 0.012991
1.59 0.0264093
1.6 0.0390878
1.61 0.0506952
1.62 0.0606688
1.63 0.0688638
1.64 0.0746672
1.65 0.0779912
1.66 0.0785543
1.67 0.0761
1.68 0.0708959
1.69 0.0625505
1.7 0.051724
1.71 0.03848
1.72 0.0233444
1.73 0.00686748
1.74 -0.01042
1.75 -0.0278145
1.76 -0.044641
1.77 -0.0603051
1.78 -0.0742428
1.79 -0.0858693
1.8 -0.0951075
1.81 -0.101316
1.82 -0.104914
1.83 -0.105776
1.84 -0.104299
1.85 -0.100973
1.86 -0.0962281
1.87 -0.0908381
1.88 -0.0854207
1.89 -0.0806546
1.9 -0.0771205
1.91 -0.0754139
1.92 -0.0756709
1.93 -0.078447
1.94 -0.0833657
1.95 -0.0904426
1.96 -0.099206
1.97 -0.109088
1.98 -0.119432
1.99 -0.129451
2 -0.13823
2.01 -0.145036
2.02 -0.149105
2.03 -0.149607
2.04 -0.146441
2.05 -0.138583
2.06 -0.126578
2.07 -0.110063
2.08 -0.0894016
2.09 -0.065109
2.1 -0.03736
2.11 -0.0071465
2.12 0.0252198
2.13 0.0589279
2.14 0.0935032
2.15 0.128485
2.16 0.163542
2.17 0.19847
2.18 0.233234
2.19 0.267883
2.2 0.302585
2.21 0.33752
2.22 0.372938
2.23 0.408915
2.24 0.445565
2.25 0.482709
2.26 0.520067
2.27 0.557069
2.28 0.593091
2.29 0.626874
2.3 0.657632
2.31 0.683843
2.32 0.704219
2.33 0.717829
2.34 0.722579
2.35 0.718682
2.36 0.704187
2.37 0.679645
2.38 0.64482
2.39 0.599799
2.4 0.546391
2.41 0.484618
2.42 0.417337
2.43 0.345915
2.44 0.272755
2.45 0.19995
2.46 0.130026
2.47 0.0645168
2.48 0.00589291
2.49 -0.0450131
2.5 -0.087115
2.51 -0.119558
2.52 -0.143369
2.53 -0.157707
2.54 -0.164977
2.55 -0.165892
2.56 -0.162451
2.57 -0.156552
2.58 -0.150108
2.59 -0.144916
2.6 -0.142864
2.61 -0.145023
2.62 -0.152345
2.63 -0.165527
2.64 -0.183944
2.65 -0.207916
2.66 -0.2357
2.67 -0.266397
2.68 -0.298282
2.69 -0.329788
2.7 -0.358983
2.71 -0.384727
2.72 -0.405198
2.73 -0.419905
2.74 -0.428241
2.75 -0.429918
2.76 -0.426012
2.77 -0.416597
2.78 -0.403756
2.79 -0.388722
2.8 -0.373451
2.81 -0.359609
2.82 -0.349319
2.83 -0.343529
2.84 -0.344079
2.85 -0.351158
2.86 -0.365128
2.87 -0.385933
2.88 -0.412151
2.89 -0.443245
2.9 -0.47686
2.91 -0.51135
2.92 -0.544491
2.93 -0.574498
2.94 -0.598918
2.95 -0.617034
2.96 -0.626832
2.97 -0.628447
2.98 -0.621691
2.99 -0.606873
3 -0.585833
3.01 -0.559355
3.02 -0.530201
3.03 -0.500295
3.04 -0.472123
3.05 -0.447612
3.06 -0.429391
3.07 -0.418092
3.08 -0.415738
3.09 -0.421994
3.1 -0.436863
3.11 -0.459783
3.12 -0.488689
3.13 -0.522485
3.14 -0.558295
3.15 -0.59401
3.16 -0.627121
3.17 -0.655797
3.18 -0.677522
3.19 -0.692021
3.2 -0.697647
3.21 -0.69522
3.22 -0.685265
3.23 -0.669018
3.24 -0.648873
3.25 -0.626885
3.26 -0.605921
3.27 -0.588695
3.28 -0.577819
3.29 -0.574967
3.3 -0.582868
3.31 -0.600967
3.32 -0.630761
3.33 -0.670489
3.34 -0.718919
3.35 -0.773904
3.36 -0.832218
3.37 -0.890715
3.38 -0.945982
3.39 -0.994454
3.4 -1.03306
3.41 -1.06004
3.42 -1.07218
3.43 -1.07075
3.44 -1.05423
3.45 -1.02529
3.46 -0.985835
3.47 -0.938882
3.48 -0.888538
3.49 -0.838859
3.5 -0.793776
3.51 -0.757363
3.52 -0.732704
3.53 -0.721149
3.54 -0.725096
3.55 -0.74187
3.56 -0.770802
3.57 -0.806826
3.58 -0.845013
3.59 -0.878005
3.6 -0.899422
3.61 -0.89775
3.62 -0.86786
3.63 -0.799129
3.64 -0.684543
3.65 -0.520728
3.66 -0.297272
3.67 -0.0200944
3.68 0.317556
3.69 0.707313
3.7 1.14483
3.71 1.62294
3.72 2.12793
3.73 2.65003
3.74 3.17287
3.75 3.68192
3.76 4.16116
3.77 4.59854
3.78 4.97365
3.79 5.28333
3.8 5.50847
3.81 5.64882
3.82 5.69871
3.83 5.65299
3.84 5.52336
3.85 5.30133
3.86 5.00792
3.87 4.64658
3.88 4.23185
3.89 3.77842
3.9 3.29791
3.91 2.80725
3.92 2.31942
3.93 1.84723
3.94 1.40136
3.95 0.993091
3.96 0.624805
3.97 0.308586
3.98 0.0392692
3.99 -0.178825
4 -0.348929
4.01 -0.476631
4.02 -0.562783
4.03 -0.618512
4.04 -0.646623
4.05 -0.656362
4.06 -0.653411
4.07 -0.643717
4.08 -0.632495
4.09 -0.624038
4.1 -0.620765
4.11 -0.624769
4.12 -0.636498
4.13 -0.655191
4.14 -0.680196
4.15 -0.708868
4.16 -0.739238
4.17 -0.768542
4.18 -0.794407
4.19 -0.814131
4.2 -0.826616
4.21 -0.82898
4.22 -0.821762
4.23 -0.803756
4.24 -0.77538
4.25 -0.737708
4.26 -0.69081
4.27 -0.637105
4.28 -0.57717
4.29 -0.513024
4.3 -0.445873
4.31 -0.376929
4.32 -0.307275
4.33 -0.23765
4.34 -0.168547
4.35 -0.100287
4.36 -0.0329783
4.37 0.033417
4.38 0.0988149
4.39 0.163323
4.4 0.226671
4.41 0.288629
4.42 0.348673
4.43 0.40588
4.44 0.459673
4.45 0.508156
4.46 0.5508
4.47 0.585763
4.48 0.611781
4.49 0.628193
4.5 0.632737
4.51 0.626312
4.52 0.607084
4.53 0.576158
4.54 0.533758
4.55 0.480333
4.56 0.418164
4.57 0.347586
4.58 0.271622
4.59 0.191757
4.6 0.110309
4.61 0.0292081
4.62 -0.0493396
4.63 -0.124094
4.64 -0.193116
4.65 -0.255823
4.66 -0.311512
4.67 -0.359582
4.68 -0.400936
4.69 -0.434951
4.7 -0.46338
4.71 -0.486626
4.72 -0.505917
4.73 -0.52243
4.74 -0.537029
4.75 -0.550855
4.76 -0.56462
4.77 -0.578931
4.78 -0.594134
4.79 -0.610426
4.8 -0.627633
4.81 -0.645632
4.82 -0.663931
4.83 -0.682097
4.84 -0.699586
4.85 -0.715985
4.86 -0.730675
4.87 -0.743566
4.88 -0.7542
4.89 -0.762685
4.9 -0.769046
4.91 -0.773394
4.92 -0.776207
4.93 -0.77765
4.94 -0.778332
4.95 -0.778604
4.96 -0.778913
4.97 -0.779582
4.98 -0.78098
4.99 -0.783201
5 -0.786474
5.01 -0.790746
5.02 -0.795996
5.03 -0.802163
5.04 -0.809033
5.05 -0.816552
5.06 -0.824476
5.07 -0.8327
5.08 -0.841067
5.09 -0.849451
5.1 -0.857691
5.11 -0.865639
5.12 -0.873013
5.13 -0.879521
5.14 -0.884737
5.15 -0.887945
5.16 -0.888686
5.17 -0.885507
5.18 -0.877881
5.19 -0.864239
5.2 -0.843282
5.21 -0.81416
5.22 -0.774411
5.23 -0.724326
5.24 -0.66152
5.25 -0.586322
5.26 -0.498271
5.27 -0.396948
5.28 -0.284375
5.29 -0.160092
5.3 -0.0275483
5.31 0.111657
5.32 0.254314
5.33 0.397284
5.34 0.536537
5.35 0.669042
5.36 0.789994
5.37 0.896589
5.38 0.985526
5.39 1.0528
5.4 1.09868
5.41 1.11784
5.42 1.11326
5.43 1.08299
5.44 1.02847
5.45 0.952491
5.46 0.855249
5.47 0.742456
5.48 0.615738
5.49 0.480189
5.5 0.339397
5.51 0.197491
5.52 0.0579603
5.53 -0.074947
5.54 -0.19925
5.55 -0.311935
5.56 -0.411352
5.57 -0.497227
5.58 -0.567452
5.59 -0.624295
5.6 -0.666738
5.61 -0.697099
5.62 -0.71654
5.63 -0.726302
5.64 -0.728893
5.65 -0.724906
5.66 -0.716645
5.67 -0.704867
5.68 -0.690554
5.69 -0.674319
5.7 -0.656172
5.71 -0.636292
5.72 -0.614129
5.73 -0.589383
5.74 -0.561522
5.75 -0.529831
5.76 -0.494365
5.77 -0.454278
5.78 -0.410277
5.79 -0.362397
5.8 -0.311453
5.81 -0.258517
5.82 -0.204817
5.83 -0.15189
5.84 -0.101575
5.85 -0.0554565
5.86 -0.0151704
5.87 0.0172674
5.88 0.041499
5.89 0.0550128
5.9 0.0586505
5.91 0.0513587
5.92 0.0335265
5.93 0.00625622
5.94 -0.0304872
5.95 -0.0742103
5.96 -0.124233
5.97 -0.178322
5.98 -0.234925
5.99 -0.292316
6 -0.349037
6.01 -0.403502
6.02 -0.455007
6.03 -0.502624
6.04 -0.546017
6.05 -0.585368
6.06 -0.620463
6.07 -0.652335
6.08 -0.681256
6.09 -0.708247
6.1 -0.734012
6.11 -0.759288
6.12 -0.784665
6.13 -0.810622
6.14 -0.837272
6.15 -0.864629
6.16 -0.892397
6.17 -0.920133
6.18 -0.947133
6.19 -0.972824
6.2 -0.996272
6.21 -1.01694
6.22 -1.03426
6.23 -1.04763
6.24 -1.05729
6.25 -1.06268
6.26 -1.06468
6.27 -1.06344
6.28 -1.0597
6.29 -1.05419
6.3 -1.04743
6.31 -1.04007
6.32 -1.03229
6.33 -1.02399
6.34 -1.01466
6.35 -1.00304
6.36 -0.987896
6.37 -0.966185
6.38 -0.936087
6.39 -0.893832
6.4 -0.835844
6.41 -0.759683
6.42 -0.65899
6.43 -0.533876
6.44 -0.378145
6.45 -0.191868
6.46 0.0265513
6.47 0.279056
6.48 0.561132
6.49 0.875096
6.5 1.21297
6.51 1.5719
6.52 1.94486
6.53 2.32453
6.54 2.70245
6.55 3.07061
6.56 3.41836
6.57 3.73797
6.58 4.02112
6.59 4.2572
6.6 4.44514
6.61 4.57087
6.62 4.639
6.63 4.64277
6.64 4.58279
6.65 4.46397
6.66 4.28282
6.67 4.05251
6.68 3.77339
6.69 3.45719
6.7 3.11148
6.71 2.74484
6.72 2.3679
6.73 1.98928
6.74 1.61783
6.75 1.26178
6.76 0.928331
6.77 0.62134
6.78 0.349007
6.79 0.109361
6.8 -0.0918625
6.81 -0.257495
6.82 -0.388208
6.83 -0.484563
6.84 -0.55298
6.85 -0.592962
6.86 -0.612381
6.87 -0.61364
6.88 -0.601468
6.89 -0.580149
6.9 -0.552552
6.91 -0.522375
6.92 -0.491803
6.93 -0.462771
6.94 -0.43646
6.95 -0.413823
6.96 -0.394713
6.97 -0.379628
6.98 -0.367714
6.99 -0.358802
7 -0.352362
7.01 -0.347908
7.02 -0.345412
7.03 -0.344559
7.04 -0.345715
7.05 -0.349085
7.06 -0.35516
7.07 -0.364761
7.08 -0.378089
7.09 -0.396439
7.1 -0.419619
7.11 -0.448307
7.12 -0.482493
7.13 -0.521662
7.14 -0.565839
7.15 -0.613562
7.16 -0.664156
7.17 -0.71605
7.18 -0.767914
7.19 -0.818081
7.2 -0.86542
7.21 -0.907978
7.22 -0.945294
7.23 -0.976162
7.24 -1.00015
7.25 -1.01756
7.26 -1.02786
7.27 -1.03261
7.28 -1.03206
7.29 -1.02781
7.3 -1.02101
7.31 -1.01297
7.32 -1.00493
7.33 -0.998041
7.34 -0.992858
7.35 -0.989857
7.36 -0.98892
7.37 -0.989444
7.38 -0.990471
7.39 -0.990578
7.4 -0.987797
7.41 -0.980212
7.42 -0.965735
7.43 -0.941526
7.44 -0.906757
7.45 -0.857655
7.46 -0.79472
7.47 -0.715978
7.48 -0.621274
7.49 -0.511827
7.5 -0.386921
7.51 -0.250263
7.52 -0.102736
7.53 0.0518807
7.54 0.21059
7.55 0.369628
7.56 0.525588
7.57 0.673771
7.58 0.811639
7.59 0.935202
7.6 1.04152
7.61 1.12948
7.62 1.19476
7.63 1.23942
7.64 1.26039
7.65 1.25968
7.66 1.23791
7.67 1.19546
7.68 1.13626
7.69 1.06007
7.7 0.971643
7.71 0.872582
7.72 0.765948
7.73 0.654617
7.74 0.540947
7.75 0.42756
7.76 0.316788
7.77 0.210502
7.78 0.110343
7.79 0.0182968
7.8 -0.0654193
7.81 -0.138352
7.82 -0.201193
7.83 -0.252656
7.84 -0.292532
7.85 -0.321413
7.86 -0.338022
7.87 -0.344352
7.88 -0.339671
7.89 -0.325613
7.9 -0.303069
7.91 -0.27297
7.92 -0.237487
7.93 -0.197649
7.94 -0.155902
7.95 -0.114034
7.96 -0.074282
7.97 -0.0383815
7.98 -0.00908348
7.99 0.0128016
8 0.0247313
8.01 0.026169
8.02 0.0162888
8.03 -0.00595552
8.04 -0.0391052
8.05 -0.0842482
8.06 -0.138714
8.07 -0.201758
8.08 -0.271278
8.09 -0.34498
8.1 -0.420815
8.11 -0.496316
8.12 -0.569174
8.13 -0.637528
8.14 -0.699815
8.15 -0.75431
8.16 -0.801175
8.17 -0.838874
8.18 -0.868855
8.19 -0.891198
8.2 -0.907133
8.21 -0.91825
8.22 -0.925618
8.23 -0.931157
8.24 -0.936007
8.25 -0.941285
8.26 -0.94755
8.27 -0.954921
8.28 -0.962779
8.29 -0.969853
8.3 -0.974391
8.31 -0.973839
8.32 -0.965083
8.33 -0.94568
8.34 -0.910334
8.35 -0.858011
8.36 -0.783327
8.37 -0.685117
8.38 -0.561405
8.39 -0.409452
8.4 -0.232242
8.41 -0.0267875
8.42 0.201049
8.43 0.449755
8.44 0.714393
8.45 0.989186
8.46 1.26847
8.47 1.54527
8.48 1.81208
8.49 2.0623
8.5 2.28959
8.51 2.48568
8.52 2.64908
8.53 2.76959
8.54 2.8496
8.55 2.88424
8.56 2.87334
8.57 2.8204
8.58 2.72241
8.59 2.58876
8.6 2.41947
8.61 2.22255
8.62 2.00328
8.63 1.76723
8.64 1.52192
8.65 1.27269
8.66 1.02579
8.67 0.786402
8.68 0.559287
8.69 0.346981
8.7 0.154561
8.71 -0.0189793
8.72 -0.170309
8.73 -0.300904
8.74 -0.411264
8.75 -0.501579
8.76 -0.575619
8.77 -0.633055
8.78 -0.6783
8.79 -0.712678
8.8 -0.738714
8.81 -0.758813
8.82 -0.774325
8.83 -0.787382
8.84 -0.798978
8.85 -0.810213
8.86 -0.821697
8.87 -0.833888
8.88 -0.846867
8.89 -0.860771
8.9 -0.87537
8.91 -0.890544
8.92 -0.906078
8.93 -0.921782
8.94 -0.937514
8.95 -0.953186
8.96 -0.968754
8.97 -0.984245
8.98 -0.999708
8.99 -1.01522
9 -1.03083
9.01 -1.0466
9.02 -1.06248
9.03 -1.0784
9.04 -1.09415
9.05 -1.10952
9.06 -1.12403
9.07 -1.13739
9.08 -1.1489
9.09 -1.15809
9.1 -1.1644
9.11 -1.16694
9.12 -1.1656
9.13 -1.1591
9.14 -1.14763
9.15 -1.13042
9.16 -1.10718
9.17 -1.07813
9.18 -1.04244
9.19 -1.00112
9.2 -0.953735
9.21 -0.901124
9.22 -0.843785
9.23 -0.782205
9.24 -0.717605
9.25 -0.650562
9.26 -0.582448
9.27 -0.514285
9.28 -0.447375
9.29 -0.382743
9.3 -0.322094
9.31 -0.266005
9.32 -0.216183
9.33 -0.173224
9.34 -0.137918
9.35 -0.111446
9.36 -0.0932042
9.37 -0.0846967
9.38 -0.0845669
9.39 -0.0930559
9.4 -0.109413
9.41 -0.132335
9.42 -0.161429
9.43 -0.194609
9.44 -0.23093
9.45 -0.268632
9.46 -0.306347
9.47 -0.342507
9.48 -0.376133
9.49 -0.405627
9.5 -0.430698
9.51 -0.450513
9.52 -0.464858
9.53 -0.474159
9.54 -0.47819
9.55 -0.478317
9.56 -0.474979
9.57 -0.46953
9.58 -0.463056
9.59 -0.456835
9.6 -0.451893
9.61 -0.449598
9.62 -0.450486
9.63 -0.455408
9.64 -0.464775
9.65 -0.47842
9.66 -0.496769
9.67 -0.51881
9.68 -0.544408
9.69 -0.572559
9.7 -0.602499
9.71 -0.633387
9.72 -0.664366
9.73 -0.694615
9.74 -0.723597
9.75 -0.75075
9.76 -0.775703
9.77 -0.798395
9.78 -0.818361
9.79 -0.835875
9.8 -0.850481
9.81 -0.862097
9.82 -0.870292
9.83 -0.87403
9.84 -0.872844
9.85 -0.864345
9.86 -0.847621
9.87 -0.819956
9.88 -0.778652
9.89 -0.722097
9.9 -0.644907
9.91 -0.547202
9.92 -0.42367
9.93 -0.27362
9.94 -0.0953818
9.95 0.114003
9.96 0.351214
9.97 0.619749
9.98 0.913668
9.99 1.23176
10 1.56932
10.01 1.92033
10.02 2.27945
10.03 2.63888
10.04 2.9909
10.05 3.32781
10.06 3.64236
10.07 3.92472
10.08 4.1722
10.09 4.37254
10.1 4.52678
10.11 4.62825
10.12 4.67487
10.13 4.6697
10.14 4.60683
10.15 4.49673
10.16 4.33758
10.17 4.13804
10.18 3.90383
10.19 3.64037
10.2 3.35759
10.21 3.06067
10.22 2.7587
10.23 2.45793
10.24 2.16508
10.25 1.88443
10.26 1.62261
10.27 1.38007
10.28 1.1613
10.29 0.965767
10.3 0.793396
10.31 0.644611
10.32 0.515208
10.33 0.405717
10.34 0.310936
10.35 0.229104
10.36 0.157035
10.37 0.0916002
10.38 0.0308755
10.39 -0.0277922
10.4 -0.0858245
10.41 -0.144477
10.42 -0.204384
10.43 -0.265902
10.44 -0.328726
10.45 -0.392572
10.46 -0.456645
10.47 -0.520198
10.48 -0.58233
10.49 -0.642416
10.5 -0.69937
10.51 -0.75309
10.52 -0.802766
10.53 -0.848411
10.54 -0.889948
10.55 -0.927143
10.56 -0.96059
10.57 -0.989865
10.58 -1.01564
10.59 -1.03778
10.6 -1.05632
10.61 -1.07145
10.62 -1.08251
10.63 -1.08984
10.64 -1.09264
10.65 -1.09083
10.66 -1.08411
10.67 -1.07182
10.68 -1.05445
10.69 -1.03114
10.7 -1.00281
10.71 -0.969493
10.72 -0.931861
10.73 -0.890957
10.74 -0.847525
10.75 -0.803083
10.76 -0.758877
10.77 -0.71636
10.78 -0.676825
10.79 -0.641954
10.8 -0.612305
10.81 -0.589808
10.82 -0.574324
10.83 -0.566772
10.84 -0.567325
10.85 -0.575314
10.86 -0.591285
10.87 -0.613462
10.88 -0.641676
10.89 -0.674415
10.9 -0.710576
10.91 -0.74902
10.92 -0.788391
10.93 -0.827581
10.94 -0.8656
10.95 -0.90155
10.96 -0.934709
10.97 -0.964844
10.98 -0.991222
10.99 -1.01429
11 -1.03375
11.01 -1.05005
11.02 -1.06354
11.03 -1.07447
11.04 -1.08355
11.05 -1.091
11.06 -1.09747
11.07 -1.10328
11.08 -1.10881
11.09 -1.1143
11.1 -1.11997
11.11 -1.1259
11.12 -1.1321
11.13 -1.13847
11.14 -1.14481
11.15 -1.15079
11.16 -1.15605
11.17 -1.15987
11.18 -1.16173
11.19 -1.1607
11.2 -1.15571
11.21 -1.146
11.22 -1.12946
11.23 -1.10569
11.24 -1.07229
11.25 -1.02825
11.26 -0.97217
11.27 -0.901583
11.28 -0.816929
11.29 -0.71478
11.3 -0.59652
11.31 -0.460735
11.32 -0.30756
11.33 -0.138793
11.34 0.0463035
11.35 0.24361
11.36 0.452036
11.37 0.66761
11.38 0.886927
11.39 1.10567
11.4 1.3199
11.41 1.52383
11.42 1.71409
11.43 1.88549
11.44 2.03355
11.45 2.15659
11.46 2.24762
11.47 2.30902
11.48 2.33577
11.49 2.32959
11.5 2.29109
11.51 2.21964
11.52 2.1211
11.53 1.99463
11.54 1.8474
11.55 1.68212
11.56 1.50374
11.57 1.31736
11.58 1.12712
11.59 0.93777
11.6 0.753442
11.61 0.57742
11.62 0.412245
11.63 0.260988
11.64 0.123278
11.65 0.00190011
11.66 -0.105247
11.67 -0.197934
11.68 -0.277479
11.69 -0.346251
11.7 -0.404865
11.71 -0.456653
11.72 -0.502782
11.73 -0.545501
11.74 -0.586266
11.75 -0.626296
11.76 -0.666415
11.77 -0.707054
11.78 -0.74808
11.79 -0.789054
11.8 -0.829051
11.81 -0.867103
11.82 -0.901347
11.83 -0.930856
11.84 -0.953448
11.85 -0.967931
11.86 -0.97303
11.87 -0.966711
11.88 -0.949378
11.89 -0.918548
11.9 -0.875494
11.91 -0.819412
11.92 -0.750616
11.93 -0.670574
11.94 -0.578757
11.95 -0.477996
11.96 -0.368688
11.97 -0.253091
11.98 -0.132911
11.99 -0.00998141
12 0.113562
12.01 0.235566
12.02 0.35417
12.03 0.46724
12.04 0.572673
12.05 0.669388
12.06 0.754235
12.07 0.827487
12.08 0.886476
12.09 0.931042
12.1 0.960628
12.11 0.973761
12.12 0.972291
12.13 0.954292
12.14 0.92245
12.15 0.876875
12.16 0.819
12.17 0.751169
12.18 0.674098
12.19 0.591057
12.2 0.503503
12.21 0.413977
12.22 0.324425
12.23 0.237022
12.24 0.153085
12.25 0.0747175
12.26 0.00231824
12.27 -0.0630894
12.28 -0.121182
12.29 -0.172586
12.3 -0.216892
12.31 -0.255878
12.32 -0.289974
12.33 -0.320752
12.34 -0.349424
12.35 -0.377246
12.36 -0.405348
12.37 -0.434778
12.38 -0.465995
12.39 -0.499357
