# xPDFsuite Configuration #
[PDF]
wavelength = 0.1432
dataformat = twotheta
inputfile = 1_1Pd_CeO2_cycle-00396.chi
backgroundfile = background-00000.chi
mode = xray
bgscale = 1.007
composition = CeO2
outputtype = gr
qmaxinst = 28.8974762299
qmin = 0.5
qmax = 27.9
rmax = 50.0
rmin = 0.0
rstep = 0.01
rpoly = 1.8657

[Misc]
inputdir = G:/SankarDec16/1Pd/Chi
savedir = D:/DATA/APS_CeO2/1Pd
backgroundfilefull = G:/SankarDec16/Background/background-00000.chi

#### start data
#S 1
#L r($\AA$)  G($\AA^{-2}$)
0 0
0.01 -0.00486026
0.02 -0.00935449
0.03 -0.0131058
0.04 -0.0158302
0.05 -0.0173699
0.06 -0.0174707
0.07 -0.0163018
0.08 -0.0137814
0.09 -0.0102323
0.1 -0.00587767
0.11 -0.00105932
0.12 0.00384988
0.13 0.00843177
0.14 0.0123899
0.15 0.0153613
0.16 0.0171336
0.17 0.0176216
0.18 0.0166523
0.19 0.014474
0.2 0.0110964
0.21 0.00689558
0.22 0.00214952
0.23 -0.00275816
0.24 -0.00747651
0.25 -0.0115552
0.26 -0.0147812
0.27 -0.0168235
0.28 -0.0175507
0.29 -0.0169552
0.3 -0.0149529
0.31 -0.0118603
0.32 -0.00777772
0.33 -0.00311739
0.34 0.00180154
0.35 0.00657144
0.36 0.0108802
0.37 0.0142665
0.38 0.0166113
0.39 0.017631
0.4 0.0172821
0.41 0.0156348
0.42 0.0126987
0.43 0.00884288
0.44 0.00425435
0.45 -0.000638283
0.46 -0.00548977
0.47 -0.00988762
0.48 -0.0135736
0.49 -0.0160977
0.5 -0.0174405
0.51 -0.0173797
0.52 -0.0159619
0.53 -0.0133323
0.54 -0.00959381
0.55 -0.00515119
0.56 -0.000269031
0.57 0.00462763
0.58 0.00918406
0.59 0.0130024
0.6 0.0158909
0.61 0.0174325
0.62 0.0177086
0.63 0.0165691
0.64 0.0141492
0.65 0.0106622
0.66 0.00630012
0.67 0.00148425
0.68 -0.0034554
0.69 -0.00811733
0.7 -0.0121542
0.71 -0.0152012
0.72 -0.0171426
0.73 -0.0176133
0.74 -0.0167918
0.75 -0.014607
0.76 -0.0112756
0.77 -0.00706857
0.78 -0.00225706
0.79 0.00274146
0.8 0.00754888
0.81 0.0118062
0.82 0.0151908
0.83 0.0173886
0.84 0.0183643
0.85 0.0178224
0.86 0.0160272
0.87 0.0129874
0.88 0.00898673
0.89 0.00433609
0.9 -0.000635321
0.91 -0.00553918
0.92 -0.00998016
0.93 -0.0136661
0.94 -0.0163266
0.95 -0.0177275
0.96 -0.0179196
0.97 -0.0167158
0.98 -0.0144489
0.99 -0.0112234
1 -0.00737876
1.01 -0.00324741
1.02 0.0007915
1.03 0.00442011
1.04 0.00724764
1.05 0.00909259
1.06 0.00977431
1.07 0.00918751
1.08 0.00750307
1.09 0.00471389
1.1 0.00124269
1.11 -0.0026435
1.12 -0.00650685
1.13 -0.00996259
1.14 -0.0124963
1.15 -0.0138751
1.16 -0.0136176
1.17 -0.0116659
1.18 -0.00789187
1.19 -0.00228362
1.2 0.0048161
1.21 0.0133121
1.22 0.0225792
1.23 0.0321934
1.24 0.0415363
1.25 0.0500803
1.26 0.057088
1.27 0.0622662
1.28 0.0648975
1.29 0.0648846
1.3 0.0619779
1.31 0.0560349
1.32 0.0474625
1.33 0.0361084
1.34 0.0227844
1.35 0.00779689
1.36 -0.00816647
1.37 -0.0244796
1.38 -0.0404304
1.39 -0.0554666
1.4 -0.0688389
1.41 -0.0801788
1.42 -0.0890496
1.43 -0.0950469
1.44 -0.0983147
1.45 -0.0983382
1.46 -0.0956868
1.47 -0.0902821
1.48 -0.0825057
1.49 -0.0727675
1.5 -0.0613047
1.51 -0.0487293
1.52 -0.0353335
1.53 -0.0216115
1.54 -0.00791211
1.55 0.00538336
1.56 0.0180458
1.57 0.0296672
1.58 0.0401892
1.59 0.0493268
1.6 0.0569635
1.61 0.0630505
1.62 0.067314
1.63 0.0699194
1.64 0.0705818
1.65 0.0694468
1.66 0.0664623
1.67 0.0615925
1.68 0.0550859
1.69 0.046786
1.7 0.0371174
1.71 0.0261518
1.72 0.0142069
1.73 0.00160065
1.74 -0.0113491
1.75 -0.0242553
1.76 -0.036717
1.77 -0.0484032
1.78 -0.0589842
1.79 -0.0681148
1.8 -0.0757582
1.81 -0.0815217
1.82 -0.0856655
1.83 -0.0881109
1.84 -0.0890999
1.85 -0.0889361
1.86 -0.087883
1.87 -0.0864224
1.88 -0.0849376
1.89 -0.0838506
1.9 -0.0835196
1.91 -0.0843067
1.92 -0.0862861
1.93 -0.0897731
1.94 -0.0945107
1.95 -0.100459
1.96 -0.107271
1.97 -0.114545
1.98 -0.121769
1.99 -0.12843
2 -0.133828
2.01 -0.137482
2.02 -0.138841
2.03 -0.137306
2.04 -0.132845
2.05 -0.124675
2.06 -0.113235
2.07 -0.0982255
2.08 -0.079897
2.09 -0.0586065
2.1 -0.0343944
2.11 -0.00797992
2.12 0.0205407
2.13 0.0506112
2.14 0.0819818
2.15 0.114439
2.16 0.147736
2.17 0.181941
2.18 0.216932
2.19 0.252856
2.2 0.289794
2.21 0.327789
2.22 0.367003
2.23 0.407231
2.24 0.448417
2.25 0.490112
2.26 0.531821
2.27 0.572727
2.28 0.612083
2.29 0.648365
2.3 0.680812
2.31 0.707777
2.32 0.728007
2.33 0.740657
2.34 0.743665
2.35 0.737472
2.36 0.72023
2.37 0.692715
2.38 0.654857
2.39 0.60693
2.4 0.550864
2.41 0.486862
2.42 0.417797
2.43 0.345118
2.44 0.271209
2.45 0.198104
2.46 0.12829
2.47 0.06315
2.48 0.00505842
2.49 -0.0453002
2.5 -0.0869579
2.51 -0.119188
2.52 -0.143073
2.53 -0.157887
2.54 -0.165999
2.55 -0.168137
2.56 -0.166237
2.57 -0.162101
2.58 -0.157544
2.59 -0.154221
2.6 -0.153872
2.61 -0.157444
2.62 -0.165766
2.63 -0.179412
2.64 -0.197755
2.65 -0.220991
2.66 -0.247494
2.67 -0.276369
2.68 -0.306015
2.69 -0.335006
2.7 -0.361565
2.71 -0.384735
2.72 -0.402896
2.73 -0.415712
2.74 -0.422729
2.75 -0.423817
2.76 -0.420048
2.77 -0.411653
2.78 -0.400565
2.79 -0.38801
2.8 -0.375792
2.81 -0.365395
2.82 -0.358757
2.83 -0.356589
2.84 -0.360481
2.85 -0.370414
2.86 -0.38655
2.87 -0.408618
2.88 -0.435177
2.89 -0.465457
2.9 -0.497269
2.91 -0.528928
2.92 -0.558363
2.93 -0.583983
2.94 -0.603503
2.95 -0.616507
2.96 -0.621231
2.97 -0.618078
2.98 -0.607104
2.99 -0.588883
3 -0.565328
3.01 -0.537512
3.02 -0.508081
3.03 -0.479049
3.04 -0.452792
3.05 -0.431068
3.06 -0.416389
3.07 -0.409074
3.08 -0.410941
3.09 -0.421365
3.1 -0.440107
3.11 -0.466343
3.12 -0.497897
3.13 -0.533401
3.14 -0.570047
3.15 -0.605635
3.16 -0.637748
3.17 -0.664703
3.18 -0.684108
3.19 -0.695974
3.2 -0.698874
3.21 -0.693907
3.22 -0.681838
3.23 -0.664173
3.24 -0.6434
3.25 -0.621856
3.26 -0.602311
3.27 -0.587557
3.28 -0.580082
3.29 -0.581372
3.3 -0.593981
3.31 -0.617019
3.32 -0.651682
3.33 -0.695875
3.34 -0.748052
3.35 -0.805705
3.36 -0.865494
3.37 -0.923856
3.38 -0.977509
3.39 -1.02274
3.4 -1.0566
3.41 -1.07755
3.42 -1.08255
3.43 -1.07332
3.44 -1.04869
3.45 -1.01181
3.46 -0.965013
3.47 -0.911827
3.48 -0.85661
3.49 -0.804042
3.5 -0.75802
3.51 -0.722949
3.52 -0.701901
3.53 -0.696052
3.54 -0.707806
3.55 -0.733917
3.56 -0.773486
3.57 -0.820819
3.58 -0.870487
3.59 -0.914491
3.6 -0.94598
3.61 -0.952657
3.62 -0.929157
3.63 -0.864287
3.64 -0.750782
3.65 -0.585243
3.66 -0.356908
3.67 -0.0722154
3.68 0.275681
3.69 0.677796
3.7 1.12938
3.71 1.62271
3.72 2.1434
3.73 2.68103
3.74 3.21861
3.75 3.74096
3.76 4.23151
3.77 4.67789
3.78 5.05904
3.79 5.37199
3.8 5.59716
3.81 5.73464
3.82 5.77887
3.83 5.7249
3.84 5.58505
3.85 5.35104
3.86 5.04465
3.87 4.66977
3.88 4.24156
3.89 3.77514
3.9 3.28273
3.91 2.78148
3.92 2.28486
3.93 1.80574
3.94 1.35491
3.95 0.943773
3.96 0.574387
3.97 0.258946
3.98 -0.00822209
3.99 -0.222955
4 -0.388856
4.01 -0.511849
4.02 -0.593089
4.03 -0.644005
4.04 -0.667675
4.05 -0.673516
4.06 -0.667348
4.07 -0.655234
4.08 -0.642317
4.09 -0.632966
4.1 -0.629401
4.11 -0.633644
4.12 -0.645972
4.13 -0.665459
4.14 -0.691297
4.15 -0.720698
4.16 -0.751548
4.17 -0.781012
4.18 -0.806653
4.19 -0.825733
4.2 -0.83721
4.21 -0.838196
4.22 -0.829355
4.23 -0.809552
4.24 -0.779318
4.25 -0.739826
4.26 -0.691258
4.27 -0.636089
4.28 -0.574987
4.29 -0.509979
4.3 -0.442281
4.31 -0.373095
4.32 -0.303431
4.33 -0.233987
4.34 -0.16515
4.35 -0.0971596
4.36 -0.0300257
4.37 0.0363591
4.38 0.102008
4.39 0.167039
4.4 0.231245
4.41 0.294363
4.42 0.35585
4.43 0.414732
4.44 0.470341
4.45 0.5207
4.46 0.565168
4.47 0.601795
4.48 0.629207
4.49 0.64667
4.5 0.651796
4.51 0.645492
4.52 0.625826
4.53 0.593944
4.54 0.550076
4.55 0.494695
4.56 0.430189
4.57 0.356916
4.58 0.278039
4.59 0.195115
4.6 0.110566
4.61 0.0264035
4.62 -0.05507
4.63 -0.132571
4.64 -0.204081
4.65 -0.269004
4.66 -0.32661
4.67 -0.376274
4.68 -0.418933
4.69 -0.453924
4.7 -0.483056
4.71 -0.50672
4.72 -0.526155
4.73 -0.542554
4.74 -0.556748
4.75 -0.569908
4.76 -0.582699
4.77 -0.595735
4.78 -0.609346
4.79 -0.623705
4.8 -0.638675
4.81 -0.654094
4.82 -0.669548
4.83 -0.684624
4.84 -0.698855
4.85 -0.711909
4.86 -0.723265
4.87 -0.732934
4.88 -0.740591
4.89 -0.746442
4.9 -0.750616
4.91 -0.753348
4.92 -0.75512
4.93 -0.756248
4.94 -0.757254
4.95 -0.758528
4.96 -0.760451
4.97 -0.763242
4.98 -0.767211
4.99 -0.772272
5 -0.778544
5.01 -0.785812
5.02 -0.793925
5.03 -0.80268
5.04 -0.811801
5.05 -0.821099
5.06 -0.830362
5.07 -0.839449
5.08 -0.848256
5.09 -0.856746
5.1 -0.864834
5.11 -0.872523
5.12 -0.879654
5.13 -0.88607
5.14 -0.891457
5.15 -0.895216
5.16 -0.896902
5.17 -0.895145
5.18 -0.889325
5.19 -0.877826
5.2 -0.859211
5.21 -0.832471
5.22 -0.794923
5.23 -0.746681
5.24 -0.685083
5.25 -0.610294
5.26 -0.52167
5.27 -0.418591
5.28 -0.30313
5.29 -0.174619
5.3 -0.0367529
5.31 0.108833
5.32 0.258685
5.33 0.409376
5.34 0.556567
5.35 0.696854
5.36 0.825012
5.37 0.937888
5.38 1.03184
5.39 1.10245
5.4 1.14995
5.41 1.16856
5.42 1.1615
5.43 1.12668
5.44 1.06575
5.45 0.981807
5.46 0.875244
5.47 0.752336
5.48 0.615078
5.49 0.469097
5.5 0.318433
5.51 0.167751
5.52 0.020789
5.53 -0.117606
5.54 -0.245485
5.55 -0.359541
5.56 -0.458143
5.57 -0.541211
5.58 -0.606623
5.59 -0.657194
5.6 -0.692102
5.61 -0.714211
5.62 -0.7251
5.63 -0.726507
5.64 -0.721315
5.65 -0.710653
5.66 -0.696991
5.67 -0.68142
5.68 -0.665041
5.69 -0.64841
5.7 -0.631657
5.71 -0.614567
5.72 -0.596511
5.73 -0.57676
5.74 -0.55446
5.75 -0.528503
5.76 -0.498589
5.77 -0.463447
5.78 -0.42357
5.79 -0.378696
5.8 -0.329487
5.81 -0.277014
5.82 -0.222367
5.83 -0.167361
5.84 -0.113865
5.85 -0.0637879
5.86 -0.0190098
5.87 0.0181513
5.88 0.047044
5.89 0.0648269
5.9 0.0721498
5.91 0.067718
5.92 0.051786
5.93 0.0254431
5.94 -0.0114649
5.95 -0.056235
5.96 -0.108171
5.97 -0.164791
5.98 -0.224355
5.99 -0.284907
6 -0.344761
6.01 -0.402087
6.02 -0.456033
6.03 -0.505499
6.04 -0.550056
6.05 -0.589886
6.06 -0.624709
6.07 -0.655725
6.08 -0.683244
6.09 -0.708485
6.1 -0.732305
6.11 -0.755632
6.12 -0.779211
6.13 -0.803726
6.14 -0.829366
6.15 -0.85627
6.16 -0.88418
6.17 -0.912625
6.18 -0.940921
6.19 -0.968337
6.2 -0.993876
6.21 -1.01683
6.22 -1.03651
6.23 -1.05213
6.24 -1.06384
6.25 -1.07094
6.26 -1.07424
6.27 -1.07388
6.28 -1.07057
6.29 -1.06511
6.3 -1.05808
6.31 -1.05026
6.32 -1.04193
6.33 -1.03315
6.34 -1.02351
6.35 -1.01188
6.36 -0.997076
6.37 -0.976146
6.38 -0.947208
6.39 -0.906472
6.4 -0.850249
6.41 -0.775955
6.42 -0.677038
6.43 -0.553429
6.44 -0.398669
6.45 -0.212646
6.46 0.0064279
6.47 0.260728
6.48 0.545726
6.49 0.863993
6.5 1.20736
6.51 1.57298
6.52 1.95368
6.53 2.34187
6.54 2.72888
6.55 3.1063
6.56 3.46315
6.57 3.79132
6.58 4.08215
6.59 4.32457
6.6 4.51739
6.61 4.64599
6.62 4.71509
6.63 4.71765
6.64 4.6543
6.65 4.53012
6.66 4.34155
6.67 4.10224
6.68 3.81267
6.69 3.48503
6.7 3.12724
6.71 2.74832
6.72 2.35928
6.73 1.96922
6.74 1.58726
6.75 1.222
6.76 0.880909
6.77 0.567916
6.78 0.291551
6.79 0.0496118
6.8 -0.151988
6.81 -0.316337
6.82 -0.444247
6.83 -0.536442
6.84 -0.599713
6.85 -0.633712
6.86 -0.646706
6.87 -0.641331
6.88 -0.6226
6.89 -0.595001
6.9 -0.561659
6.91 -0.52634
6.92 -0.491413
6.93 -0.458808
6.94 -0.429721
6.95 -0.405106
6.96 -0.384668
6.97 -0.368897
6.98 -0.356735
6.99 -0.347922
7 -0.341785
7.01 -0.337716
7.02 -0.335581
7.03 -0.334991
7.04 -0.336247
7.05 -0.339544
7.06 -0.345381
7.07 -0.354615
7.08 -0.36752
7.09 -0.385476
7.1 -0.408386
7.11 -0.437038
7.12 -0.471524
7.13 -0.511388
7.14 -0.556776
7.15 -0.606189
7.16 -0.659016
7.17 -0.713607
7.18 -0.768565
7.19 -0.822123
7.2 -0.872989
7.21 -0.919041
7.22 -0.95964
7.23 -0.993376
7.24 -1.01962
7.25 -1.03857
7.26 -1.04943
7.27 -1.05383
7.28 -1.05184
7.29 -1.04516
7.3 -1.035
7.31 -1.02279
7.32 -1.01002
7.33 -0.99802
7.34 -0.987687
7.35 -0.979782
7.36 -0.974516
7.37 -0.971519
7.38 -0.970232
7.39 -0.96927
7.4 -0.966968
7.41 -0.961357
7.42 -0.950336
7.43 -0.931011
7.44 -0.902204
7.45 -0.859983
7.46 -0.80435
7.47 -0.732953
7.48 -0.645138
7.49 -0.54173
7.5 -0.421398
7.51 -0.287673
7.52 -0.1409
7.53 0.0152104
7.54 0.177773
7.55 0.343127
7.56 0.507452
7.57 0.666055
7.58 0.815709
7.59 0.952024
7.6 1.0714
7.61 1.17213
7.62 1.24908
7.63 1.30387
7.64 1.33263
7.65 1.33704
7.66 1.31736
7.67 1.27358
7.68 1.20996
7.69 1.12589
7.7 1.02687
7.71 0.914752
7.72 0.793245
7.73 0.665953
7.74 0.535959
7.75 0.406675
7.76 0.281276
7.77 0.162267
7.78 0.0518645
7.79 -0.04729
7.8 -0.135044
7.81 -0.208302
7.82 -0.268311
7.83 -0.313774
7.84 -0.344956
7.85 -0.363102
7.86 -0.367417
7.87 -0.360794
7.88 -0.343185
7.89 -0.316975
7.9 -0.283673
7.91 -0.244904
7.92 -0.202988
7.93 -0.159605
7.94 -0.116901
7.95 -0.076769
7.96 -0.0411384
7.97 -0.0112371
7.98 0.0105385
7.99 0.0241604
8 0.0276563
8.01 0.021167
8.02 0.00441948
8.03 -0.0230118
8.04 -0.0595062
8.05 -0.105589
8.06 -0.158837
8.07 -0.218432
8.08 -0.282573
8.09 -0.349438
8.1 -0.417376
8.11 -0.484628
8.12 -0.549498
8.13 -0.610762
8.14 -0.667407
8.15 -0.718348
8.16 -0.763858
8.17 -0.803018
8.18 -0.836966
8.19 -0.86587
8.2 -0.890635
8.21 -0.912337
8.22 -0.931643
8.23 -0.949681
8.24 -0.966943
8.25 -0.983826
8.26 -1.00026
8.27 -1.01563
8.28 -1.02912
8.29 -1.03868
8.3 -1.04281
8.31 -1.03873
8.32 -1.02352
8.33 -0.995197
8.34 -0.948662
8.35 -0.883719
8.36 -0.795448
8.37 -0.683436
8.38 -0.546304
8.39 -0.382001
8.4 -0.193855
8.41 0.0204409
8.42 0.25503
8.43 0.50812
8.44 0.774809
8.45 1.04959
8.46 1.32684
8.47 1.60019
8.48 1.86239
8.49 2.1074
8.5 2.32927
8.51 2.52017
8.52 2.67892
8.53 2.79565
8.54 2.87281
8.55 2.90562
8.56 2.89383
8.57 2.84074
8.58 2.74314
8.59 2.61004
8.6 2.44117
8.61 2.24417
8.62 2.02403
8.63 1.78598
8.64 1.53751
8.65 1.28367
8.66 1.03092
8.67 0.78447
8.68 0.549344
8.69 0.328422
8.7 0.127146
8.71 -0.0550445
8.72 -0.214327
8.73 -0.351769
8.74 -0.467498
8.75 -0.561251
8.76 -0.636791
8.77 -0.693333
8.78 -0.735587
8.79 -0.764824
8.8 -0.783823
8.81 -0.795394
8.82 -0.801148
8.83 -0.80383
8.84 -0.804865
8.85 -0.805888
8.86 -0.807951
8.87 -0.812038
8.88 -0.818408
8.89 -0.827735
8.9 -0.839691
8.91 -0.854353
8.92 -0.871438
8.93 -0.890498
8.94 -0.911363
8.95 -0.933409
8.96 -0.956382
8.97 -0.979834
8.98 -1.00345
8.99 -1.02689
9 -1.04991
9.01 -1.07215
9.02 -1.09342
9.03 -1.11339
9.04 -1.13175
9.05 -1.14831
9.06 -1.16244
9.07 -1.1741
9.08 -1.18257
9.09 -1.18763
9.1 -1.18887
9.11 -1.18559
9.12 -1.17793
9.13 -1.1648
9.14 -1.14661
9.15 -1.1228
9.16 -1.09327
9.17 -1.05839
9.18 -1.01758
9.19 -0.971895
9.2 -0.921103
9.21 -0.866094
9.22 -0.80744
9.23 -0.745751
9.24 -0.682133
9.25 -0.617317
9.26 -0.552458
9.27 -0.488557
9.28 -0.426755
9.29 -0.367861
9.3 -0.313408
9.31 -0.263669
9.32 -0.220086
9.33 -0.182964
9.34 -0.152827
9.35 -0.130521
9.36 -0.115344
9.37 -0.10842
9.38 -0.108468
9.39 -0.115587
9.4 -0.12908
9.41 -0.147852
9.42 -0.171573
9.43 -0.198599
9.44 -0.22824
9.45 -0.259179
9.46 -0.290429
9.47 -0.320893
9.48 -0.349851
9.49 -0.376232
9.5 -0.39979
9.51 -0.419957
9.52 -0.436551
9.53 -0.449813
9.54 -0.459527
9.55 -0.466539
9.56 -0.471032
9.57 -0.473815
9.58 -0.475506
9.59 -0.476807
9.6 -0.478365
9.61 -0.480904
9.62 -0.48482
9.63 -0.490609
9.64 -0.498577
9.65 -0.508733
9.66 -0.521426
9.67 -0.536245
9.68 -0.55331
9.69 -0.572257
9.7 -0.592873
9.71 -0.614995
9.72 -0.63825
9.73 -0.662597
9.74 -0.68772
9.75 -0.713526
9.76 -0.739836
9.77 -0.766437
9.78 -0.793052
9.79 -0.819286
9.8 -0.844481
9.81 -0.867835
9.82 -0.888316
9.83 -0.904144
9.84 -0.914238
9.85 -0.915342
9.86 -0.906179
9.87 -0.883438
9.88 -0.844082
9.89 -0.786544
9.9 -0.705052
9.91 -0.600354
9.92 -0.46714
9.93 -0.305379
9.94 -0.113919
9.95 0.109605
9.96 0.361185
9.97 0.643664
9.98 0.950584
9.99 1.2802
10 1.62743
10.01 1.98614
10.02 2.35063
10.03 2.71344
10.04 3.06676
10.05 3.40329
10.06 3.71608
10.07 3.9956
10.08 4.23963
10.09 4.43616
10.1 4.58656
10.11 4.68435
10.12 4.72752
10.13 4.71915
10.14 4.65324
10.15 4.54005
10.16 4.3775
10.17 4.17398
10.18 3.93493
10.19 3.66545
10.2 3.37541
10.21 3.06971
10.22 2.75764
10.23 2.44551
10.24 2.14036
10.25 1.84691
10.26 1.5723
10.27 1.31757
10.28 1.08795
10.29 0.883484
10.3 0.704668
10.31 0.552659
10.32 0.423238
10.33 0.317681
10.34 0.230305
10.35 0.159407
10.36 0.101354
10.37 0.0522807
10.38 0.00971209
10.39 -0.0301098
10.4 -0.0695201
10.41 -0.110805
10.42 -0.155491
10.43 -0.205046
10.44 -0.259454
10.45 -0.319572
10.46 -0.384306
10.47 -0.453237
10.48 -0.525202
10.49 -0.598846
10.5 -0.672783
10.51 -0.745571
10.52 -0.815593
10.53 -0.881615
10.54 -0.942518
10.55 -0.996811
10.56 -1.04448
10.57 -1.08379
10.58 -1.11539
10.59 -1.13857
10.6 -1.15335
10.61 -1.16045
10.62 -1.15918
10.63 -1.15115
10.64 -1.13608
10.65 -1.11511
10.66 -1.08888
10.67 -1.05788
10.68 -1.02336
10.69 -0.985645
10.7 -0.94595
10.71 -0.90493
10.72 -0.863478
10.73 -0.822352
10.74 -0.782506
10.75 -0.74449
10.76 -0.709271
10.77 -0.677372
10.78 -0.649354
10.79 -0.626066
10.8 -0.607381
10.81 -0.594406
10.82 -0.586664
10.83 -0.58462
10.84 -0.588264
10.85 -0.597102
10.86 -0.611583
10.87 -0.630582
10.88 -0.654195
10.89 -0.68156
10.9 -0.712107
10.91 -0.745303
10.92 -0.780211
10.93 -0.816301
10.94 -0.852699
10.95 -0.888749
10.96 -0.92372
10.97 -0.957129
10.98 -0.988128
10.99 -1.01661
11 -1.04188
11.01 -1.06388
11.02 -1.08247
11.03 -1.09739
11.04 -1.10914
11.05 -1.11746
11.06 -1.12309
11.07 -1.12627
11.08 -1.12754
11.09 -1.12754
11.1 -1.12675
11.11 -1.12585
11.12 -1.12534
11.13 -1.12565
11.14 -1.12703
11.15 -1.12968
11.16 -1.13334
11.17 -1.13775
11.18 -1.14214
11.19 -1.14559
11.2 -1.14673
11.21 -1.14433
11.22 -1.13589
11.23 -1.12034
11.24 -1.0947
11.25 -1.05737
11.26 -1.00645
11.27 -0.938885
11.28 -0.855049
11.29 -0.750964
11.3 -0.628325
11.31 -0.485681
11.32 -0.32347
11.33 -0.144008
11.34 0.0530826
11.35 0.262931
11.36 0.483871
11.37 0.711274
11.38 0.941197
11.39 1.16866
11.4 1.38957
11.41 1.5975
11.42 1.78926
11.43 1.95952
11.44 2.10391
11.45 2.22117
11.46 2.30441
11.47 2.35672
11.48 2.37339
11.49 2.35673
11.5 2.30776
11.51 2.22635
11.52 2.11861
11.53 1.98413
11.54 1.83012
11.55 1.65947
11.56 1.47708
11.57 1.28791
11.58 1.09612
11.59 0.906077
11.6 0.721823
11.61 0.546368
11.62 0.382068
11.63 0.231834
11.64 0.0951685
11.65 -0.0252227
11.66 -0.131456
11.67 -0.223287
11.68 -0.301975
11.69 -0.369819
11.7 -0.427324
11.71 -0.477774
11.72 -0.522247
11.73 -0.562985
11.74 -0.601455
11.75 -0.63892
11.76 -0.676323
11.77 -0.714217
11.78 -0.752638
11.79 -0.791319
11.8 -0.82952
11.81 -0.866372
11.82 -0.900225
11.83 -0.930099
11.84 -0.953903
11.85 -0.970325
11.86 -0.977964
11.87 -0.974612
11.88 -0.960404
11.89 -0.93257
11.9 -0.892105
11.91 -0.837899
11.92 -0.769979
11.93 -0.689695
11.94 -0.596191
11.95 -0.492446
11.96 -0.378733
11.97 -0.257531
11.98 -0.130754
11.99 -0.000496216
12 0.130694
12.01 0.260274
12.02 0.385972
12.03 0.505241
12.04 0.615579
12.05 0.71573
12.06 0.802092
12.07 0.875106
12.08 0.931895
12.09 0.972536
12.1 0.996687
12.11 1.00311
12.12 0.994145
12.13 0.968216
12.14 0.928501
12.15 0.875523
12.16 0.811136
12.17 0.737905
12.18 0.656963
12.19 0.57148
12.2 0.483096
12.21 0.39415
12.22 0.306392
12.23 0.221763
12.24 0.14115
12.25 0.0663178
12.26 -0.00275288
12.27 -0.0654039
12.28 -0.121657
12.29 -0.172288
12.3 -0.217209
12.31 -0.258037
12.32 -0.295275
12.33 -0.330232
12.34 -0.363862
12.35 -0.397093
12.36 -0.430644
12.37 -0.465119
12.38 -0.500618
