# xPDFsuite Configuration #
[PDF]
wavelength = 0.1432
dataformat = twotheta
inputfile = 1_1Pd_CeO2_cycle-00210.chi
backgroundfile = background-00000.chi
mode = xray
bgscale = 1.007
composition = CeO2
outputtype = gr
qmaxinst = 28.8974762299
qmin = 0.5
qmax = 27.9
rmax = 50.0
rmin = 0.0
rstep = 0.01
rpoly = 1.8657

[Misc]
inputdir = G:/SankarDec16/1Pd/Chi
savedir = D:/DATA/APS_CeO2/1Pd
backgroundfilefull = G:/SankarDec16/Background/background-00000.chi

#### start data
#S 1
#L r($\AA$)  G($\AA^{-2}$)
0 0
0.01 -0.00605009
0.02 -0.0116445
0.03 -0.0163139
0.04 -0.0197048
0.05 -0.0216207
0.06 -0.0217451
0.07 -0.0202887
0.08 -0.0171496
0.09 -0.0127296
0.1 -0.00730674
0.11 -0.00130655
0.12 0.00480666
0.13 0.0105122
0.14 0.0154407
0.15 0.0191404
0.16 0.0213465
0.17 0.021953
0.18 0.020744
0.19 0.0180291
0.2 0.01382
0.21 0.0085853
0.22 0.002671
0.23 -0.00344497
0.24 -0.00932534
0.25 -0.014409
0.26 -0.0184305
0.27 -0.0209769
0.28 -0.0218847
0.29 -0.0211439
0.3 -0.0186495
0.31 -0.0147956
0.32 -0.00970717
0.33 -0.00389769
0.34 0.00223511
0.35 0.00818314
0.36 0.0135571
0.37 0.017782
0.38 0.0207088
0.39 0.0219837
0.4 0.021552
0.41 0.0195009
0.42 0.0158415
0.43 0.0110342
0.44 0.00531158
0.45 -0.000791875
0.46 -0.00684564
0.47 -0.0123351
0.48 -0.0169379
0.49 -0.0200923
0.5 -0.0217734
0.51 -0.0217033
0.52 -0.0199397
0.53 -0.0166629
0.54 -0.0120007
0.55 -0.00645802
0.56 -0.000364527
0.57 0.00574924
0.58 0.0114405
0.59 0.0162125
0.6 0.0198251
0.61 0.0217574
0.62 0.0221099
0.63 0.0206945
0.64 0.0176792
0.65 0.0133296
0.66 0.00788472
0.67 0.00187034
0.68 -0.00430212
0.69 -0.010131
0.7 -0.0151827
0.71 -0.0190012
0.72 -0.0214414
0.73 -0.0220473
0.74 -0.0210409
0.75 -0.018333
0.76 -0.0141939
0.77 -0.00896161
0.78 -0.00297449
0.79 0.0032463
0.8 0.00922884
0.81 0.0145252
0.82 0.0187331
0.83 0.0214617
0.84 0.0226681
0.85 0.0219866
0.86 0.0197492
0.87 0.0159715
0.88 0.0110124
0.89 0.00526394
0.9 -0.000854105
0.91 -0.00685569
0.92 -0.0122373
0.93 -0.0166338
0.94 -0.0197038
0.95 -0.0211527
0.96 -0.0210506
0.97 -0.0191627
0.98 -0.0159196
0.99 -0.0114622
1 -0.00623279
1.01 -0.000665837
1.02 0.00473496
1.03 0.00955296
1.04 0.0132582
1.05 0.0156019
1.06 0.0163249
1.07 0.0152569
1.08 0.0126085
1.09 0.0083099
1.1 0.00291581
1.11 -0.00326986
1.12 -0.00968624
1.13 -0.0158274
1.14 -0.0210416
1.15 -0.0249694
1.16 -0.0269709
1.17 -0.0268922
1.18 -0.0244991
1.19 -0.0196764
1.2 -0.0127808
1.21 -0.00378071
1.22 0.006586
1.23 0.0179225
1.24 0.0295306
1.25 0.0407926
1.26 0.050916
1.27 0.0594636
1.28 0.0656425
1.29 0.0692325
1.3 0.0698915
1.31 0.0673734
1.32 0.0620243
1.33 0.0535719
1.34 0.0428129
1.35 0.0299667
1.36 0.0156842
1.37 0.000574564
1.38 -0.0147366
1.39 -0.0296475
1.4 -0.0434982
1.41 -0.0558739
1.42 -0.0663519
1.43 -0.0745323
1.44 -0.0804755
1.45 -0.0836982
1.46 -0.0846254
1.47 -0.0831303
1.48 -0.0794678
1.49 -0.0739234
1.5 -0.066579
1.51 -0.0579109
1.52 -0.0480127
1.53 -0.0372554
1.54 -0.025838
1.55 -0.0139827
1.56 -0.00192265
1.57 0.0101382
1.58 0.0219897
1.59 0.0333895
1.6 0.0440884
1.61 0.0538712
1.62 0.0623135
1.63 0.0693043
1.64 0.0743187
1.65 0.077234
1.66 0.0777466
1.67 0.0755387
1.68 0.0707651
1.69 0.0629394
1.7 0.0525929
1.71 0.0396747
1.72 0.0246112
1.73 0.0078964
1.74 -0.0100175
1.75 -0.0283794
1.76 -0.046522
1.77 -0.0637429
1.78 -0.0793839
1.79 -0.0927206
1.8 -0.103546
1.81 -0.111027
1.82 -0.115496
1.83 -0.116675
1.84 -0.114889
1.85 -0.110619
1.86 -0.104235
1.87 -0.0966539
1.88 -0.0885293
1.89 -0.080738
1.9 -0.0740215
1.91 -0.0691912
1.92 -0.0665619
1.93 -0.0669584
1.94 -0.0701023
1.95 -0.0762045
1.96 -0.0848688
1.97 -0.095525
1.98 -0.107587
1.99 -0.120068
2 -0.132011
2.01 -0.142436
2.02 -0.150388
2.03 -0.154791
2.04 -0.155336
2.05 -0.150714
2.06 -0.141357
2.07 -0.126706
2.08 -0.107052
2.09 -0.0829197
2.1 -0.05443
2.11 -0.0227777
2.12 0.0116703
2.13 0.0478586
2.14 0.0851309
2.15 0.122802
2.16 0.160364
2.17 0.197384
2.18 0.233764
2.19 0.269438
2.2 0.304575
2.21 0.339428
2.22 0.374318
2.23 0.409529
2.24 0.445357
2.25 0.481852
2.26 0.518949
2.27 0.556316
2.28 0.593411
2.29 0.629216
2.3 0.662841
2.31 0.692797
2.32 0.717637
2.33 0.736209
2.34 0.746163
2.35 0.747371
2.36 0.737489
2.37 0.716733
2.38 0.684518
2.39 0.640553
2.4 0.586598
2.41 0.52224
2.42 0.450607
2.43 0.372983
2.44 0.292037
2.45 0.210214
2.46 0.13037
2.47 0.0546067
2.48 -0.0140962
2.49 -0.0743662
2.5 -0.124614
2.51 -0.163424
2.52 -0.191669
2.53 -0.207872
2.54 -0.214685
2.55 -0.21261
2.56 -0.203882
2.57 -0.19076
2.58 -0.175416
2.59 -0.16034
2.6 -0.147891
2.61 -0.139808
2.62 -0.1376
2.63 -0.142598
2.64 -0.154455
2.65 -0.174171
2.66 -0.199882
2.67 -0.230962
2.68 -0.265537
2.69 -0.301741
2.7 -0.337464
2.71 -0.370906
2.72 -0.399851
2.73 -0.423164
2.74 -0.439719
2.75 -0.448645
2.76 -0.450724
2.77 -0.445427
2.78 -0.434905
2.79 -0.42015
2.8 -0.403241
2.81 -0.386106
2.82 -0.371034
2.83 -0.359547
2.84 -0.353839
2.85 -0.354646
2.86 -0.362768
2.87 -0.37863
2.88 -0.401022
2.89 -0.429871
2.9 -0.462708
2.91 -0.498011
2.92 -0.533375
2.93 -0.566727
2.94 -0.595357
2.95 -0.618058
2.96 -0.63241
2.97 -0.638104
2.98 -0.634577
2.99 -0.621741
3 -0.60136
3.01 -0.573861
3.02 -0.542262
3.03 -0.508487
3.04 -0.475328
3.05 -0.44508
3.06 -0.42076
3.07 -0.403481
3.08 -0.395767
3.09 -0.397673
3.1 -0.409566
3.11 -0.431238
3.12 -0.460586
3.13 -0.496825
3.14 -0.536679
3.15 -0.57795
3.16 -0.617717
3.17 -0.653702
3.18 -0.682909
3.19 -0.704562
3.2 -0.716459
3.21 -0.719056
3.22 -0.712531
3.23 -0.697809
3.24 -0.677399
3.25 -0.653107
3.26 -0.628284
3.27 -0.605802
3.28 -0.588745
3.29 -0.579257
3.3 -0.580588
3.31 -0.592635
3.32 -0.617424
3.33 -0.653465
3.34 -0.699777
3.35 -0.754386
3.36 -0.813846
3.37 -0.875054
3.38 -0.934058
3.39 -0.986974
3.4 -1.0302
3.41 -1.06148
3.42 -1.07703
3.43 -1.07782
3.44 -1.06184
3.45 -1.03173
3.46 -0.989361
3.47 -0.937848
3.48 -0.881784
3.49 -0.825604
3.5 -0.773982
3.51 -0.731695
3.52 -0.702615
3.53 -0.688687
3.54 -0.693259
3.55 -0.713719
3.56 -0.750106
3.57 -0.797069
3.58 -0.849538
3.59 -0.899739
3.6 -0.940303
3.61 -0.958905
3.62 -0.949072
3.63 -0.89888
3.64 -0.799896
3.65 -0.647686
3.66 -0.430034
3.67 -0.152707
3.68 0.192564
3.69 0.597119
3.7 1.05671
3.71 1.56394
3.72 2.1036
3.73 2.66543
3.74 3.23077
3.75 3.78355
3.76 4.30559
3.77 4.78302
3.78 5.19286
3.79 5.53095
3.8 5.77571
3.81 5.92643
3.82 5.97657
3.83 5.92023
3.84 5.77046
3.85 5.518
3.86 5.18653
3.87 4.78037
3.88 4.31629
3.89 3.81109
3.9 3.27866
3.91 2.738
3.92 2.20456
3.93 1.69262
3.94 1.21436
3.95 0.782619
3.96 0.399384
3.97 0.078363
3.98 -0.187378
3.99 -0.393494
4 -0.544616
4.01 -0.64795
4.02 -0.705572
4.03 -0.730782
4.04 -0.727924
4.05 -0.707961
4.06 -0.677939
4.07 -0.645227
4.08 -0.615389
4.09 -0.59405
4.1 -0.582968
4.11 -0.584517
4.12 -0.598508
4.13 -0.623293
4.14 -0.657621
4.15 -0.697454
4.16 -0.73996
4.17 -0.781238
4.18 -0.818059
4.19 -0.846844
4.2 -0.866199
4.21 -0.872501
4.22 -0.866613
4.23 -0.847214
4.24 -0.815112
4.25 -0.771903
4.26 -0.718075
4.27 -0.656792
4.28 -0.589157
4.29 -0.51774
4.3 -0.44415
4.31 -0.369959
4.32 -0.29625
4.33 -0.223944
4.34 -0.153182
4.35 -0.0841006
4.36 -0.0163938
4.37 0.0503706
4.38 0.116576
4.39 0.182619
4.4 0.248626
4.41 0.31444
4.42 0.379583
4.43 0.443042
4.44 0.503872
4.45 0.559842
4.46 0.609842
4.47 0.651447
4.48 0.682755
4.49 0.702642
4.5 0.708064
4.51 0.699903
4.52 0.675744
4.53 0.636922
4.54 0.583758
4.55 0.51697
4.56 0.439591
4.57 0.35243
4.58 0.259497
4.59 0.163082
4.6 0.0664207
4.61 -0.0278908
4.62 -0.116619
4.63 -0.19842
4.64 -0.270585
4.65 -0.332735
4.66 -0.38421
4.67 -0.424622
4.68 -0.45572
4.69 -0.477256
4.7 -0.492122
4.71 -0.501502
4.72 -0.507597
4.73 -0.512317
4.74 -0.51752
4.75 -0.524555
4.76 -0.534859
4.77 -0.548899
4.78 -0.566983
4.79 -0.589099
4.8 -0.614297
4.81 -0.642047
4.82 -0.670825
4.83 -0.69944
4.84 -0.726451
4.85 -0.750793
4.86 -0.770925
4.87 -0.786641
4.88 -0.796849
4.89 -0.801867
4.9 -0.801826
4.91 -0.797119
4.92 -0.789001
4.93 -0.778115
4.94 -0.766046
4.95 -0.75391
4.96 -0.743004
4.97 -0.734239
4.98 -0.728864
4.99 -0.72701
5 -0.729488
5.01 -0.735987
5.02 -0.746348
5.03 -0.76022
5.04 -0.776631
5.05 -0.795095
5.06 -0.814459
5.07 -0.833949
5.08 -0.85268
5.09 -0.870031
5.1 -0.885154
5.11 -0.897904
5.12 -0.907608
5.13 -0.914253
5.14 -0.917605
5.15 -0.91729
5.16 -0.91347
5.17 -0.905158
5.18 -0.892484
5.19 -0.874408
5.2 -0.850112
5.21 -0.818993
5.22 -0.778946
5.23 -0.730037
5.24 -0.669888
5.25 -0.598354
5.26 -0.514535
5.27 -0.41739
5.28 -0.308373
5.29 -0.186195
5.3 -0.0539263
5.31 0.0874542
5.32 0.235039
5.33 0.385668
5.34 0.535546
5.35 0.680955
5.36 0.816849
5.37 0.939524
5.38 1.04489
5.39 1.12791
5.4 1.18803
5.41 1.21859
5.42 1.22211
5.43 1.19566
5.44 1.14026
5.45 1.0587
5.46 0.950647
5.47 0.822822
5.48 0.676903
5.49 0.519174
5.5 0.354132
5.51 0.187085
5.52 0.0227101
5.53 -0.133329
5.54 -0.278171
5.55 -0.407635
5.56 -0.519314
5.57 -0.612702
5.58 -0.68486
5.59 -0.738866
5.6 -0.773446
5.61 -0.791957
5.62 -0.796277
5.63 -0.788583
5.64 -0.772599
5.65 -0.749976
5.66 -0.724069
5.67 -0.696627
5.68 -0.669417
5.69 -0.643404
5.7 -0.619318
5.71 -0.596868
5.72 -0.575728
5.73 -0.554868
5.74 -0.533219
5.75 -0.509351
5.76 -0.482408
5.77 -0.450713
5.78 -0.414213
5.79 -0.372207
5.8 -0.32497
5.81 -0.273384
5.82 -0.218244
5.83 -0.161544
5.84 -0.10512
5.85 -0.0512257
5.86 -0.00203606
5.87 0.0397226
5.88 0.0729974
5.89 0.0944379
5.9 0.104419
5.91 0.101268
5.92 0.0850373
5.93 0.056818
5.94 0.0163001
5.95 -0.0334344
5.96 -0.0915897
5.97 -0.155215
5.98 -0.222191
5.99 -0.290083
6 -0.356813
6.01 -0.420011
6.02 -0.478631
6.03 -0.531232
6.04 -0.57727
6.05 -0.617001
6.06 -0.650073
6.07 -0.678111
6.08 -0.701584
6.09 -0.722178
6.1 -0.741118
6.11 -0.759767
6.12 -0.77918
6.13 -0.800469
6.14 -0.823908
6.15 -0.849827
6.16 -0.877949
6.17 -0.907637
6.18 -0.938088
6.19 -0.968175
6.2 -0.996608
6.21 -1.02229
6.22 -1.04419
6.23 -1.06119
6.24 -1.07333
6.25 -1.07961
6.26 -1.08106
6.27 -1.07784
6.28 -1.07097
6.29 -1.06165
6.3 -1.0509
6.31 -1.03996
6.32 -1.02973
6.33 -1.02063
6.34 -1.01264
6.35 -1.00498
6.36 -0.996326
6.37 -0.983954
6.38 -0.965365
6.39 -0.936443
6.4 -0.892763
6.41 -0.830974
6.42 -0.743487
6.43 -0.629478
6.44 -0.481279
6.45 -0.298123
6.46 -0.0775149
6.47 0.183522
6.48 0.480145
6.49 0.815721
6.5 1.18099
6.51 1.57289
6.52 1.98321
6.53 2.40315
6.54 2.82279
6.55 3.23222
6.56 3.61882
6.57 3.97312
6.58 4.28514
6.59 4.54227
6.6 4.7432
6.61 4.87154
6.62 4.93291
6.63 4.9198
6.64 4.83349
6.65 4.68023
6.66 4.45699
6.67 4.1795
6.68 3.84939
6.69 3.48075
6.7 3.08302
6.71 2.66701
6.72 2.24469
6.73 1.82707
6.74 1.42339
6.75 1.04325
6.76 0.694245
6.77 0.379815
6.78 0.1088
6.79 -0.122597
6.8 -0.308764
6.81 -0.454303
6.82 -0.561094
6.83 -0.631074
6.84 -0.672189
6.85 -0.685266
6.86 -0.679267
6.87 -0.657625
6.88 -0.625785
6.89 -0.588246
6.9 -0.5485
6.91 -0.509619
6.92 -0.473923
6.93 -0.442586
6.94 -0.416264
6.95 -0.395294
6.96 -0.378739
6.97 -0.366528
6.98 -0.357211
6.99 -0.350177
7 -0.344589
7.01 -0.339887
7.02 -0.335918
7.03 -0.332671
7.04 -0.330667
7.05 -0.330529
7.06 -0.333111
7.07 -0.339685
7.08 -0.35074
7.09 -0.368051
7.1 -0.391486
7.11 -0.421944
7.12 -0.459399
7.13 -0.503152
7.14 -0.553142
7.15 -0.607444
7.16 -0.665091
7.17 -0.724044
7.18 -0.782576
7.19 -0.838558
7.2 -0.890638
7.21 -0.936384
7.22 -0.975375
7.23 -1.00622
7.24 -1.02857
7.25 -1.04294
7.26 -1.04893
7.27 -1.04857
7.28 -1.0424
7.29 -1.03246
7.3 -1.02031
7.31 -1.00768
7.32 -0.996026
7.33 -0.986926
7.34 -0.980922
7.35 -0.978654
7.36 -0.979949
7.37 -0.983995
7.38 -0.98975
7.39 -0.995349
7.4 -0.998562
7.41 -0.997036
7.42 -0.988321
7.43 -0.969135
7.44 -0.938412
7.45 -0.891879
7.46 -0.829992
7.47 -0.750498
7.48 -0.653167
7.49 -0.539317
7.5 -0.408088
7.51 -0.263584
7.52 -0.106713
7.53 0.0583594
7.54 0.228353
7.55 0.399172
7.56 0.567026
7.57 0.726818
7.58 0.875681
7.59 1.00923
7.6 1.12419
7.61 1.21923
7.62 1.28955
7.63 1.33726
7.64 1.35889
7.65 1.35651
7.66 1.33068
7.67 1.28167
7.68 1.21377
7.69 1.12658
7.7 1.02539
7.71 0.911968
7.72 0.789788
7.73 0.662176
7.74 0.531924
7.75 0.402163
7.76 0.275769
7.77 0.155071
7.78 0.0421525
7.79 -0.0604438
7.8 -0.152423
7.81 -0.230662
7.82 -0.296076
7.83 -0.347109
7.84 -0.383641
7.85 -0.406581
7.86 -0.414624
7.87 -0.410465
7.88 -0.393582
7.89 -0.366248
7.9 -0.329839
7.91 -0.285844
7.92 -0.2369
7.93 -0.184632
7.94 -0.131751
7.95 -0.080453
7.96 -0.0331979
7.97 0.00828217
7.98 0.0409652
7.99 0.0644134
8 0.0760183
8.01 0.0756189
8.02 0.0626356
8.03 0.0362861
8.04 -0.00158592
8.05 -0.0518468
8.06 -0.111524
8.07 -0.179684
8.08 -0.254076
8.09 -0.33235
8.1 -0.412401
8.11 -0.491848
8.12 -0.568439
8.13 -0.640446
8.14 -0.706425
8.15 -0.764789
8.16 -0.815767
8.17 -0.857935
8.18 -0.892703
8.19 -0.920138
8.2 -0.941358
8.21 -0.957807
8.22 -0.970339
8.23 -0.980685
8.24 -0.989692
8.25 -0.998281
8.26 -1.00681
8.27 -1.01514
8.28 -1.02268
8.29 -1.0279
8.3 -1.02925
8.31 -1.02414
8.32 -1.00962
8.33 -0.983488
8.34 -0.940555
8.35 -0.880127
8.36 -0.79698
8.37 -0.690182
8.38 -0.557902
8.39 -0.397519
8.4 -0.212039
8.41 0.00151988
8.42 0.23739
8.43 0.494167
8.44 0.767066
8.45 1.05043
8.46 1.33876
8.47 1.62508
8.48 1.90194
8.49 2.16259
8.5 2.40048
8.51 2.60698
8.52 2.78025
8.53 2.90936
8.54 2.99628
8.55 3.03537
8.56 3.02577
8.57 2.97065
8.58 2.86594
8.59 2.72132
8.6 2.53609
8.61 2.31865
8.62 2.07453
8.63 1.80961
8.64 1.53257
8.65 1.24937
8.66 0.967738
8.67 0.694045
8.68 0.434543
8.69 0.192881
8.7 -0.0239962
8.71 -0.216692
8.72 -0.380269
8.73 -0.516041
8.74 -0.6242
8.75 -0.704559
8.76 -0.762117
8.77 -0.796351
8.78 -0.813633
8.79 -0.816236
8.8 -0.808384
8.81 -0.794098
8.82 -0.776571
8.83 -0.759265
8.84 -0.744984
8.85 -0.735746
8.86 -0.732993
8.87 -0.738126
8.88 -0.750549
8.89 -0.771147
8.9 -0.798102
8.91 -0.830767
8.92 -0.867538
8.93 -0.906701
8.94 -0.946651
8.95 -0.985723
8.96 -1.02228
8.97 -1.05518
8.98 -1.08351
8.99 -1.10628
9 -1.12384
9.01 -1.13539
9.02 -1.14207
9.03 -1.14409
9.04 -1.14238
9.05 -1.13797
9.06 -1.1316
9.07 -1.12441
9.08 -1.11708
9.09 -1.11023
9.1 -1.10416
9.11 -1.099
9.12 -1.09443
9.13 -1.08993
9.14 -1.08472
9.15 -1.07777
9.16 -1.06783
9.17 -1.05401
9.18 -1.03441
9.19 -1.00878
9.2 -0.97547
9.21 -0.934357
9.22 -0.88517
9.23 -0.827549
9.24 -0.762913
9.25 -0.691205
9.26 -0.6147
9.27 -0.53471
9.28 -0.453426
9.29 -0.372908
9.3 -0.295883
9.31 -0.224037
9.32 -0.160224
9.33 -0.105878
9.34 -0.0624765
9.35 -0.0319638
9.36 -0.013506
9.37 -0.00918447
9.38 -0.016774
9.39 -0.0362465
9.4 -0.0660291
9.41 -0.10387
9.42 -0.148474
9.43 -0.196748
9.44 -0.246753
9.45 -0.295994
9.46 -0.342519
9.47 -0.384128
9.48 -0.42005
9.49 -0.448243
9.5 -0.469163
9.51 -0.482244
9.52 -0.487981
9.53 -0.487592
9.54 -0.48161
9.55 -0.472191
9.56 -0.460555
9.57 -0.448578
9.58 -0.437737
9.59 -0.429696
9.6 -0.425217
9.61 -0.425838
9.62 -0.431418
9.63 -0.442449
9.64 -0.458674
9.65 -0.479289
9.66 -0.50399
9.67 -0.531294
9.68 -0.560443
9.69 -0.590215
9.7 -0.61972
9.71 -0.648054
9.72 -0.674831
9.73 -0.699455
9.74 -0.72216
9.75 -0.743007
9.76 -0.762434
9.77 -0.780994
9.78 -0.799175
9.79 -0.817445
9.8 -0.836039
9.81 -0.854818
9.82 -0.873273
9.83 -0.890195
9.84 -0.904274
9.85 -0.912576
9.86 -0.913034
9.87 -0.901914
9.88 -0.875283
9.89 -0.830635
9.9 -0.761013
9.91 -0.66628
9.92 -0.539843
9.93 -0.380947
9.94 -0.187777
9.95 0.042841
9.96 0.306469
9.97 0.606606
9.98 0.935646
9.99 1.29146
10 1.66787
10.01 2.05746
10.02 2.45322
10.03 2.84626
10.04 3.22719
10.05 3.58747
10.06 3.91901
10.07 4.21089
10.08 4.46095
10.09 4.65572
10.1 4.7975
10.11 4.87957
10.12 4.90062
10.13 4.8649
10.14 4.76697
10.15 4.61898
10.16 4.41992
10.17 4.17981
10.18 3.90536
10.19 3.6032
10.2 3.28393
10.21 2.95398
10.22 2.6227
10.23 2.2971
10.24 1.98433
10.25 1.68858
10.26 1.41727
10.27 1.17006
10.28 0.951912
10.29 0.761675
10.3 0.59896
10.31 0.463974
10.32 0.351562
10.33 0.262078
10.34 0.189253
10.35 0.130747
10.36 0.0825192
10.37 0.0406812
10.38 0.00235335
10.39 -0.0356942
10.4 -0.0758445
10.41 -0.119843
10.42 -0.168809
10.43 -0.223774
10.44 -0.284139
10.45 -0.350314
10.46 -0.420743
10.47 -0.494612
10.48 -0.570421
10.49 -0.64668
10.5 -0.721671
10.51 -0.794116
10.52 -0.862248
10.53 -0.925033
10.54 -0.981488
10.55 -1.03026
10.56 -1.07166
10.57 -1.10409
10.58 -1.12853
10.59 -1.14448
10.6 -1.1522
10.61 -1.15257
10.62 -1.14517
10.63 -1.13165
10.64 -1.11194
10.65 -1.08722
10.66 -1.05817
10.67 -1.02538
10.68 -0.989969
10.69 -0.952382
10.7 -0.913645
10.71 -0.874388
10.72 -0.835387
10.73 -0.797237
10.74 -0.760799
10.75 -0.726411
10.76 -0.6949
10.77 -0.666612
10.78 -0.64196
10.79 -0.62162
10.8 -0.605401
10.81 -0.594238
10.82 -0.587682
10.83 -0.586147
10.84 -0.589658
10.85 -0.597834
10.86 -0.611184
10.87 -0.628794
10.88 -0.650909
10.89 -0.676878
10.9 -0.706307
10.91 -0.738885
10.92 -0.773759
10.93 -0.810618
10.94 -0.848552
10.95 -0.886957
10.96 -0.925038
10.97 -0.96215
10.98 -0.997316
10.99 -1.03014
11 -1.05967
11.01 -1.08554
11.02 -1.10735
11.03 -1.12449
11.04 -1.13736
11.05 -1.14534
11.06 -1.14925
11.07 -1.14925
11.08 -1.14597
11.09 -1.14031
11.1 -1.13293
11.11 -1.12496
11.12 -1.11728
11.13 -1.11079
11.14 -1.10618
11.15 -1.10415
11.16 -1.10466
11.17 -1.10802
11.18 -1.11338
11.19 -1.12002
11.2 -1.12649
11.21 -1.13123
11.22 -1.13158
11.23 -1.1258
11.24 -1.11043
11.25 -1.08317
11.26 -1.04149
11.27 -0.981513
11.28 -0.903231
11.29 -0.801732
11.3 -0.678638
11.31 -0.532029
11.32 -0.362219
11.33 -0.171839
11.34 0.0396535
11.35 0.266471
11.36 0.506637
11.37 0.754593
11.38 1.0056
11.39 1.25371
11.4 1.49402
11.41 1.71892
11.42 1.92472
11.43 2.1052
11.44 2.25542
11.45 2.3741
11.46 2.45357
11.47 2.49769
11.48 2.5015
11.49 2.46806
11.5 2.39901
11.51 2.29484
11.52 2.16274
11.53 2.00307
11.54 1.82405
11.55 1.62944
11.56 1.42504
11.57 1.21629
11.58 1.00835
11.59 0.805482
11.6 0.612376
11.61 0.431858
11.62 0.266171
11.63 0.118194
11.64 -0.0133311
11.65 -0.12578
11.66 -0.222169
11.67 -0.302701
11.68 -0.369287
11.69 -0.424804
11.7 -0.470337
11.71 -0.509561
11.72 -0.544033
11.73 -0.576216
11.74 -0.607745
11.75 -0.640094
11.76 -0.674002
11.77 -0.71019
11.78 -0.74833
11.79 -0.788058
11.8 -0.828384
11.81 -0.868136
11.82 -0.905478
11.83 -0.939098
11.84 -0.966688
11.85 -0.9867
11.86 -0.997548
11.87 -0.9968
11.88 -0.984525
11.89 -0.957714
11.9 -0.917371
11.91 -0.862258
11.92 -0.792345
11.93 -0.709031
11.94 -0.611311
11.95 -0.502354
11.96 -0.382368
11.97 -0.253989
11.98 -0.119254
11.99 0.0196145
12 0.159807
12.01 0.298573
12.02 0.43334
12.03 0.561254
12.04 0.679461
12.05 0.78646
12.06 0.878129
12.07 0.954836
12.08 1.01325
12.09 1.05336
12.1 1.07471
12.11 1.07586
12.12 1.05948
12.13 1.02383
12.14 0.97262
12.15 0.9066
12.16 0.828091
12.17 0.740183
12.18 0.644559
12.19 0.544933
12.2 0.443583
12.21 0.343325
12.22 0.246329
12.23 0.155099
12.24 0.0704601
12.25 -0.00527376
12.26 -0.0725039
12.27 -0.130541
12.28 -0.179704
12.29 -0.221312
12.3 -0.255579
12.31 -0.28492
12.32 -0.310384
12.33 -0.33398
12.34 -0.357238
12.35 -0.381797
12.36 -0.408623
12.37 -0.439021
12.38 -0.473002
12.39 -0.510758
12.4 -0.551745
12.41 -0.594854
