# xPDFsuite Configuration #
[PDF]
wavelength = 0.1432
dataformat = twotheta
inputfile = 1_1Pd_CeO2_cycle-00058.chi
backgroundfile = background-00000.chi
mode = xray
bgscale = 1.007
composition = CeO2
outputtype = gr
qmaxinst = 28.8974762299
qmin = 0.5
qmax = 27.9
rmax = 50.0
rmin = 0.0
rstep = 0.01
rpoly = 1.8657

[Misc]
inputdir = G:/SankarDec16/1Pd/Chi
savedir = D:/DATA/APS_CeO2/1Pd
backgroundfilefull = G:/SankarDec16/Background/background-00000.chi

#### start data
#S 1
#L r($\AA$)  G($\AA^{-2}$)
0 0
0.01 -0.00666463
0.02 -0.0128258
0.03 -0.0179652
0.04 -0.0216928
0.05 -0.0237917
0.06 -0.0239138
0.07 -0.0222924
0.08 -0.018817
0.09 -0.0139323
0.1 -0.007947
0.11 -0.00133239
0.12 0.005399
0.13 0.0116707
0.14 0.0170771
0.15 0.02112
0.16 0.0235098
0.17 0.0241324
0.18 0.0227534
0.19 0.0197175
0.2 0.0150427
0.21 0.00924836
0.22 0.00271952
0.23 -0.00401413
0.24 -0.0104714
0.25 -0.0160315
0.26 -0.0204065
0.27 -0.0231436
0.28 -0.0240677
0.29 -0.0231734
0.3 -0.020352
0.31 -0.016043
0.32 -0.0103917
0.33 -0.00396715
0.34 0.00278847
0.35 0.00931297
0.36 0.0151806
0.37 0.0197569
0.38 0.0228864
0.39 0.0241838
0.4 0.023598
0.41 0.021233
0.42 0.0171114
0.43 0.0117459
0.44 0.00540266
0.45 -0.00132772
0.46 -0.00796796
0.47 -0.0139508
0.48 -0.0189276
0.49 -0.0222816
0.5 -0.0239979
0.51 -0.0237787
0.52 -0.0216996
0.53 -0.0179691
0.54 -0.0127413
0.55 -0.00657649
0.56 0.000151118
0.57 0.00685828
0.58 0.0130565
0.59 0.0182013
0.6 0.022039
0.61 0.0240018
0.62 0.0242164
0.63 0.0224877
0.64 0.0190151
0.65 0.014102
0.66 0.00802643
0.67 0.00136922
0.68 -0.00540598
0.69 -0.011752
0.7 -0.0171938
0.71 -0.0212365
0.72 -0.0237347
0.73 -0.0241978
0.74 -0.0228879
0.75 -0.0197228
0.76 -0.0150153
0.77 -0.00914798
0.78 -0.00250857
0.79 0.00433178
0.8 0.0108452
0.81 0.0165491
0.82 0.0210077
0.83 0.0238034
0.84 0.0249069
0.85 0.0239336
0.86 0.0212671
0.87 0.0169437
0.88 0.0113733
0.89 0.00499577
0.9 -0.00171331
0.91 -0.00822771
0.92 -0.0139893
0.93 -0.0186137
0.94 -0.0217384
0.95 -0.0230595
0.96 -0.0226757
0.97 -0.0203557
0.98 -0.0165911
0.99 -0.011561
1 -0.00576689
1.01 0.000306987
1.02 0.00609221
1.03 0.0111466
1.04 0.0148851
1.05 0.0170591
1.06 0.0174021
1.07 0.0157536
1.08 0.0123723
1.09 0.0072154
1.1 0.0009142
1.11 -0.00616739
1.12 -0.0133945
1.13 -0.0202027
1.14 -0.0258557
1.15 -0.029976
1.16 -0.0318521
1.17 -0.031341
1.18 -0.0282005
1.19 -0.0223272
1.2 -0.0141423
1.21 -0.00363552
1.22 0.00835568
1.23 0.0213711
1.24 0.0346245
1.25 0.0474259
1.26 0.0588867
1.27 0.0685339
1.28 0.0754858
1.29 0.0795137
1.3 0.080247
1.31 0.0774234
1.32 0.0714393
1.33 0.0619982
1.34 0.0499915
1.35 0.0356636
1.36 0.0197358
1.37 0.00288037
1.38 -0.0142164
1.39 -0.0308912
1.4 -0.0464221
1.41 -0.0603511
1.42 -0.0722129
1.43 -0.0815643
1.44 -0.0884637
1.45 -0.0923701
1.46 -0.0937383
1.47 -0.0924131
1.48 -0.088659
1.49 -0.0827781
1.5 -0.07484
1.51 -0.0653707
1.52 -0.0544595
1.53 -0.0425271
1.54 -0.0298014
1.55 -0.0165468
1.56 -0.00304845
1.57 0.0104339
1.58 0.0236349
1.59 0.036245
1.6 0.0479538
1.61 0.0585019
1.62 0.0673815
1.63 0.0744872
1.64 0.0792239
1.65 0.0814989
1.66 0.0810132
1.67 0.0774778
1.68 0.0711345
1.69 0.0615495
1.7 0.0493823
1.71 0.0346889
1.72 0.0180264
1.73 -5.42459e-06
1.74 -0.018792
1.75 -0.0375451
1.76 -0.0554506
1.77 -0.0718168
1.78 -0.0859614
1.79 -0.097173
1.8 -0.105374
1.81 -0.109778
1.82 -0.110934
1.83 -0.108721
1.84 -0.103681
1.85 -0.0964817
1.86 -0.0877607
1.87 -0.0785352
1.88 -0.069719
1.89 -0.0622194
1.9 -0.0568601
1.91 -0.0544925
1.92 -0.0552641
1.93 -0.0600171
1.94 -0.0681478
1.95 -0.079697
1.96 -0.0939609
1.97 -0.110091
1.98 -0.127142
1.99 -0.143915
2 -0.15908
2.01 -0.171529
2.02 -0.180133
2.03 -0.183671
2.04 -0.181987
2.05 -0.173627
2.06 -0.159405
2.07 -0.13888
2.08 -0.112684
2.09 -0.0816743
2.1 -0.0463447
2.11 -0.00822499
2.12 0.0319023
2.13 0.0727375
2.14 0.113364
2.15 0.152852
2.16 0.190764
2.17 0.226409
2.18 0.260029
2.19 0.291585
2.2 0.321546
2.21 0.350479
2.22 0.379012
2.23 0.407821
2.24 0.437571
2.25 0.468628
2.26 0.501212
2.27 0.535278
2.28 0.5703
2.29 0.605557
2.3 0.639921
2.31 0.671937
2.32 0.699943
2.33 0.722534
2.34 0.737143
2.35 0.743275
2.36 0.738298
2.37 0.722122
2.38 0.693904
2.39 0.653083
2.4 0.601358
2.41 0.538047
2.42 0.466425
2.43 0.387717
2.44 0.304737
2.45 0.220116
2.46 0.136857
2.47 0.0573607
2.48 -0.0151768
2.49 -0.0791236
2.5 -0.132674
2.51 -0.174182
2.52 -0.204443
2.53 -0.221738
2.54 -0.228803
2.55 -0.226054
2.56 -0.215802
2.57 -0.200423
2.58 -0.182149
2.59 -0.163703
2.6 -0.147562
2.61 -0.135672
2.62 -0.129706
2.63 -0.131176
2.64 -0.13984
2.65 -0.1569
2.66 -0.180509
2.67 -0.210168
2.68 -0.244033
2.69 -0.280229
2.7 -0.316726
2.71 -0.351603
2.72 -0.382697
2.73 -0.408751
2.74 -0.428593
2.75 -0.441281
2.76 -0.44746
2.77 -0.446535
2.78 -0.440489
2.79 -0.430188
2.8 -0.417546
2.81 -0.404349
2.82 -0.392656
2.83 -0.3839
2.84 -0.380014
2.85 -0.381657
2.86 -0.389493
2.87 -0.403804
2.88 -0.42347
2.89 -0.448231
2.9 -0.475888
2.91 -0.504956
2.92 -0.533272
2.93 -0.559042
2.94 -0.579853
2.95 -0.594868
2.96 -0.602085
2.97 -0.601545
2.98 -0.593048
2.99 -0.576922
3 -0.554993
3.01 -0.528194
3.02 -0.499294
3.03 -0.470376
3.04 -0.444019
3.05 -0.422194
3.06 -0.407684
3.07 -0.40099
3.08 -0.40419
3.09 -0.416727
3.1 -0.438423
3.11 -0.468433
3.12 -0.504366
3.13 -0.544686
3.14 -0.586208
3.15 -0.626373
3.16 -0.662345
3.17 -0.69212
3.18 -0.712789
3.19 -0.724309
3.2 -0.724852
3.21 -0.715644
3.22 -0.697493
3.23 -0.672085
3.24 -0.642403
3.25 -0.611129
3.26 -0.581711
3.27 -0.557525
3.28 -0.541713
3.29 -0.53624
3.3 -0.544405
3.31 -0.565367
3.32 -0.600875
3.33 -0.648625
3.34 -0.706994
3.35 -0.773218
3.36 -0.843269
3.37 -0.913145
3.38 -0.978652
3.39 -1.03533
3.4 -1.07942
3.41 -1.10877
3.42 -1.11942
3.43 -1.11305
3.44 -1.08783
3.45 -1.0472
3.46 -0.993609
3.47 -0.930947
3.48 -0.864416
3.49 -0.799302
3.5 -0.740594
3.51 -0.693643
3.52 -0.66254
3.53 -0.649187
3.54 -0.657127
3.55 -0.683142
3.56 -0.727142
3.57 -0.783065
3.58 -0.845305
3.59 -0.905418
3.6 -0.955454
3.61 -0.982344
3.62 -0.979296
3.63 -0.933876
3.64 -0.837442
3.65 -0.685581
3.66 -0.465906
3.67 -0.184695
3.68 0.166212
3.69 0.57755
3.7 1.04462
3.71 1.55947
3.72 2.10643
3.73 2.67462
3.74 3.24516
3.75 3.80159
3.76 4.3256
3.77 4.80338
3.78 5.21191
3.79 5.54744
3.8 5.78855
3.81 5.93503
3.82 5.98069
3.83 5.92011
3.84 5.76665
3.85 5.51147
3.86 5.17834
3.87 4.77178
3.88 4.30851
3.89 3.80519
3.9 3.27555
3.91 2.7382
3.92 2.20826
3.93 1.69962
3.94 1.22409
3.95 0.794091
3.96 0.411497
3.97 0.0896319
3.98 -0.178279
3.99 -0.387944
4 -0.543759
4.01 -0.652609
4.02 -0.716229
4.03 -0.747439
4.04 -0.750091
4.05 -0.734714
4.06 -0.707953
4.07 -0.676749
4.08 -0.646648
4.09 -0.622869
4.1 -0.607528
4.11 -0.603017
4.12 -0.609532
4.13 -0.62588
4.14 -0.651283
4.15 -0.682292
4.16 -0.71668
4.17 -0.751039
4.18 -0.78259
4.19 -0.808219
4.2 -0.826508
4.21 -0.834266
4.22 -0.831906
4.23 -0.818055
4.24 -0.793071
4.25 -0.758031
4.26 -0.712909
4.27 -0.660235
4.28 -0.600486
4.29 -0.535743
4.3 -0.467181
4.31 -0.395947
4.32 -0.323191
4.33 -0.249489
4.34 -0.175471
4.35 -0.101411
4.36 -0.0275082
4.37 0.0461309
4.38 0.119304
4.39 0.191837
4.4 0.263208
4.41 0.332864
4.42 0.399962
4.43 0.463173
4.44 0.521741
4.45 0.573239
4.46 0.617165
4.47 0.651384
4.48 0.674616
4.49 0.686345
4.5 0.684263
4.51 0.669766
4.52 0.641185
4.53 0.600157
4.54 0.54732
4.55 0.483633
4.56 0.411774
4.57 0.332653
4.58 0.24948
4.59 0.164112
4.6 0.078997
4.61 -0.00399019
4.62 -0.082527
4.63 -0.155807
4.64 -0.222001
4.65 -0.281015
4.66 -0.332516
4.67 -0.376355
4.68 -0.413809
4.69 -0.444727
4.7 -0.471035
4.71 -0.493412
4.72 -0.513149
4.73 -0.531329
4.74 -0.54879
4.75 -0.566274
4.76 -0.584244
4.77 -0.602849
4.78 -0.622037
4.79 -0.641519
4.8 -0.66086
4.81 -0.679398
4.82 -0.696647
4.83 -0.71193
4.84 -0.724761
4.85 -0.734947
4.86 -0.741986
4.87 -0.746332
4.88 -0.74788
4.89 -0.747302
4.9 -0.745107
4.91 -0.741982
4.92 -0.738686
4.93 -0.736017
4.94 -0.734542
4.95 -0.73489
4.96 -0.737436
4.97 -0.742247
4.98 -0.749589
4.99 -0.758947
5 -0.770213
5.01 -0.782732
5.02 -0.795999
5.03 -0.809399
5.04 -0.822419
5.05 -0.834452
5.06 -0.84528
5.07 -0.854587
5.08 -0.862326
5.09 -0.868635
5.1 -0.873541
5.11 -0.877452
5.12 -0.880479
5.13 -0.882867
5.14 -0.884635
5.15 -0.885562
5.16 -0.885362
5.17 -0.883038
5.18 -0.877878
5.19 -0.868363
5.2 -0.852905
5.21 -0.830245
5.22 -0.79747
5.23 -0.754258
5.24 -0.697554
5.25 -0.627102
5.26 -0.541874
5.27 -0.440804
5.28 -0.325856
5.29 -0.195891
5.3 -0.0547957
5.31 0.0959155
5.32 0.252592
5.33 0.411482
5.34 0.568002
5.35 0.718183
5.36 0.856364
5.37 0.978852
5.38 1.08152
5.39 1.1594
5.4 1.21251
5.41 1.23443
5.42 1.22849
5.43 1.19233
5.44 1.12767
5.45 1.03786
5.46 0.923321
5.47 0.790937
5.48 0.642936
5.49 0.485521
5.5 0.323169
5.51 0.161052
5.52 0.00327702
5.53 -0.144773
5.54 -0.281003
5.55 -0.401774
5.56 -0.505338
5.57 -0.591663
5.58 -0.65847
5.59 -0.708937
5.6 -0.742231
5.61 -0.761575
5.62 -0.768768
5.63 -0.7658
5.64 -0.755857
5.65 -0.740271
5.66 -0.721738
5.67 -0.701507
5.68 -0.680796
5.69 -0.660204
5.7 -0.639933
5.71 -0.619696
5.72 -0.598869
5.73 -0.576633
5.74 -0.552075
5.75 -0.524031
5.76 -0.492136
5.77 -0.455101
5.78 -0.413396
5.79 -0.366777
5.8 -0.315942
5.81 -0.262001
5.82 -0.206131
5.83 -0.150176
5.84 -0.096097
5.85 -0.0458211
5.86 -0.00125266
5.87 0.0352746
5.88 0.0631838
5.89 0.079646
5.9 0.085446
5.91 0.0793793
5.92 0.0618346
5.93 0.0340144
5.94 -0.00408322
5.95 -0.0496987
5.96 -0.102015
5.97 -0.158549
5.98 -0.217562
5.99 -0.277131
6 -0.335701
6.01 -0.391545
6.02 -0.444008
6.03 -0.49217
6.04 -0.535814
6.05 -0.575271
6.06 -0.610517
6.07 -0.642764
6.08 -0.672507
6.09 -0.700899
6.1 -0.728759
6.11 -0.75692
6.12 -0.785867
6.13 -0.816087
6.14 -0.847424
6.15 -0.879692
6.16 -0.912272
6.17 -0.944434
6.18 -0.97504
6.19 -1.00333
6.2 -1.02795
6.21 -1.04829
6.22 -1.06366
6.23 -1.07338
6.24 -1.07801
6.25 -1.07705
6.26 -1.07193
6.27 -1.06324
6.28 -1.05229
6.29 -1.04037
6.3 -1.02879
6.31 -1.0185
6.32 -1.01045
6.33 -1.00474
6.34 -1.00105
6.35 -0.998342
6.36 -0.99487
6.37 -0.9876
6.38 -0.973745
6.39 -0.948921
6.4 -0.908521
6.41 -0.849144
6.42 -0.76306
6.43 -0.649618
6.44 -0.501142
6.45 -0.317081
6.46 -0.0950858
6.47 0.16765
6.48 0.466104
6.49 0.803509
6.5 1.17051
6.51 1.56399
6.52 1.97574
6.53 2.397
6.54 2.81794
6.55 3.22875
6.56 3.61693
6.57 3.9731
6.58 4.28739
6.59 4.54723
6.6 4.75127
6.61 4.88313
6.62 4.94824
6.63 4.93895
6.64 4.8563
6.65 4.70633
6.66 4.48569
6.67 4.20997
6.68 3.88046
6.69 3.51118
6.7 3.11149
6.71 2.6921
6.72 2.26521
6.73 1.84184
6.74 1.43162
6.75 1.04441
6.76 0.688213
6.77 0.366828
6.78 0.0895738
6.79 -0.147098
6.8 -0.337132
6.81 -0.484999
6.82 -0.592441
6.83 -0.661281
6.84 -0.699737
6.85 -0.708607
6.86 -0.697354
6.87 -0.669687
6.88 -0.631514
6.89 -0.587748
6.9 -0.542385
6.91 -0.498779
6.92 -0.459696
6.93 -0.426436
6.94 -0.399772
6.95 -0.380116
6.96 -0.366238
6.97 -0.358021
6.98 -0.353507
6.99 -0.35176
7 -0.351464
7.01 -0.35166
7.02 -0.351673
7.03 -0.351284
7.04 -0.350599
7.05 -0.350204
7.06 -0.350914
7.07 -0.354028
7.08 -0.360408
7.09 -0.372001
7.1 -0.38923
7.11 -0.413405
7.12 -0.445024
7.13 -0.483783
7.14 -0.530194
7.15 -0.582445
7.16 -0.639979
7.17 -0.700686
7.18 -0.762798
7.19 -0.824054
7.2 -0.882624
7.21 -0.935785
7.22 -0.982483
7.23 -1.02082
7.24 -1.04986
7.25 -1.06972
7.26 -1.07934
7.27 -1.08072
7.28 -1.07397
7.29 -1.06131
7.3 -1.04438
7.31 -1.02512
7.32 -1.00557
7.33 -0.987697
7.34 -0.972738
7.35 -0.961927
7.36 -0.955735
7.37 -0.953785
7.38 -0.955731
7.39 -0.95971
7.4 -0.963932
7.41 -0.965839
7.42 -0.962828
7.43 -0.951363
7.44 -0.929726
7.45 -0.893207
7.46 -0.841487
7.47 -0.771664
7.48 -0.682808
7.49 -0.575773
7.5 -0.448939
7.51 -0.306418
7.52 -0.148632
7.53 0.0200327
7.54 0.196151
7.55 0.375377
7.56 0.553232
7.57 0.724205
7.58 0.884599
7.59 1.02938
7.6 1.15453
7.61 1.25824
7.62 1.33489
7.63 1.38657
7.64 1.40927
7.65 1.40521
7.66 1.37504
7.67 1.3192
7.68 1.24262
7.69 1.14518
7.7 1.033
7.71 0.908387
7.72 0.775518
7.73 0.638215
7.74 0.499983
7.75 0.364098
7.76 0.233951
7.77 0.111833
7.78 -0.000169069
7.79 -0.0995456
7.8 -0.186495
7.81 -0.258006
7.82 -0.315655
7.83 -0.358263
7.84 -0.386237
7.85 -0.400909
7.86 -0.401482
7.87 -0.390865
7.88 -0.368929
7.89 -0.338018
7.9 -0.299581
7.91 -0.255179
7.92 -0.207185
7.93 -0.157266
7.94 -0.107742
7.95 -0.0606602
7.96 -0.0182052
7.97 0.0181442
7.98 0.0455801
7.99 0.0638703
8 0.0705914
8.01 0.0657057
8.02 0.0487364
8.03 0.0190231
8.04 -0.0215993
8.05 -0.0738372
8.06 -0.134772
8.07 -0.203373
8.08 -0.277348
8.09 -0.354359
8.1 -0.432157
8.11 -0.508477
8.12 -0.580962
8.13 -0.647999
8.14 -0.708215
8.15 -0.760131
8.16 -0.804227
8.17 -0.83929
8.18 -0.867066
8.19 -0.887968
8.2 -0.903518
8.21 -0.915456
8.22 -0.925209
8.23 -0.934577
8.24 -0.944901
8.25 -0.957102
8.26 -0.971586
8.27 -0.988254
8.28 -1.00605
8.29 -1.02332
8.3 -1.03779
8.31 -1.04636
8.32 -1.04532
8.33 -1.03182
8.34 -0.999713
8.35 -0.947907
8.36 -0.87028
8.37 -0.765642
8.38 -0.631871
8.39 -0.466032
8.4 -0.271673
8.41 -0.0456392
8.42 0.205283
8.43 0.479176
8.44 0.770287
8.45 1.07201
8.46 1.37772
8.47 1.67964
8.48 1.96913
8.49 2.23887
8.5 2.48174
8.51 2.68851
8.52 2.85775
8.53 2.97807
8.54 3.05249
8.55 3.07578
8.56 3.04807
8.57 2.97361
8.58 2.84945
8.59 2.68639
8.6 2.48498
8.61 2.25447
8.62 2.00113
8.63 1.7317
8.64 1.45459
8.65 1.17649
8.66 0.904145
8.67 0.643701
8.68 0.40051
8.69 0.177145
8.7 -0.0204532
8.71 -0.194126
8.72 -0.340145
8.73 -0.460811
8.74 -0.557152
8.75 -0.629934
8.76 -0.684073
8.77 -0.719882
8.78 -0.742944
8.79 -0.755447
8.8 -0.760876
8.81 -0.762284
8.82 -0.762051
8.83 -0.762409
8.84 -0.765109
8.85 -0.771165
8.86 -0.781194
8.87 -0.795661
8.88 -0.813909
8.89 -0.835982
8.9 -0.860639
8.91 -0.887202
8.92 -0.914608
8.93 -0.941939
8.94 -0.968167
8.95 -0.992721
8.96 -1.01478
8.97 -1.0341
8.98 -1.05049
8.99 -1.06375
9 -1.07438
9.01 -1.08231
9.02 -1.0883
9.03 -1.09269
9.04 -1.09603
9.05 -1.09881
9.06 -1.10142
9.07 -1.10417
9.08 -1.10721
9.09 -1.1105
9.1 -1.11385
9.11 -1.11682
9.12 -1.11894
9.13 -1.11924
9.14 -1.1171
9.15 -1.11141
9.16 -1.10111
9.17 -1.0856
9.18 -1.06314
9.19 -1.03394
9.2 -0.996544
9.21 -0.951156
9.22 -0.897696
9.23 -0.835971
9.24 -0.767453
9.25 -0.692136
9.26 -0.612218
9.27 -0.528947
9.28 -0.444407
9.29 -0.360575
9.3 -0.280094
9.31 -0.204651
9.32 -0.137129
9.33 -0.0790836
9.34 -0.0321581
9.35 0.00142699
9.36 0.0223011
9.37 0.0279406
9.38 0.0204157
9.39 -0.00058622
9.4 -0.0336923
9.41 -0.0766286
9.42 -0.128322
9.43 -0.185264
9.44 -0.245431
9.45 -0.305802
9.46 -0.363951
9.47 -0.417039
9.48 -0.463727
9.49 -0.50113
9.5 -0.529288
9.51 -0.546976
9.52 -0.554261
9.53 -0.552329
9.54 -0.541222
9.55 -0.523723
9.56 -0.501025
9.57 -0.475757
9.58 -0.450023
9.59 -0.426285
9.6 -0.406187
9.61 -0.392276
9.62 -0.385127
9.63 -0.386087
9.64 -0.395545
9.65 -0.412861
9.66 -0.438422
9.67 -0.47012
9.68 -0.507346
9.69 -0.548093
9.7 -0.590827
9.71 -0.633839
9.72 -0.67573
9.73 -0.714901
9.74 -0.750725
9.75 -0.782364
9.76 -0.809532
9.77 -0.832549
9.78 -0.851186
9.79 -0.866476
9.8 -0.878496
9.81 -0.887864
9.82 -0.89471
9.83 -0.898618
9.84 -0.899273
9.85 -0.894738
9.86 -0.883777
9.87 -0.863531
9.88 -0.830751
9.89 -0.783132
9.9 -0.714374
9.91 -0.623757
9.92 -0.504782
9.93 -0.355926
9.94 -0.17472
9.95 0.042825
9.96 0.293221
9.97 0.580962
9.98 0.899201
9.99 1.24663
10 1.61767
10.01 2.00504
10.02 2.40228
10.03 2.79988
10.04 3.18843
10.05 3.55861
10.06 3.90165
10.07 4.20579
10.08 4.46797
10.09 4.67373
10.1 4.82473
10.11 4.91351
10.12 4.93824
10.13 4.90316
10.14 4.8024
10.15 4.6488
10.16 4.44149
10.17 4.19129
10.18 3.90565
10.19 3.59205
10.2 3.26191
10.21 2.92265
10.22 2.58412
10.23 2.25402
10.24 1.93985
10.25 1.6457
10.26 1.37929
10.27 1.13948
10.28 0.931017
10.29 0.751853
10.3 0.600864
10.31 0.477356
10.32 0.375453
10.33 0.294526
10.34 0.227945
10.35 0.172801
10.36 0.12483
10.37 0.0803655
10.38 0.0364132
10.39 -0.00940064
10.4 -0.0590736
10.41 -0.113439
10.42 -0.172845
10.43 -0.23739
10.44 -0.305867
10.45 -0.377712
10.46 -0.451185
10.47 -0.52502
10.48 -0.597667
10.49 -0.668012
10.5 -0.734427
10.51 -0.796594
10.52 -0.853324
10.53 -0.904562
10.54 -0.950168
10.55 -0.989804
10.56 -1.02429
10.57 -1.05309
10.58 -1.07717
10.59 -1.09642
10.6 -1.11101
10.61 -1.12131
10.62 -1.12664
10.63 -1.12754
10.64 -1.12324
10.65 -1.11378
10.66 -1.09895
10.67 -1.07819
10.68 -1.05213
10.69 -1.02007
10.7 -0.983104
10.71 -0.941462
10.72 -0.896059
10.73 -0.848103
10.74 -0.798694
10.75 -0.749398
10.76 -0.701787
10.77 -0.657367
10.78 -0.617512
10.79 -0.584043
10.8 -0.557295
10.81 -0.539321
10.82 -0.529613
10.83 -0.528965
10.84 -0.537251
10.85 -0.553476
10.86 -0.577888
10.87 -0.608373
10.88 -0.644433
10.89 -0.684295
10.9 -0.72664
10.91 -0.770068
10.92 -0.813251
10.93 -0.854836
10.94 -0.894015
10.95 -0.929874
10.96 -0.961817
10.97 -0.989828
10.98 -1.01326
10.99 -1.03286
11 -1.04847
11.01 -1.06078
11.02 -1.07028
11.03 -1.07742
11.04 -1.083
11.05 -1.08739
11.06 -1.09128
11.07 -1.09507
11.08 -1.09917
11.09 -1.10383
11.1 -1.10938
11.11 -1.1158
11.12 -1.12322
11.13 -1.1315
11.14 -1.14047
11.15 -1.14983
11.16 -1.15914
11.17 -1.16774
11.18 -1.17496
11.19 -1.17978
11.2 -1.18096
11.21 -1.17753
11.22 -1.16707
11.23 -1.14893
11.24 -1.12026
11.25 -1.07969
11.26 -1.02548
11.27 -0.954599
11.28 -0.867418
11.29 -0.759831
11.3 -0.633374
11.31 -0.486359
11.32 -0.318953
11.33 -0.133316
11.34 0.0712939
11.35 0.289936
11.36 0.52112
11.37 0.760022
11.38 1.00248
11.39 1.24317
11.4 1.47746
11.41 1.6983
11.42 1.90189
11.43 2.08212
11.44 2.23388
11.45 2.3555
11.46 2.43908
11.47 2.48786
11.48 2.49649
11.49 2.46755
11.5 2.40229
11.51 2.30081
11.52 2.17023
11.53 2.01062
11.54 1.83045
11.55 1.63353
11.56 1.42598
11.57 1.2136
11.58 1.00194
11.59 0.795685
11.6 0.599956
11.61 0.417887
11.62 0.25195
11.63 0.105276
11.64 -0.023551
11.65 -0.131805
11.66 -0.222917
11.67 -0.297343
11.68 -0.357449
11.69 -0.406564
11.7 -0.446344
11.71 -0.480825
11.72 -0.512112
11.73 -0.542917
11.74 -0.575065
11.75 -0.610269
11.76 -0.648961
11.77 -0.691949
11.78 -0.738329
11.79 -0.787412
11.8 -0.837644
11.81 -0.887306
11.82 -0.933895
11.83 -0.975661
11.84 -1.00966
11.85 -1.03404
11.86 -1.04695
11.87 -1.04566
11.88 -1.03051
11.89 -0.998315
11.9 -0.950656
11.91 -0.886555
11.92 -0.80651
11.93 -0.712492
11.94 -0.604069
11.95 -0.484947
11.96 -0.355928
11.97 -0.220046
11.98 -0.0796502
11.99 0.0626445
12 0.204184
12.01 0.341911
12.02 0.473678
12.03 0.596744
12.04 0.708608
12.05 0.808231
12.06 0.891838
12.07 0.960322
12.08 1.01076
12.09 1.04355
12.1 1.05853
12.11 1.05462
12.12 1.03452
12.13 0.99677
12.14 0.944913
12.15 0.879721
12.16 0.803375
12.17 0.718702
12.18 0.627283
12.19 0.532459
12.2 0.436318
12.21 0.341394
12.22 0.24964
12.23 0.163326
12.24 0.0831554
12.25 0.0112204
12.26 -0.0529029
12.27 -0.108633
12.28 -0.156334
12.29 -0.197269
12.3 -0.231752
12.31 -0.262037
12.32 -0.289209
12.33 -0.315156
12.34 -0.341332
12.35 -0.369311
12.36 -0.399904
12.37 -0.434341
12.38 -0.472471
12.39 -0.514359
12.4 -0.559305
