# xPDFsuite Configuration #
[PDF]
wavelength = 0.1432
dataformat = twotheta
inputfile = 1_1Pd_CeO2_cycle-00353.chi
backgroundfile = background-00000.chi
mode = xray
bgscale = 1.007
composition = CeO2
outputtype = gr
qmaxinst = 28.8974762299
qmin = 0.5
qmax = 27.9
rmax = 50.0
rmin = 0.0
rstep = 0.01
rpoly = 1.8657

[Misc]
inputdir = G:/SankarDec16/1Pd/Chi
savedir = D:/DATA/APS_CeO2/1Pd
backgroundfilefull = G:/SankarDec16/Background/background-00000.chi

#### start data
#S 1
#L r($\AA$)  G($\AA^{-2}$)
0 0
0.01 -0.00675165
0.02 -0.0129953
0.03 -0.018208
0.04 -0.0219954
0.05 -0.0241382
0.06 -0.0242833
0.07 -0.022665
0.08 -0.0191692
0.09 -0.0142431
0.1 -0.00819621
0.11 -0.00150218
0.12 0.00532123
0.13 0.0116941
0.14 0.0172038
0.15 0.0213463
0.16 0.0238252
0.17 0.0245211
0.18 0.0231917
0.19 0.0201806
0.2 0.015499
0.21 0.00966811
0.22 0.0030727
0.23 -0.00375539
0.24 -0.010328
0.25 -0.01602
0.26 -0.0205333
0.27 -0.0234063
0.28 -0.024454
0.29 -0.0236631
0.3 -0.0209132
0.31 -0.0166417
0.32 -0.0109846
0.33 -0.00451341
0.34 0.00232993
0.35 0.00897963
0.36 0.0149999
0.37 0.0197497
0.38 0.023059
0.39 0.0245307
0.4 0.0240999
0.41 0.0218602
0.42 0.0178195
0.43 0.0124886
0.44 0.00612255
0.45 -0.000683293
0.46 -0.00745009
0.47 -0.0136041
0.48 -0.0187826
0.49 -0.0223584
0.5 -0.024298
0.51 -0.0242874
0.52 -0.0223856
0.53 -0.0187891
0.54 -0.0136343
0.55 -0.00748226
0.56 -0.000695391
0.57 0.0061342
0.58 0.0125133
0.59 0.0178866
0.6 0.0219817
0.61 0.0242148
0.62 0.0246909
0.63 0.0231946
0.64 0.0199063
0.65 0.0151171
0.66 0.00908655
0.67 0.00239997
0.68 -0.00448903
0.69 -0.0110188
0.7 -0.0167048
0.71 -0.0210354
0.72 -0.023842
0.73 -0.0246107
0.74 -0.0235808
0.75 -0.0206453
0.76 -0.0160979
0.77 -0.0103107
0.78 -0.00365357
0.79 0.0032909
0.8 0.0100003
0.81 0.0159695
0.82 0.020746
0.83 0.0238863
0.84 0.0253331
0.85 0.0246668
0.86 0.0222481
0.87 0.0180817
0.88 0.0125583
0.89 0.00610937
0.9 -0.00080779
0.91 -0.00764575
0.92 -0.0138482
0.93 -0.0189967
0.94 -0.0227026
0.95 -0.024624
0.96 -0.0248215
0.97 -0.0230122
0.98 -0.019658
0.99 -0.0148907
1 -0.00918236
1.01 -0.00300203
1.02 0.00311889
1.03 0.00871315
1.04 0.0132175
1.05 0.0163458
1.06 0.0178123
1.07 0.0174249
1.08 0.0153924
1.09 0.0116352
1.1 0.00672947
1.11 0.000990615
1.12 -0.00499664
1.13 -0.0107059
1.14 -0.0154643
1.15 -0.0189045
1.16 -0.020381
1.17 -0.0197547
1.18 -0.0168147
1.19 -0.0114893
1.2 -0.00417761
1.21 0.00506508
1.22 0.0154586
1.23 0.0265151
1.24 0.0374748
1.25 0.0476831
1.26 0.0562603
1.27 0.0628164
1.28 0.0665072
1.29 0.0671991
1.3 0.0646054
1.31 0.0585794
1.32 0.0496069
1.33 0.0375697
1.34 0.0234233
1.35 0.00757769
1.36 -0.00914396
1.37 -0.0260096
1.38 -0.0421672
1.39 -0.0570353
1.4 -0.0697656
1.41 -0.0800275
1.42 -0.0874056
1.43 -0.0915634
1.44 -0.0927774
1.45 -0.0906542
1.46 -0.0859306
1.47 -0.0786943
1.48 -0.0694867
1.49 -0.058827
1.5 -0.0471286
1.51 -0.0349794
1.52 -0.0227867
1.53 -0.0109461
1.54 0.000245644
1.55 0.0105173
1.56 0.0198315
1.57 0.0279361
1.58 0.0349949
1.59 0.040926
1.6 0.0458081
1.61 0.0497245
1.62 0.0526087
1.63 0.0546009
1.64 0.0555544
1.65 0.0555088
1.66 0.0543635
1.67 0.0519764
1.68 0.0483906
1.69 0.0433126
1.7 0.0369261
1.71 0.0291133
1.72 0.0199963
1.73 0.00975958
1.74 -0.00146991
1.75 -0.0132978
1.76 -0.0254475
1.77 -0.0375034
1.78 -0.0490979
1.79 -0.0598002
1.8 -0.0694025
1.81 -0.0774079
1.82 -0.0838797
1.83 -0.0885975
1.84 -0.0916564
1.85 -0.0932641
1.86 -0.0935579
1.87 -0.0930305
1.88 -0.0919978
1.89 -0.0909519
1.9 -0.0902929
1.91 -0.0904568
1.92 -0.0916319
1.93 -0.0942158
1.94 -0.0980599
1.95 -0.103205
1.96 -0.109368
1.97 -0.116174
1.98 -0.123143
1.99 -0.129715
2 -0.135174
2.01 -0.138962
2.02 -0.140465
2.03 -0.139008
2.04 -0.134509
2.05 -0.12611
2.06 -0.114254
2.07 -0.0986277
2.08 -0.07952
2.09 -0.0573499
2.1 -0.0322428
2.11 -0.00501512
2.12 0.0241094
2.13 0.0544832
2.14 0.085762
2.15 0.117643
2.16 0.1499
2.17 0.182531
2.18 0.215551
2.19 0.249171
2.2 0.283638
2.21 0.319166
2.22 0.35615
2.23 0.394554
2.24 0.434593
2.25 0.475941
2.26 0.518251
2.27 0.560827
2.28 0.602825
2.29 0.642809
2.3 0.679721
2.31 0.711771
2.32 0.737387
2.33 0.755413
2.34 0.763377
2.35 0.761436
2.36 0.747286
2.37 0.721504
2.38 0.683775
2.39 0.634165
2.4 0.574763
2.41 0.505587
2.42 0.429981
2.43 0.349567
2.44 0.267197
2.45 0.185366
2.46 0.107121
2.47 0.0343026
2.48 -0.0300769
2.49 -0.0849958
2.5 -0.129108
2.51 -0.161336
2.52 -0.18292
2.53 -0.192788
2.54 -0.193889
2.55 -0.187093
2.56 -0.174884
2.57 -0.159642
2.58 -0.143811
2.59 -0.129691
2.6 -0.119771
2.61 -0.115501
2.62 -0.118222
2.63 -0.129006
2.64 -0.147145
2.65 -0.173345
2.66 -0.205388
2.67 -0.242334
2.68 -0.28203
2.69 -0.322441
2.7 -0.361184
2.71 -0.396533
2.72 -0.42611
2.73 -0.448951
2.74 -0.46402
2.75 -0.470593
2.76 -0.469725
2.77 -0.461049
2.78 -0.447008
2.79 -0.428796
2.8 -0.408699
2.81 -0.388774
2.82 -0.37148
2.83 -0.358315
2.84 -0.351551
2.85 -0.351822
2.86 -0.359859
2.87 -0.375972
2.88 -0.398793
2.89 -0.428116
2.9 -0.461329
2.91 -0.496791
2.92 -0.53201
2.93 -0.564887
2.94 -0.59267
2.95 -0.614241
2.96 -0.627229
2.97 -0.631466
2.98 -0.626518
2.99 -0.61247
3 -0.591198
3.01 -0.563342
3.02 -0.53195
3.03 -0.49907
3.04 -0.467501
3.05 -0.439484
3.06 -0.418024
3.07 -0.40403
3.08 -0.399911
3.09 -0.405492
3.1 -0.420937
3.11 -0.445797
3.12 -0.477819
3.13 -0.515932
3.14 -0.556842
3.15 -0.598192
3.16 -0.637059
3.17 -0.671242
3.18 -0.697751
3.19 -0.716073
3.2 -0.724124
3.21 -0.722643
3.22 -0.712037
3.23 -0.693503
3.24 -0.669731
3.25 -0.642835
3.26 -0.616209
3.27 -0.5929
3.28 -0.576014
3.29 -0.567632
3.3 -0.571018
3.31 -0.585819
3.32 -0.613972
3.33 -0.653723
3.34 -0.703893
3.35 -0.762274
3.36 -0.825252
3.37 -0.889489
3.38 -0.950978
3.39 -1.00571
3.4 -1.05008
3.41 -1.08188
3.42 -1.09734
3.43 -1.09762
3.44 -1.08078
3.45 -1.04964
3.46 -1.0062
3.47 -0.953708
3.48 -0.896826
3.49 -0.840076
3.5 -0.788096
3.51 -0.745639
3.52 -0.716477
3.53 -0.702438
3.54 -0.706695
3.55 -0.726514
3.56 -0.761728
3.57 -0.8069
3.58 -0.856865
3.59 -0.903782
3.6 -0.94039
3.61 -0.954365
3.62 -0.939506
3.63 -0.884085
3.64 -0.779987
3.65 -0.62307
3.66 -0.401557
3.67 -0.121418
3.68 0.225161
3.69 0.629397
3.7 1.08686
3.71 1.59001
3.72 2.1239
3.73 2.67815
3.74 3.23465
3.75 3.77761
3.76 4.28936
3.77 4.75657
3.78 5.15691
3.79 5.48666
3.8 5.72495
3.81 5.87139
3.82 5.91981
3.83 5.86468
3.84 5.71882
3.85 5.47334
3.86 5.15122
3.87 4.75664
3.88 4.30574
3.89 3.81471
3.9 3.29674
3.91 2.77014
3.92 2.24953
3.93 1.74867
3.94 1.27917
3.95 0.85329
3.96 0.47309
3.97 0.151682
3.98 -0.117299
3.99 -0.329523
4 -0.489122
4.01 -0.60271
4.02 -0.671855
4.03 -0.70905
4.04 -0.717977
4.05 -0.708931
4.06 -0.688395
4.07 -0.663141
4.08 -0.638636
4.09 -0.619934
4.1 -0.609154
4.11 -0.608597
4.12 -0.618436
4.13 -0.637492
4.14 -0.664907
4.15 -0.697329
4.16 -0.732464
4.17 -0.766987
4.18 -0.79814
4.19 -0.822835
4.2 -0.839768
4.21 -0.845756
4.22 -0.841359
4.23 -0.825277
4.24 -0.797986
4.25 -0.76067
4.26 -0.713431
4.27 -0.65888
4.28 -0.597623
4.29 -0.531787
4.3 -0.462601
4.31 -0.391261
4.32 -0.318854
4.33 -0.245992
4.34 -0.173165
4.35 -0.100589
4.36 -0.0283331
4.37 0.0436163
4.38 0.115197
4.39 0.186336
4.4 0.256645
4.41 0.325622
4.42 0.392476
4.43 0.455902
4.44 0.515069
4.45 0.567534
4.46 0.612637
4.47 0.648133
4.48 0.67258
4.49 0.685322
4.5 0.683861
4.51 0.669527
4.52 0.640491
4.53 0.598392
4.54 0.543859
4.55 0.477887
4.56 0.403318
4.57 0.321175
4.58 0.23492
4.59 0.146637
4.6 0.0590451
4.61 -0.0257751
4.62 -0.105162
4.63 -0.17826
4.64 -0.242957
4.65 -0.299203
4.66 -0.346652
4.67 -0.385205
4.68 -0.416428
4.69 -0.440302
4.7 -0.459186
4.71 -0.474088
4.72 -0.486727
4.73 -0.498531
4.74 -0.510859
4.75 -0.524602
4.76 -0.540691
4.77 -0.559307
4.78 -0.580504
4.79 -0.604058
4.8 -0.629192
4.81 -0.655257
4.82 -0.681188
4.83 -0.706006
4.84 -0.728708
4.85 -0.748637
4.86 -0.764721
4.87 -0.777074
4.88 -0.785038
4.89 -0.789087
4.9 -0.789498
4.91 -0.786749
4.92 -0.781847
4.93 -0.775407
4.94 -0.768542
4.95 -0.762065
4.96 -0.756817
4.97 -0.753324
4.98 -0.752331
4.99 -0.753759
5 -0.758
5.01 -0.764697
5.02 -0.773625
5.03 -0.784441
5.04 -0.796514
5.05 -0.809476
5.06 -0.822714
5.07 -0.83582
5.08 -0.848403
5.09 -0.860236
5.1 -0.871001
5.11 -0.880709
5.12 -0.889096
5.13 -0.896127
5.14 -0.901582
5.15 -0.90501
5.16 -0.906174
5.17 -0.903891
5.18 -0.897714
5.19 -0.886184
5.2 -0.867956
5.21 -0.842034
5.22 -0.805747
5.23 -0.759054
5.24 -0.699155
5.25 -0.625977
5.26 -0.53864
5.27 -0.436209
5.28 -0.320587
5.29 -0.190708
5.3 -0.0502571
5.31 0.0993413
5.32 0.254632
5.33 0.412049
5.34 0.56721
5.35 0.71629
5.36 0.853803
5.37 0.976113
5.38 1.07914
5.39 1.15791
5.4 1.21231
5.41 1.23586
5.42 1.23168
5.43 1.19723
5.44 1.13402
5.45 1.04525
5.46 0.931092
5.47 0.798403
5.48 0.649248
5.49 0.489891
5.5 0.324851
5.51 0.159401
5.52 -0.00212306
5.53 -0.154144
5.54 -0.294273
5.55 -0.418593
5.56 -0.525062
5.57 -0.61345
5.58 -0.681137
5.59 -0.731313
5.6 -0.762909
5.61 -0.77926
5.62 -0.782226
5.63 -0.773919
5.64 -0.757858
5.65 -0.735584
5.66 -0.710213
5.67 -0.683339
5.68 -0.656572
5.69 -0.630795
5.7 -0.606657
5.71 -0.583923
5.72 -0.562315
5.73 -0.540952
5.74 -0.518924
5.75 -0.49502
5.76 -0.468524
5.77 -0.438042
5.78 -0.403553
5.79 -0.364501
5.8 -0.321159
5.81 -0.274294
5.82 -0.224628
5.83 -0.173834
5.84 -0.123494
5.85 -0.0754865
5.86 -0.0316339
5.87 0.00577944
5.88 0.0359058
5.89 0.0559211
5.9 0.0661694
5.91 0.0652227
5.92 0.0530965
5.93 0.0306662
5.94 -0.0024508
5.95 -0.0437209
5.96 -0.092667
5.97 -0.146918
5.98 -0.204849
5.99 -0.26463
6 -0.324526
6.01 -0.382855
6.02 -0.438615
6.03 -0.490724
6.04 -0.53866
6.05 -0.582474
6.06 -0.621823
6.07 -0.6577
6.08 -0.690299
6.09 -0.720647
6.1 -0.749439
6.11 -0.777396
6.12 -0.805139
6.13 -0.833079
6.14 -0.861348
6.15 -0.889883
6.16 -0.91832
6.17 -0.946176
6.18 -0.972587
6.19 -0.997008
6.2 -1.01836
6.21 -1.03616
6.22 -1.04985
6.23 -1.05888
6.24 -1.0637
6.25 -1.0639
6.26 -1.06066
6.27 -1.05446
6.28 -1.04638
6.29 -1.03746
6.3 -1.02875
6.31 -1.021
6.32 -1.01486
6.33 -1.01026
6.34 -1.00678
6.35 -1.00319
6.36 -0.99787
6.37 -0.98767
6.38 -0.970074
6.39 -0.940812
6.4 -0.895553
6.41 -0.831184
6.42 -0.740328
6.43 -0.622626
6.44 -0.470818
6.45 -0.284603
6.46 -0.0618984
6.47 0.199793
6.48 0.495513
6.49 0.82816
6.5 1.1887
6.51 1.57401
6.52 1.97615
6.53 2.38674
6.54 2.79626
6.55 3.19545
6.56 3.57228
6.57 3.9179
6.58 4.22289
6.59 4.4753
6.6 4.67394
6.61 4.80314
6.62 4.8682
6.63 4.8618
6.64 4.78495
6.65 4.64341
6.66 4.43388
6.67 4.17125
6.68 3.85659
6.69 3.50322
6.7 3.11996
6.71 2.71686
6.72 2.30557
6.73 1.89633
6.74 1.49846
6.75 1.12124
6.76 0.772314
6.77 0.455458
6.78 0.179538
6.79 -0.0585196
6.8 -0.252829
6.81 -0.407339
6.82 -0.523448
6.83 -0.60256
6.84 -0.652248
6.85 -0.672848
6.86 -0.673213
6.87 -0.656544
6.88 -0.628267
6.89 -0.593017
6.9 -0.5543
6.91 -0.515565
6.92 -0.479289
6.93 -0.446988
6.94 -0.419561
6.95 -0.397601
6.96 -0.380325
6.97 -0.367838
6.98 -0.358679
6.99 -0.35225
7 -0.347611
7.01 -0.344061
7.02 -0.341271
7.03 -0.339049
7.04 -0.337707
7.05 -0.337735
7.06 -0.339878
7.07 -0.345317
7.08 -0.354631
7.09 -0.369587
7.1 -0.390287
7.11 -0.417796
7.12 -0.452354
7.13 -0.493498
7.14 -0.541498
7.15 -0.59457
7.16 -0.652036
7.17 -0.711903
7.18 -0.772496
7.19 -0.831694
7.2 -0.887901
7.21 -0.93859
7.22 -0.982943
7.23 -1.01928
7.24 -1.04683
7.25 -1.06582
7.26 -1.07536
7.27 -1.07737
7.28 -1.07198
7.29 -1.06126
7.3 -1.04669
7.31 -1.03005
7.32 -1.01312
7.33 -0.997606
7.34 -0.98457
7.35 -0.975007
7.36 -0.969222
7.37 -0.966786
7.38 -0.967188
7.39 -0.968726
7.4 -0.96959
7.41 -0.967448
7.42 -0.959884
7.43 -0.943614
7.44 -0.917198
7.45 -0.876256
7.46 -0.820702
7.47 -0.747931
7.48 -0.657235
7.49 -0.549557
7.5 -0.423544
7.51 -0.283137
7.52 -0.128881
7.53 0.0350569
7.54 0.205403
7.55 0.378008
7.56 0.548727
7.57 0.712294
7.58 0.865358
7.59 1.00318
7.6 1.12206
7.61 1.22036
7.62 1.29283
7.63 1.34155
7.64 1.36277
7.65 1.35868
7.66 1.32992
7.67 1.27695
7.68 1.20447
7.69 1.11239
7.7 1.00648
7.71 0.888951
7.72 0.763715
7.73 0.634364
7.74 0.504178
7.75 0.376204
7.76 0.253585
7.77 0.138421
7.78 0.0326141
7.79 -0.0615646
7.8 -0.144343
7.81 -0.213018
7.82 -0.269084
7.83 -0.311519
7.84 -0.340739
7.85 -0.357977
7.86 -0.362532
7.87 -0.357017
7.88 -0.341285
7.89 -0.317388
7.9 -0.286558
7.91 -0.250081
7.92 -0.210024
7.93 -0.167704
7.94 -0.12517
7.95 -0.0841313
7.96 -0.0464919
7.97 -0.013601
7.98 0.0120944
7.99 0.0302112
8 0.038532
8.01 0.0368044
8.02 0.0244052
8.03 0.000474746
8.04 -0.0335763
8.05 -0.0787516
8.06 -0.132615
8.07 -0.194549
8.08 -0.262714
8.09 -0.335065
8.1 -0.409865
8.11 -0.484842
8.12 -0.557984
8.13 -0.627544
8.14 -0.692061
8.15 -0.749904
8.16 -0.80107
8.17 -0.844047
8.18 -0.879972
8.19 -0.908751
8.2 -0.931315
8.21 -0.948988
8.22 -0.962505
8.23 -0.973594
8.24 -0.983084
8.25 -0.991976
8.26 -1.00071
8.27 -1.00928
8.28 -1.01721
8.29 -1.02311
8.3 -1.02549
8.31 -1.02186
8.32 -1.00926
8.33 -0.98544
8.34 -0.945167
8.35 -0.887577
8.36 -0.807303
8.37 -0.703221
8.38 -0.573327
8.39 -0.41479
8.4 -0.23055
8.41 -0.017421
8.42 0.218757
8.43 0.476606
8.44 0.751227
8.45 1.03678
8.46 1.32758
8.47 1.61639
8.48 1.89546
8.49 2.15781
8.5 2.39666
8.51 2.60315
8.52 2.77544
8.53 2.90242
8.54 2.98629
8.55 3.0215
8.56 3.0075
8.57 2.9478
8.58 2.83875
8.59 2.69042
8.6 2.50264
8.61 2.28414
8.62 2.04076
8.63 1.77879
8.64 1.50673
8.65 1.23091
8.66 0.958555
8.67 0.695898
8.68 0.448705
8.69 0.220053
8.7 0.0162653
8.71 -0.163914
8.72 -0.316317
8.73 -0.442828
8.74 -0.544162
8.75 -0.620764
8.76 -0.677557
8.77 -0.714623
8.78 -0.737792
8.79 -0.749313
8.8 -0.752914
8.81 -0.751937
8.82 -0.749019
8.83 -0.746709
8.84 -0.747032
8.85 -0.751222
8.86 -0.76006
8.87 -0.774178
8.88 -0.79287
8.89 -0.816294
8.9 -0.84302
8.91 -0.872314
8.92 -0.902949
8.93 -0.933831
8.94 -0.963787
8.95 -0.992079
8.96 -1.01775
8.97 -1.04048
8.98 -1.05998
8.99 -1.07603
9 -1.08916
9.01 -1.09925
9.02 -1.10715
9.03 -1.11319
9.04 -1.11796
9.05 -1.12197
9.06 -1.12556
9.07 -1.12901
9.08 -1.13239
9.09 -1.13558
9.1 -1.13828
9.11 -1.13993
9.12 -1.14004
9.13 -1.13749
9.14 -1.13173
9.15 -1.12166
9.16 -1.10632
9.17 -1.08532
9.18 -1.05712
9.19 -1.02222
9.2 -0.979526
9.21 -0.929566
9.22 -0.872584
9.23 -0.8088
9.24 -0.73976
9.25 -0.665904
9.26 -0.589257
9.27 -0.511159
9.28 -0.433514
9.29 -0.357936
9.3 -0.286798
9.31 -0.221168
9.32 -0.163411
9.33 -0.114461
9.34 -0.0754056
9.35 -0.0477692
9.36 -0.030703
9.37 -0.0259852
9.38 -0.0317038
9.39 -0.0479318
9.4 -0.0734594
9.41 -0.10647
9.42 -0.146124
9.43 -0.189798
9.44 -0.236066
9.45 -0.282779
9.46 -0.328262
9.47 -0.370599
9.48 -0.408859
9.49 -0.441139
9.5 -0.46743
9.51 -0.486905
9.52 -0.499558
9.53 -0.50611
9.54 -0.506481
9.55 -0.502413
9.56 -0.494533
9.57 -0.48445
9.58 -0.47342
9.59 -0.462884
9.6 -0.453928
9.61 -0.448028
9.62 -0.445684
9.63 -0.447767
9.64 -0.454657
9.65 -0.466141
9.66 -0.482663
9.67 -0.503163
9.68 -0.527561
9.69 -0.554878
9.7 -0.584419
9.71 -0.615474
9.72 -0.647218
9.73 -0.679053
9.74 -0.710438
9.75 -0.740943
9.76 -0.770243
9.77 -0.798211
9.78 -0.824444
9.79 -0.848968
9.8 -0.871237
9.81 -0.89088
9.82 -0.907201
9.83 -0.918811
9.84 -0.924957
9.85 -0.922767
9.86 -0.911116
9.87 -0.886897
9.88 -0.847121
9.89 -0.790111
9.9 -0.71005
9.91 -0.607333
9.92 -0.476396
9.93 -0.316805
9.94 -0.127044
9.95 0.095715
9.96 0.347689
9.97 0.63224
9.98 0.942919
9.99 1.27822
10 1.63304
10.01 2.00104
10.02 2.37646
10.03 2.75129
10.04 3.11738
10.05 3.46686
10.06 3.79222
10.07 4.08326
10.08 4.33735
10.09 4.54165
10.1 4.69736
10.11 4.79748
10.12 4.83975
10.13 4.82737
10.14 4.75396
10.15 4.63045
10.16 4.45474
10.17 4.23589
10.18 3.97982
10.19 3.69226
10.2 3.38377
10.21 3.05997
10.22 2.73076
10.23 2.4031
10.24 2.08459
10.25 1.78019
10.26 1.49771
10.27 1.2379
10.28 1.00637
10.29 0.802823
10.3 0.627517
10.31 0.481375
10.32 0.359503
10.33 0.262867
10.34 0.185052
10.35 0.123855
10.36 0.0750522
10.37 0.0343628
10.38 -0.00128995
10.39 -0.0357702
10.4 -0.071829
10.41 -0.111725
10.42 -0.156963
10.43 -0.208984
10.44 -0.267336
10.45 -0.332742
10.46 -0.403529
10.47 -0.478899
10.48 -0.557172
10.49 -0.636583
10.5 -0.715172
10.51 -0.791291
10.52 -0.862854
10.53 -0.92853
10.54 -0.98711
10.55 -1.03699
10.56 -1.0785
10.57 -1.1099
10.58 -1.13238
10.59 -1.14555
10.6 -1.14993
10.61 -1.14672
10.62 -1.13582
10.63 -1.11919
10.64 -1.09716
10.65 -1.07111
10.66 -1.04195
10.67 -1.01049
10.68 -0.977747
10.69 -0.944308
10.7 -0.910878
10.71 -0.877948
10.72 -0.845966
10.73 -0.815162
10.74 -0.785994
10.75 -0.758431
10.76 -0.732848
10.77 -0.709284
10.78 -0.687884
10.79 -0.668986
10.8 -0.652486
10.81 -0.639011
10.82 -0.628433
10.83 -0.621203
10.84 -0.617614
10.85 -0.617661
10.86 -0.622128
10.87 -0.630586
10.88 -0.643665
10.89 -0.661117
10.9 -0.682884
10.91 -0.70906
10.92 -0.738875
10.93 -0.772418
10.94 -0.80865
10.95 -0.84708
10.96 -0.886831
10.97 -0.927012
10.98 -0.966603
10.99 -1.00477
11 -1.04039
11.01 -1.07273
11.02 -1.1011
11.03 -1.12459
11.04 -1.14338
11.05 -1.15656
11.06 -1.16487
11.07 -1.1683
11.08 -1.16743
11.09 -1.16322
11.1 -1.15623
11.11 -1.14783
11.12 -1.1389
11.13 -1.13053
11.14 -1.12354
11.15 -1.11878
11.16 -1.11637
11.17 -1.11672
11.18 -1.11912
11.19 -1.12293
11.2 -1.12678
11.21 -1.12916
11.22 -1.12746
11.23 -1.11994
11.24 -1.10319
11.25 -1.07488
11.26 -1.03252
11.27 -0.972257
11.28 -0.894066
11.29 -0.793124
11.3 -0.671031
11.31 -0.525933
11.32 -0.358182
11.33 -0.170397
11.34 0.0378706
11.35 0.260927
11.36 0.496759
11.37 0.739909
11.38 0.98573
11.39 1.22838
11.4 1.46316
11.41 1.68265
11.42 1.88336
11.43 2.05936
11.44 2.20594
11.45 2.32201
11.46 2.40029
11.47 2.44461
11.48 2.45035
11.49 2.42055
11.5 2.35685
11.51 2.25981
11.52 2.13629
11.53 1.98664
11.54 1.81863
11.55 1.63575
11.56 1.44336
11.57 1.24649
11.58 1.04977
11.59 0.857145
11.6 0.672748
11.61 0.499116
11.62 0.338224
11.63 0.192562
11.64 0.0610457
11.65 -0.0540798
11.66 -0.155407
11.67 -0.243092
11.68 -0.318722
11.69 -0.384698
11.7 -0.441782
11.71 -0.493019
11.72 -0.539487
11.73 -0.583105
11.74 -0.625053
11.75 -0.666248
11.76 -0.707274
11.77 -0.748281
11.78 -0.789054
11.79 -0.829043
11.8 -0.86732
11.81 -0.903033
11.82 -0.934376
11.83 -0.960661
11.84 -0.979854
11.85 -0.990966
11.86 -0.992867
11.87 -0.983661
11.88 -0.963773
11.89 -0.930763
11.9 -0.885788
11.91 -0.827936
11.92 -0.757327
11.93 -0.675248
11.94 -0.580889
11.95 -0.47696
11.96 -0.363616
11.97 -0.243055
11.98 -0.116963
11.99 0.0128327
12 0.143952
12.01 0.274093
12.02 0.401007
12.03 0.522211
12.04 0.635146
12.05 0.738394
12.06 0.828196
12.07 0.904701
12.08 0.964747
12.09 1.00811
12.1 1.03418
12.11 1.04138
12.12 1.03199
12.13 1.00411
12.14 0.961075
12.15 0.903358
12.16 0.832977
12.17 0.752794
12.18 0.664159
12.19 0.570697
12.2 0.474416
12.21 0.378071
12.22 0.283762
12.23 0.193865
12.24 0.109363
12.25 0.0324318
12.26 -0.0370865
12.27 -0.0984598
12.28 -0.151851
12.29 -0.198357
12.3 -0.238067
12.31 -0.273111
12.32 -0.304344
12.33 -0.333526
12.34 -0.361984
12.35 -0.391085
12.36 -0.421691
12.37 -0.454807
12.38 -0.49044
12.39 -0.528635
12.4 -0.568807
