# xPDFsuite Configuration #
[PDF]
wavelength = 0.1432
dataformat = twotheta
inputfile = 1_1Pd_CeO2_cycle-00152.chi
backgroundfile = background-00000.chi
mode = xray
bgscale = 1.007
composition = CeO2
outputtype = gr
qmaxinst = 28.8974762299
qmin = 0.5
qmax = 27.9
rmax = 50.0
rmin = 0.0
rstep = 0.01
rpoly = 1.8657

[Misc]
inputdir = G:/SankarDec16/1Pd/Chi
savedir = D:/DATA/APS_CeO2/1Pd
backgroundfilefull = G:/SankarDec16/Background/background-00000.chi

#### start data
#S 1
#L r($\AA$)  G($\AA^{-2}$)
0 0
0.01 -0.00767876
0.02 -0.0147781
0.03 -0.0207016
0.04 -0.025
0.05 -0.0274236
0.06 -0.0275713
0.07 -0.025711
0.08 -0.0217148
0.09 -0.0160942
0.1 -0.00920354
0.11 -0.00158479
0.12 0.00617203
0.13 0.013404
0.14 0.0196433
0.15 0.024316
0.16 0.0270875
0.17 0.027825
0.18 0.026257
0.19 0.0227789
0.2 0.017409
0.21 0.0107444
0.22 0.00322685
0.23 -0.00453465
0.24 -0.0119854
0.25 -0.0184113
0.26 -0.0234785
0.27 -0.0266641
0.28 -0.0277641
0.29 -0.0267697
0.3 -0.0235522
0.31 -0.0186157
0.32 -0.0121241
0.33 -0.00473167
0.34 0.00305398
0.35 0.010586
0.36 0.0173723
0.37 0.0226821
0.38 0.0263322
0.39 0.0278763
0.4 0.0272513
0.41 0.0245732
0.42 0.0198636
0.43 0.0137105
0.44 0.00641617
0.45 -0.00133939
0.46 -0.00900745
0.47 -0.0159343
0.48 -0.0217148
0.49 -0.0256373
0.5 -0.0276785
0.51 -0.0274912
0.52 -0.025157
0.53 -0.0209117
0.54 -0.0149266
0.55 -0.00784596
0.56 -9.60013e-05
0.57 0.00765021
0.58 0.0148297
0.59 0.0208134
0.6 0.0253037
0.61 0.0276428
0.62 0.0279696
0.63 0.0260535
0.64 0.0221175
0.65 0.0165065
0.66 0.0095346
0.67 0.00187076
0.68 -0.00595498
0.69 -0.0133089
0.7 -0.0196417
0.71 -0.0243791
0.72 -0.0273466
0.73 -0.0279724
0.74 -0.0265511
0.75 -0.0229803
0.76 -0.0176139
0.77 -0.0108887
0.78 -0.00324554
0.79 0.00465502
0.8 0.012207
0.81 0.018848
0.82 0.0240712
0.83 0.0273878
0.84 0.0287553
0.85 0.0277198
0.86 0.0247161
0.87 0.0197762
0.88 0.0133661
0.89 0.00599029
0.9 -0.00180874
0.91 -0.00941787
0.92 -0.0161937
0.93 -0.021682
0.94 -0.025456
0.95 -0.027152
0.96 -0.0268714
0.97 -0.0243289
0.98 -0.0200818
0.99 -0.0143198
1 -0.00761132
1.01 -0.000509927
1.02 0.0063415
1.03 0.0124231
1.04 0.0170663
1.05 0.0199693
1.06 0.0208155
1.07 0.0194047
1.08 0.016015
1.09 0.010577
1.1 0.00379673
1.11 -0.00393059
1.12 -0.0118957
1.13 -0.0194646
1.14 -0.0258199
1.15 -0.0305277
1.16 -0.0327993
1.17 -0.0324669
1.18 -0.0292622
1.19 -0.0230739
1.2 -0.0143691
1.21 -0.00315319
1.22 0.00964589
1.23 0.0235029
1.24 0.0375409
1.25 0.0509955
1.26 0.0628762
1.27 0.0726795
1.28 0.0794391
1.29 0.0829363
1.3 0.0827956
1.31 0.0787779
1.32 0.0713629
1.33 0.060306
1.34 0.046623
1.35 0.0306597
1.36 0.0132561
1.37 -0.00482402
1.38 -0.0227612
1.39 -0.0398731
1.4 -0.0553333
1.41 -0.0687152
1.42 -0.0795578
1.43 -0.0874584
1.44 -0.0925923
1.45 -0.0944885
1.46 -0.0937646
1.47 -0.0903938
1.48 -0.0847901
1.49 -0.0773689
1.5 -0.0683645
1.51 -0.0583262
1.52 -0.0474735
1.53 -0.0361908
1.54 -0.0247049
1.55 -0.0132379
1.56 -0.00193705
1.57 0.00900968
1.58 0.0195331
1.59 0.0294689
1.6 0.0386854
1.61 0.0470624
1.62 0.0542909
1.63 0.0603107
1.64 0.0646968
1.65 0.0673396
1.66 0.0679665
1.67 0.0662785
1.68 0.062378
1.69 0.0558097
1.7 0.047012
1.71 0.0359208
1.72 0.0229048
1.73 0.00840661
1.74 -0.00715599
1.75 -0.0230913
1.76 -0.0387687
1.77 -0.0535355
1.78 -0.0667786
1.79 -0.0778328
1.8 -0.0865305
1.81 -0.0921411
1.82 -0.095027
1.83 -0.0950167
1.84 -0.0925079
1.85 -0.0880346
1.86 -0.0821014
1.87 -0.0755955
1.88 -0.0692941
1.89 -0.0640158
1.9 -0.0604978
1.91 -0.0595092
1.92 -0.0612108
1.93 -0.0663522
1.94 -0.0744207
1.95 -0.0854442
1.96 -0.0987863
1.97 -0.113675
1.98 -0.129218
1.99 -0.144334
2 -0.157766
2.01 -0.168511
2.02 -0.175525
2.03 -0.177691
2.04 -0.174899
2.05 -0.165824
2.06 -0.151278
2.07 -0.1309
2.08 -0.10534
2.09 -0.0754402
2.1 -0.0417323
2.11 -0.00564747
2.12 0.0320355
2.13 0.0701359
2.14 0.107825
2.15 0.144298
2.16 0.179245
2.17 0.212154
2.18 0.243378
2.19 0.27306
2.2 0.3018
2.21 0.330245
2.22 0.359206
2.23 0.389292
2.24 0.421298
2.25 0.455466
2.26 0.491962
2.27 0.530625
2.28 0.570702
2.29 0.611301
2.3 0.651009
2.31 0.688111
2.32 0.720662
2.33 0.747044
2.34 0.764344
2.35 0.772034
2.36 0.767184
2.37 0.749765
2.38 0.71891
2.39 0.6741
2.4 0.617321
2.41 0.547981
2.42 0.469794
2.43 0.384272
2.44 0.294635
2.45 0.203854
2.46 0.115392
2.47 0.0318296
2.48 -0.0432135
2.49 -0.108061
2.5 -0.16079
2.51 -0.199711
2.52 -0.225908
2.53 -0.23767
2.54 -0.238259
2.55 -0.228384
2.56 -0.210843
2.57 -0.188442
2.58 -0.16396
2.59 -0.140409
2.6 -0.120792
2.61 -0.107191
2.62 -0.101466
2.63 -0.105249
2.64 -0.118006
2.65 -0.140996
2.66 -0.171772
2.67 -0.20953
2.68 -0.251865
2.69 -0.29639
2.7 -0.340439
2.71 -0.381705
2.72 -0.417389
2.73 -0.446028
2.74 -0.466183
2.75 -0.47672
2.76 -0.47859
2.77 -0.471066
2.78 -0.456819
2.79 -0.43703
2.8 -0.414261
2.81 -0.390901
2.82 -0.369746
2.83 -0.352732
2.84 -0.342552
2.85 -0.340178
2.86 -0.346637
2.87 -0.362512
2.88 -0.386388
2.89 -0.418257
2.9 -0.455156
2.91 -0.495313
2.92 -0.535851
2.93 -0.574285
2.94 -0.607398
2.95 -0.633698
2.96 -0.650312
2.97 -0.656826
2.98 -0.652548
2.99 -0.637354
3 -0.613299
3.01 -0.580882
3.02 -0.543647
3.03 -0.50386
3.04 -0.464803
3.05 -0.429175
3.06 -0.400524
3.07 -0.380148
3.08 -0.371003
3.09 -0.373136
3.1 -0.386956
3.11 -0.412191
3.12 -0.446347
3.13 -0.488456
3.14 -0.534659
3.15 -0.582335
3.16 -0.628032
3.17 -0.669068
3.18 -0.70188
3.19 -0.725583
3.2 -0.737551
3.21 -0.738342
3.22 -0.728161
3.23 -0.708088
3.24 -0.681103
3.25 -0.649303
3.26 -0.616677
3.27 -0.586605
3.28 -0.562751
3.29 -0.547687
3.3 -0.545289
3.31 -0.555515
3.32 -0.580854
3.33 -0.61966
3.34 -0.670901
3.35 -0.732425
3.36 -0.800248
3.37 -0.870974
3.38 -0.939944
3.39 -1.00275
3.4 -1.05518
3.41 -1.09453
3.42 -1.11636
3.43 -1.12157
3.44 -1.10768
3.45 -1.07745
3.46 -1.03276
3.47 -0.976899
3.48 -0.914946
3.49 -0.851563
3.5 -0.792093
3.51 -0.741754
3.52 -0.704966
3.53 -0.684076
3.54 -0.682956
3.55 -0.699098
3.56 -0.732904
3.57 -0.778924
3.58 -0.832051
3.59 -0.884374
3.6 -0.928124
3.61 -0.95076
3.62 -0.945308
3.63 -0.89949
3.64 -0.804474
3.65 -0.655556
3.66 -0.440162
3.67 -0.164053
3.68 0.181238
3.69 0.586894
3.7 1.04855
3.71 1.55863
3.72 2.10157
3.73 2.66686
3.74 3.23548
3.75 3.79107
3.76 4.31521
3.77 4.79389
3.78 5.20395
3.79 5.54135
3.8 5.7845
3.81 5.93293
3.82 5.9803
3.83 5.92105
3.84 5.7685
3.85 5.51375
3.86 5.18067
3.87 4.77387
3.88 4.31022
3.89 3.80653
3.9 3.27673
3.91 2.73955
3.92 2.21027
3.93 1.70283
3.94 1.22906
3.95 0.801391
3.96 0.421525
3.97 0.102682
3.98 -0.162157
3.99 -0.368929
4 -0.522296
4.01 -0.629347
4.02 -0.692143
4.03 -0.723543
4.04 -0.727656
4.05 -0.714944
4.06 -0.692042
4.07 -0.665808
4.08 -0.641497
4.09 -0.624164
4.1 -0.615518
4.11 -0.617637
4.12 -0.630334
4.13 -0.652127
4.14 -0.681807
4.15 -0.715852
4.16 -0.751691
4.17 -0.785969
4.18 -0.815892
4.19 -0.838399
4.2 -0.852405
4.21 -0.854829
4.22 -0.846559
4.23 -0.826526
4.24 -0.795494
4.25 -0.754861
4.26 -0.705013
4.27 -0.648611
4.28 -0.586456
4.29 -0.52061
4.3 -0.452271
4.31 -0.38254
4.32 -0.312273
4.33 -0.241925
4.34 -0.171704
4.35 -0.101595
4.36 -0.0314297
4.37 0.0389674
4.38 0.109768
4.39 0.180887
4.4 0.252074
4.41 0.322723
4.42 0.391975
4.43 0.458403
4.44 0.520953
4.45 0.577013
4.46 0.625678
4.47 0.66449
4.48 0.691802
4.49 0.70683
4.5 0.706864
4.51 0.693263
4.52 0.664064
4.53 0.620994
4.54 0.564722
4.55 0.496309
4.56 0.418774
4.57 0.333205
4.58 0.243262
4.59 0.151138
4.6 0.0596838
4.61 -0.0289228
4.62 -0.111916
4.63 -0.188403
4.64 -0.256198
4.65 -0.315241
4.66 -0.36516
4.67 -0.405817
4.68 -0.438796
4.69 -0.463984
4.7 -0.483761
4.71 -0.499044
4.72 -0.511495
4.73 -0.522509
4.74 -0.533299
4.75 -0.544808
4.76 -0.557836
4.77 -0.572633
4.78 -0.589275
4.79 -0.607597
4.8 -0.627014
4.81 -0.647006
4.82 -0.666787
4.83 -0.685635
4.84 -0.702861
4.85 -0.718058
4.86 -0.730578
4.87 -0.740626
4.88 -0.747932
4.89 -0.752986
4.9 -0.756145
4.91 -0.757926
4.92 -0.759025
4.93 -0.760035
4.94 -0.761532
4.95 -0.764011
4.96 -0.767798
4.97 -0.772965
4.98 -0.779643
4.99 -0.787444
5 -0.79616
5.01 -0.805262
5.02 -0.8143
5.03 -0.822737
5.04 -0.830265
5.05 -0.836386
5.06 -0.841147
5.07 -0.844445
5.08 -0.846502
5.09 -0.847674
5.1 -0.848342
5.11 -0.849013
5.12 -0.850141
5.13 -0.852016
5.14 -0.854761
5.15 -0.858249
5.16 -0.861971
5.17 -0.864996
5.18 -0.866193
5.19 -0.863843
5.2 -0.855966
5.21 -0.840925
5.22 -0.81534
5.23 -0.778559
5.24 -0.727029
5.25 -0.660253
5.26 -0.57694
5.27 -0.475764
5.28 -0.358848
5.29 -0.224812
5.3 -0.0780098
5.31 0.0799065
5.32 0.24485
5.33 0.412605
5.34 0.578085
5.35 0.736818
5.36 0.882559
5.37 1.01121
5.38 1.11827
5.39 1.19836
5.4 1.25158
5.41 1.27111
5.42 1.26074
5.43 1.21817
5.44 1.14554
5.45 1.04672
5.46 0.922588
5.47 0.780656
5.48 0.623759
5.49 0.458613
5.5 0.290159
5.51 0.124068
5.52 -0.035549
5.53 -0.182824
5.54 -0.31606
5.55 -0.431612
5.56 -0.528115
5.57 -0.606027
5.58 -0.663508
5.59 -0.704403
5.6 -0.728475
5.61 -0.739514
5.62 -0.73982
5.63 -0.731925
5.64 -0.719083
5.65 -0.703152
5.66 -0.686488
5.67 -0.670392
5.68 -0.655743
5.69 -0.642673
5.7 -0.630989
5.71 -0.619729
5.72 -0.607705
5.73 -0.593509
5.74 -0.575727
5.75 -0.552641
5.76 -0.523783
5.77 -0.487328
5.78 -0.444045
5.79 -0.393613
5.8 -0.33704
5.81 -0.275879
5.82 -0.211674
5.83 -0.146935
5.84 -0.0841729
5.85 -0.0259031
5.86 0.0254616
5.87 0.0670202
5.88 0.0980678
5.89 0.11521
5.9 0.119495
5.91 0.109599
5.92 0.0861758
5.93 0.0508394
5.94 0.00388907
5.95 -0.0512494
5.96 -0.113267
5.97 -0.179082
5.98 -0.246452
5.99 -0.312882
6 -0.376635
6.01 -0.435399
6.02 -0.48869
6.03 -0.535407
6.04 -0.575497
6.05 -0.609621
6.06 -0.637925
6.07 -0.66223
6.08 -0.683387
6.09 -0.703102
6.1 -0.72263
6.11 -0.743301
6.12 -0.765839
6.13 -0.791227
6.14 -0.819267
6.15 -0.849978
6.16 -0.882679
6.17 -0.916436
6.18 -0.950055
6.19 -0.982324
6.2 -1.01169
6.21 -1.03712
6.22 -1.05761
6.23 -1.07215
6.24 -1.08107
6.25 -1.08356
6.26 -1.081
6.27 -1.07383
6.28 -1.06339
6.29 -1.05105
6.3 -1.03814
6.31 -1.02588
6.32 -1.01533
6.33 -1.0068
6.34 -1.00019
6.35 -0.994611
6.36 -0.988464
6.37 -0.978876
6.38 -0.963091
6.39 -0.936801
6.4 -0.895403
6.41 -0.835458
6.42 -0.749246
6.43 -0.636012
6.44 -0.488073
6.45 -0.3048
6.46 -0.083816
6.47 0.177701
6.48 0.474757
6.49 0.810551
6.5 1.17574
6.51 1.56718
6.52 1.97664
6.53 2.39537
6.54 2.81354
6.55 3.22141
6.56 3.60653
6.57 3.95964
6.58 4.27097
6.59 4.52816
6.6 4.72995
6.61 4.86023
6.62 4.9245
6.63 4.91531
6.64 4.8338
6.65 4.68599
6.66 4.46865
6.67 4.19714
6.68 3.87275
6.69 3.5092
6.7 3.1156
6.71 2.70236
6.72 2.28135
6.73 1.86318
6.74 1.45723
6.75 1.073
6.76 0.718248
6.77 0.396721
6.78 0.117448
6.79 -0.122839
6.8 -0.318155
6.81 -0.472603
6.82 -0.587638
6.83 -0.664692
6.84 -0.711512
6.85 -0.728381
6.86 -0.724336
6.87 -0.702587
6.88 -0.668639
6.89 -0.627222
6.9 -0.581868
6.91 -0.536172
6.92 -0.492675
6.93 -0.453036
6.94 -0.418281
6.95 -0.389172
6.96 -0.365055
6.97 -0.346281
6.98 -0.331487
6.99 -0.32029
7 -0.311902
7.01 -0.30568
7.02 -0.30154
7.03 -0.299159
7.04 -0.299015
7.05 -0.30145
7.06 -0.307139
7.07 -0.31717
7.08 -0.331845
7.09 -0.352812
7.1 -0.379841
7.11 -0.413772
7.12 -0.454557
7.13 -0.501513
7.14 -0.554597
7.15 -0.611932
7.16 -0.672578
7.17 -0.734516
7.18 -0.796014
7.19 -0.854903
7.2 -0.909776
7.21 -0.958072
7.22 -0.999278
7.23 -1.03185
7.24 -1.05527
7.25 -1.06998
7.26 -1.07536
7.27 -1.07351
7.28 -1.06482
7.29 -1.05147
7.3 -1.03506
7.31 -1.01749
7.32 -1.00046
7.33 -0.985781
7.34 -0.974308
7.35 -0.966979
7.36 -0.963929
7.37 -0.964541
7.38 -0.968127
7.39 -0.972784
7.4 -0.976501
7.41 -0.976791
7.42 -0.9711
7.43 -0.955989
7.44 -0.930028
7.45 -0.888679
7.46 -0.831973
7.47 -0.757288
7.48 -0.664002
7.49 -0.55319
7.5 -0.423568
7.51 -0.279278
7.52 -0.120979
7.53 0.0469947
7.54 0.221237
7.55 0.397443
7.56 0.571396
7.57 0.737661
7.58 0.89288
7.59 1.03222
7.6 1.15195
7.61 1.25046
7.62 1.32242
7.63 1.37003
7.64 1.38949
7.65 1.38308
7.66 1.35148
7.67 1.29521
7.68 1.21903
7.69 1.1229
7.7 1.0127
7.71 0.890691
7.72 0.760874
7.73 0.626924
7.74 0.492223
7.75 0.359897
7.76 0.233215
7.77 0.114358
7.78 0.00532763
7.79 -0.0914703
7.8 -0.176248
7.81 -0.246114
7.82 -0.302611
7.83 -0.344619
7.84 -0.37255
7.85 -0.3877
7.86 -0.38932
7.87 -0.380215
7.88 -0.360267
7.89 -0.33172
7.9 -0.295954
7.91 -0.254439
7.92 -0.209425
7.93 -0.162457
7.94 -0.115727
7.95 -0.0711381
7.96 -0.0307368
7.97 0.00408088
7.98 0.0306905
7.99 0.0488337
8 0.0562158
8.01 0.0527409
8.02 0.0378986
8.03 0.0109739
8.04 -0.0263857
8.05 -0.0749943
8.06 -0.132177
8.07 -0.1971
8.08 -0.267712
8.09 -0.34185
8.1 -0.417548
8.11 -0.492587
8.12 -0.564831
8.13 -0.632645
8.14 -0.694656
8.15 -0.749359
8.16 -0.796997
8.17 -0.836257
8.18 -0.868552
8.19 -0.894043
8.2 -0.91393
8.21 -0.929697
8.22 -0.942389
8.23 -0.953708
8.24 -0.964684
8.25 -0.976225
8.26 -0.98871
8.27 -1.00204
8.28 -1.01543
8.29 -1.02733
8.3 -1.03588
8.31 -1.03829
8.32 -1.03125
8.33 -1.01225
8.34 -0.975639
8.35 -0.920488
8.36 -0.84109
8.37 -0.736322
8.38 -0.604144
8.39 -0.441686
8.4 -0.252184
8.41 -0.0324562
8.42 0.211222
8.43 0.477243
8.44 0.760334
8.45 1.05432
8.46 1.35311
8.47 1.64922
8.48 1.93452
8.49 2.20184
8.5 2.44424
8.51 2.65266
8.52 2.82537
8.53 2.95109
8.54 3.03231
8.55 3.06354
8.56 3.04443
8.57 2.97877
8.58 2.86309
8.59 2.70777
8.6 2.51287
8.61 2.28736
8.62 2.03726
8.63 1.76907
8.64 1.49135
8.65 1.21061
8.66 0.93405
8.67 0.667952
8.68 0.41807
8.69 0.187407
8.7 -0.017684
8.71 -0.198608
8.72 -0.35119
8.73 -0.477411
8.74 -0.578033
8.75 -0.653524
8.76 -0.70888
8.77 -0.744166
8.78 -0.76528
8.79 -0.774471
8.8 -0.775502
8.81 -0.771758
8.82 -0.7659
8.83 -0.760553
8.84 -0.7578
8.85 -0.758957
8.86 -0.764885
8.87 -0.776323
8.88 -0.792619
8.89 -0.814065
8.9 -0.839244
8.91 -0.867498
8.92 -0.897622
8.93 -0.928482
8.94 -0.958931
8.95 -0.988096
8.96 -1.01498
8.97 -1.0391
8.98 -1.06007
8.99 -1.07752
9 -1.09185
9.01 -1.10279
9.02 -1.11114
9.03 -1.11713
9.04 -1.1213
9.05 -1.12421
9.06 -1.12617
9.07 -1.12762
9.08 -1.12869
9.09 -1.12944
9.1 -1.12971
9.11 -1.12911
9.12 -1.12728
9.13 -1.12328
9.14 -1.11663
9.15 -1.10632
9.16 -1.09141
9.17 -1.07144
9.18 -1.04488
9.19 -1.01205
9.2 -0.971742
9.21 -0.924297
9.22 -0.869786
9.23 -0.808225
9.24 -0.741039
9.25 -0.668455
9.26 -0.592475
9.27 -0.514348
9.28 -0.435982
9.29 -0.359083
9.3 -0.286061
9.31 -0.218204
9.32 -0.158015
9.33 -0.106648
9.34 -0.0653768
9.35 -0.035948
9.36 -0.0176118
9.37 -0.0123641
9.38 -0.0182662
9.39 -0.0354527
9.4 -0.0626554
9.41 -0.0979165
9.42 -0.140292
9.43 -0.186907
9.44 -0.236131
9.45 -0.285574
9.46 -0.333356
9.47 -0.377322
9.48 -0.416481
9.49 -0.448714
9.5 -0.474111
9.51 -0.491834
9.52 -0.502012
9.53 -0.505573
9.54 -0.502635
9.55 -0.495239
9.56 -0.484292
9.57 -0.471669
9.58 -0.458851
9.59 -0.447534
9.6 -0.4388
9.61 -0.434329
9.62 -0.434414
9.63 -0.439862
9.64 -0.450808
9.65 -0.466735
9.66 -0.487753
9.67 -0.512449
9.68 -0.540341
9.69 -0.570157
9.7 -0.600958
9.71 -0.631753
9.72 -0.661821
9.73 -0.690381
9.74 -0.71726
9.75 -0.742215
9.76 -0.765337
9.77 -0.786957
9.78 -0.807233
9.79 -0.82664
9.8 -0.845254
9.81 -0.863063
9.82 -0.879691
9.83 -0.894118
9.84 -0.905359
9.85 -0.910775
9.86 -0.908626
9.87 -0.895493
9.88 -0.867722
9.89 -0.822924
9.9 -0.754401
9.91 -0.661853
9.92 -0.538727
9.93 -0.383999
9.94 -0.195605
9.95 0.0299659
9.96 0.288647
9.97 0.584387
9.98 0.909885
9.99 1.26339
10 1.63898
10.01 2.02931
10.02 2.42764
10.03 2.82477
10.04 3.21131
10.05 3.57833
10.06 3.91742
10.07 4.21724
10.08 4.47515
10.09 4.67719
10.1 4.82528
10.11 4.91231
10.12 4.93663
10.13 4.90247
10.14 4.80406
10.15 4.65389
10.16 4.45093
10.17 4.20558
10.18 3.92488
10.19 3.61587
10.2 3.28956
10.21 2.95288
10.22 2.61549
10.23 2.28478
10.24 1.96815
10.25 1.66983
10.26 1.39748
10.27 1.15045
10.28 0.933729
10.29 0.745805
10.3 0.586025
10.31 0.454272
10.32 0.345065
10.33 0.258425
10.34 0.187885
10.35 0.130902
10.36 0.0833443
10.37 0.0413877
10.38 0.00215512
10.39 -0.0373027
10.4 -0.079183
10.41 -0.124915
10.42 -0.175344
10.43 -0.231168
10.44 -0.291643
10.45 -0.356868
10.46 -0.425338
10.47 -0.49619
10.48 -0.568058
10.49 -0.639714
10.5 -0.709701
10.51 -0.777157
10.52 -0.840744
10.53 -0.899836
10.54 -0.953817
10.55 -1.00178
10.56 -1.04407
10.57 -1.07951
10.58 -1.10879
10.59 -1.13139
10.6 -1.14726
10.61 -1.15681
10.62 -1.15917
10.63 -1.15535
10.64 -1.14466
10.65 -1.12768
10.66 -1.10459
10.67 -1.07535
10.68 -1.04106
10.69 -1.00159
10.7 -0.958353
10.71 -0.911976
10.72 -0.863629
10.73 -0.814518
10.74 -0.766004
10.75 -0.719268
10.76 -0.675874
10.77 -0.636913
10.78 -0.603423
10.79 -0.576837
10.8 -0.557051
10.81 -0.545684
10.82 -0.541902
10.83 -0.546155
10.84 -0.558063
10.85 -0.576581
10.86 -0.601708
10.87 -0.63158
10.88 -0.665658
10.89 -0.702455
10.9 -0.740884
10.91 -0.779804
10.92 -0.818228
10.93 -0.855093
10.94 -0.889866
10.95 -0.921883
10.96 -0.950756
10.97 -0.976532
10.98 -0.998758
10.99 -1.01805
11 -1.03429
11.01 -1.04802
11.02 -1.05958
11.03 -1.06927
11.04 -1.07769
11.05 -1.08504
11.06 -1.09183
11.07 -1.09829
11.08 -1.10473
11.09 -1.11133
11.1 -1.11829
11.11 -1.12567
11.12 -1.13354
11.13 -1.14182
11.14 -1.15039
11.15 -1.15901
11.16 -1.16732
11.17 -1.17469
11.18 -1.18054
11.19 -1.18388
11.2 -1.18351
11.21 -1.17849
11.22 -1.16644
11.23 -1.14669
11.24 -1.11645
11.25 -1.07437
11.26 -1.01872
11.27 -0.946567
11.28 -0.858294
11.29 -0.749912
11.3 -0.622999
11.31 -0.475968
11.32 -0.309068
11.33 -0.124477
11.34 0.0784239
11.35 0.294776
11.36 0.523046
11.37 0.75852
11.38 0.997136
11.39 1.23372
11.4 1.46385
11.41 1.6807
11.42 1.88068
11.43 2.05797
11.44 2.2077
11.45 2.32833
11.46 2.4123
11.47 2.46277
11.48 2.47459
11.49 2.45019
11.5 2.39072
11.51 2.29612
11.52 2.17316
11.53 2.02164
11.54 1.84958
11.55 1.6604
11.56 1.45973
11.57 1.25311
11.58 1.04549
11.59 0.841522
11.6 0.645923
11.61 0.461854
11.62 0.291816
11.63 0.138944
11.64 0.00229165
11.65 -0.115279
11.66 -0.216569
11.67 -0.301601
11.68 -0.372144
11.69 -0.431038
11.7 -0.479235
11.71 -0.520505
11.72 -0.556351
11.73 -0.589321
11.74 -0.6211
11.75 -0.653194
11.76 -0.68645
11.77 -0.721591
11.78 -0.758385
11.79 -0.796495
11.8 -0.834976
11.81 -0.872712
11.82 -0.907895
11.83 -0.939285
11.84 -0.964632
11.85 -0.982463
11.86 -0.99127
11.87 -0.988732
11.88 -0.974974
11.89 -0.947135
11.9 -0.906249
11.91 -0.851169
11.92 -0.781915
11.93 -0.699853
11.94 -0.60404
11.95 -0.497497
11.96 -0.380401
11.97 -0.255227
11.98 -0.123866
11.99 0.0116363
12 0.148636
12.01 0.284607
12.02 0.417091
12.03 0.543401
12.04 0.660794
12.05 0.767766
12.06 0.860317
12.07 0.938646
12.08 0.999414
12.09 1.04242
12.1 1.06706
12.11 1.07169
12.12 1.05877
12.13 1.02633
12.14 0.977935
12.15 0.91415
12.16 0.837172
12.17 0.750084
12.18 0.654451
12.19 0.554148
12.2 0.451463
12.21 0.349399
12.22 0.250283
12.23 0.15681
12.24 0.0699963
12.25 -0.00762599
12.26 -0.0763283
12.27 -0.135271
12.28 -0.184681
12.29 -0.225889
12.3 -0.25904
12.31 -0.286715
12.32 -0.310016
12.33 -0.331139
12.34 -0.35178
12.35 -0.373779
12.36 -0.398265
12.37 -0.426766
12.38 -0.459384
12.39 -0.496443
12.4 -0.53747
12.41 -0.581313
