# xPDFsuite Configuration #
[PDF]
wavelength = 0.1432
dataformat = twotheta
inputfile = 1_1Pd_CeO2_cycle-00017.chi
backgroundfile = background-00000.chi
mode = xray
bgscale = 1.007
composition = CeO2
outputtype = gr
qmaxinst = 28.8974762299
qmin = 0.5
qmax = 27.9
rmax = 50.0
rmin = 0.0
rstep = 0.01
rpoly = 1.8657

[Misc]
inputdir = G:/SankarDec16/1Pd/Chi
savedir = D:/DATA/APS_CeO2/1Pd
backgroundfilefull = G:/SankarDec16/Background/background-00000.chi

#### start data
#S 1
#L r($\AA$)  G($\AA^{-2}$)
0 0
0.01 -0.00772683
0.02 -0.0148711
0.03 -0.0208332
0.04 -0.0251613
0.05 -0.0276042
0.06 -0.0277581
0.07 -0.0258922
0.08 -0.0218773
0.09 -0.0162271
0.1 -0.0092976
0.11 -0.0016331
0.12 0.00617304
0.13 0.0134547
0.14 0.0197408
0.15 0.0244541
0.16 0.027257
0.17 0.028015
0.18 0.0264538
0.19 0.0229699
0.2 0.01758
0.21 0.0108838
0.22 0.0033244
0.23 -0.0044865
0.24 -0.0119906
0.25 -0.0184703
0.26 -0.0235882
0.27 -0.0268174
0.28 -0.0279508
0.29 -0.0269777
0.3 -0.0237663
0.31 -0.0188218
0.32 -0.0123064
0.33 -0.00487721
0.34 0.0029563
0.35 0.0105443
0.36 0.0173905
0.37 0.02276
0.38 0.0264656
0.39 0.0280567
0.4 0.0274666
0.41 0.0248092
0.42 0.0201027
0.43 0.0139367
0.44 0.00661187
0.45 -0.00118831
0.46 -0.00891283
0.47 -0.0159042
0.48 -0.0217525
0.49 -0.0257411
0.5 -0.0278424
0.51 -0.027704
0.52 -0.0254039
0.53 -0.0211758
0.54 -0.0151875
0.55 -0.00808556
0.56 -0.000294948
0.57 0.00750688
0.58 0.0147539
0.59 0.0208123
0.6 0.0253791
0.61 0.0277905
0.62 0.0281806
0.63 0.0263132
0.64 0.0224077
0.65 0.0168072
0.66 0.00982239
0.67 0.00212561
0.68 -0.00575377
0.69 -0.0131766
0.7 -0.0195895
0.71 -0.0244125
0.72 -0.0274651
0.73 -0.0281685
0.74 -0.0268128
0.75 -0.0232894
0.76 -0.0179493
0.77 -0.0112281
0.78 -0.00356385
0.79 0.00437826
0.8 0.0119918
0.81 0.0187077
0.82 0.0240144
0.83 0.0274161
0.84 0.0288645
0.85 0.027898
0.86 0.024948
0.87 0.0200412
0.88 0.0136422
0.89 0.00625601
0.9 -0.00157465
0.91 -0.00923026
0.92 -0.0160633
0.93 -0.0216114
0.94 -0.0254401
0.95 -0.0271767
0.96 -0.026917
0.97 -0.0243649
0.98 -0.0200778
0.99 -0.01424
1 -0.00742171
1.01 -0.000180869
1.02 0.00683523
1.03 0.0130946
1.04 0.017918
1.05 0.020989
1.06 0.0219767
1.07 0.0206632
1.08 0.0173182
1.09 0.0118484
1.1 0.00496173
1.11 -0.00296078
1.12 -0.0112096
1.13 -0.0191456
1.14 -0.0259523
1.15 -0.031174
1.16 -0.0340138
1.17 -0.0342783
1.18 -0.0316783
1.19 -0.0260752
1.2 -0.0179147
1.21 -0.00716543
1.22 0.00525703
1.23 0.0188578
1.24 0.0327757
1.25 0.0462533
1.26 0.0583245
1.27 0.0684666
1.28 0.0757296
1.29 0.0798697
1.3 0.0805003
1.31 0.0773638
1.32 0.0709063
1.33 0.0608626
1.34 0.0482091
1.35 0.0332603
1.36 0.0168208
1.37 -0.000373086
1.38 -0.0175448
1.39 -0.0340214
1.4 -0.0490185
1.41 -0.0621112
1.42 -0.0728537
1.43 -0.080855
1.44 -0.086268
1.45 -0.0886415
1.46 -0.0885477
1.47 -0.085952
1.48 -0.0812335
1.49 -0.0747729
1.5 -0.0667702
1.51 -0.0577327
1.52 -0.0478371
1.53 -0.0374315
1.54 -0.0267062
1.55 -0.0158433
1.56 -0.00498216
1.57 0.00573958
1.58 0.016231
1.59 0.0263483
1.6 0.0359443
1.61 0.0448748
1.62 0.0528187
1.63 0.059662
1.64 0.0649506
1.65 0.06852
1.66 0.0700527
1.67 0.0691949
1.68 0.0660159
1.69 0.0599949
1.7 0.0515637
1.71 0.0406176
1.72 0.0275187
1.73 0.0127184
1.74 -0.00337518
1.75 -0.0200185
1.76 -0.0365688
1.77 -0.0523138
1.78 -0.0665967
1.79 -0.0786965
1.8 -0.088398
1.81 -0.0949074
1.82 -0.0985607
1.83 -0.0991417
1.84 -0.0970306
1.85 -0.0927623
1.86 -0.0868278
1.87 -0.0801599
1.88 -0.0735483
1.89 -0.0678693
1.9 -0.063905
1.91 -0.062482
1.92 -0.0638075
1.93 -0.0686963
1.94 -0.076656
1.95 -0.0877548
1.96 -0.101363
1.97 -0.116696
1.98 -0.132854
1.99 -0.148693
2 -0.162915
2.01 -0.174439
2.02 -0.182149
2.03 -0.184839
2.04 -0.182349
2.05 -0.173239
2.06 -0.158323
2.07 -0.137176
2.08 -0.11045
2.09 -0.0790248
2.1 -0.0434432
2.11 -0.00525069
2.12 0.0347037
2.13 0.075105
2.14 0.115004
2.15 0.153444
2.16 0.190024
2.17 0.224034
2.18 0.25581
2.19 0.28537
2.2 0.31329
2.21 0.34025
2.22 0.36703
2.23 0.394408
2.24 0.423233
2.25 0.453946
2.26 0.486872
2.27 0.522062
2.28 0.55893
2.29 0.596852
2.3 0.634508
2.31 0.670388
2.32 0.702639
2.33 0.729662
2.34 0.748659
2.35 0.758922
2.36 0.757543
2.37 0.74426
2.38 0.718045
2.39 0.678158
2.4 0.626337
2.41 0.561712
2.42 0.487791
2.43 0.405825
2.44 0.318846
2.45 0.229726
2.46 0.141709
2.47 0.057495
2.48 -0.0194242
2.49 -0.0871819
2.5 -0.143755
2.51 -0.187291
2.52 -0.218602
2.53 -0.235784
2.54 -0.241806
2.55 -0.237133
2.56 -0.224319
2.57 -0.206002
2.58 -0.184703
2.59 -0.163439
2.6 -0.145023
2.61 -0.131618
2.62 -0.1251
2.63 -0.127158
2.64 -0.13747
2.65 -0.157351
2.66 -0.184632
2.67 -0.218655
2.68 -0.257222
2.69 -0.298105
2.7 -0.33882
2.71 -0.377132
2.72 -0.410381
2.73 -0.437103
2.74 -0.455878
2.75 -0.465564
2.76 -0.467007
2.77 -0.459463
2.78 -0.445452
2.79 -0.426083
2.8 -0.403812
2.81 -0.380947
2.82 -0.36021
2.83 -0.343504
2.84 -0.33349
2.85 -0.331157
2.86 -0.33756
2.87 -0.353331
2.88 -0.377117
2.89 -0.408994
2.9 -0.446056
2.91 -0.486607
2.92 -0.527821
2.93 -0.567229
2.94 -0.601659
2.95 -0.629558
2.96 -0.648049
2.97 -0.656628
2.98 -0.654529
2.99 -0.641527
3 -0.619584
3.01 -0.589067
3.02 -0.553461
3.03 -0.514928
3.04 -0.4767
3.05 -0.441466
3.06 -0.412719
3.07 -0.391847
3.08 -0.381806
3.09 -0.382756
3.1 -0.395185
3.11 -0.418928
3.12 -0.451599
3.13 -0.492346
3.14 -0.537384
3.15 -0.584181
3.16 -0.62933
3.17 -0.670153
3.18 -0.703118
3.19 -0.727261
3.2 -0.739931
3.21 -0.741583
3.22 -0.732335
3.23 -0.713162
3.24 -0.686958
3.25 -0.655696
3.26 -0.623327
3.27 -0.59315
3.28 -0.56881
3.29 -0.552892
3.3 -0.549259
3.31 -0.557967
3.32 -0.581539
3.33 -0.61844
3.34 -0.667726
3.35 -0.727347
3.36 -0.793398
3.37 -0.862593
3.38 -0.930298
3.39 -0.992172
3.4 -1.044
3.41 -1.08307
3.42 -1.10495
3.43 -1.11044
3.44 -1.09703
3.45 -1.06741
3.46 -1.0234
3.47 -0.96822
3.48 -0.906915
3.49 -0.844116
3.5 -0.785172
3.51 -0.735315
3.52 -0.699009
3.53 -0.678651
3.54 -0.678198
3.55 -0.69519
3.56 -0.730128
3.57 -0.777594
3.58 -0.832523
3.59 -0.887028
3.6 -0.93328
3.61 -0.958728
3.62 -0.956258
3.63 -0.913484
3.64 -0.821409
3.65 -0.675176
3.66 -0.461977
3.67 -0.187471
3.68 0.157056
3.69 0.562849
3.7 1.02565
3.71 1.53796
3.72 2.0841
3.73 2.65363
3.74 3.22724
3.75 3.78846
3.76 4.31859
3.77 4.80337
3.78 5.2193
3.79 5.5621
3.8 5.80981
3.81 5.96178
3.82 6.01148
3.83 5.95311
3.84 5.80008
3.85 5.54329
3.86 5.20691
3.87 4.79558
3.88 4.32646
3.89 3.81665
3.9 3.28038
3.91 2.73673
3.92 2.20134
3.93 1.68843
3.94 1.21012
3.95 0.779107
3.96 0.397109
3.97 0.0776293
3.98 -0.186577
3.99 -0.391417
4 -0.541758
4.01 -0.64494
4.02 -0.703229
4.03 -0.729843
4.04 -0.729166
4.05 -0.711959
4.06 -0.685099
4.07 -0.655698
4.08 -0.629061
4.09 -0.610475
4.1 -0.601503
4.11 -0.604242
4.12 -0.61835
4.13 -0.642145
4.14 -0.674241
4.15 -0.710841
4.16 -0.749143
4.17 -0.785572
4.18 -0.817154
4.19 -0.840653
4.2 -0.854978
4.21 -0.856918
4.22 -0.847524
4.23 -0.825777
4.24 -0.792628
4.25 -0.749678
4.26 -0.697552
4.27 -0.639122
4.28 -0.575455
4.29 -0.50877
4.3 -0.440414
4.31 -0.371621
4.32 -0.303168
4.33 -0.235608
4.34 -0.168892
4.35 -0.102898
4.36 -0.0371969
4.37 0.0286398
4.38 0.0950935
4.39 0.162313
4.4 0.230378
4.41 0.298842
4.42 0.367015
4.43 0.433629
4.44 0.497515
4.45 0.556192
4.46 0.608445
4.47 0.651711
4.48 0.684059
4.49 0.704416
4.5 0.709767
4.51 0.701187
4.52 0.676386
4.53 0.6369
4.54 0.583216
4.55 0.516225
4.56 0.439035
4.57 0.352593
4.58 0.260842
4.59 0.166058
4.6 0.0713482
4.61 -0.0208537
4.62 -0.107519
4.63 -0.187503
4.64 -0.258349
4.65 -0.319839
4.66 -0.371462
4.67 -0.412968
4.68 -0.446024
4.69 -0.47046
4.7 -0.488897
4.71 -0.502367
4.72 -0.512766
4.73 -0.521706
4.74 -0.530648
4.75 -0.540696
4.76 -0.552871
4.77 -0.567486
4.78 -0.584675
4.79 -0.604283
4.8 -0.625568
4.81 -0.647936
4.82 -0.670329
4.83 -0.691809
4.84 -0.711408
4.85 -0.7285
4.86 -0.74211
4.87 -0.752372
4.88 -0.758764
4.89 -0.761807
4.9 -0.761864
4.91 -0.759524
4.92 -0.755759
4.93 -0.751333
4.94 -0.747218
4.95 -0.74424
4.96 -0.743116
4.97 -0.744211
4.98 -0.74812
4.99 -0.754522
5 -0.763578
5.01 -0.774699
5.02 -0.78744
5.03 -0.801204
5.04 -0.815302
5.05 -0.829086
5.06 -0.842057
5.07 -0.853734
5.08 -0.863836
5.09 -0.872325
5.1 -0.87902
5.11 -0.884264
5.12 -0.888043
5.13 -0.890637
5.14 -0.892098
5.15 -0.892288
5.16 -0.891083
5.17 -0.887622
5.18 -0.881375
5.19 -0.870983
5.2 -0.855
5.21 -0.832237
5.22 -0.799891
5.23 -0.757564
5.24 -0.702202
5.25 -0.633395
5.26 -0.549975
5.27 -0.450682
5.28 -0.337298
5.29 -0.208425
5.3 -0.0678326
5.31 0.0831546
5.32 0.240976
5.33 0.401868
5.34 0.561315
5.35 0.715131
5.36 0.857576
5.37 0.984681
5.38 1.09208
5.39 1.1745
5.4 1.23171
5.41 1.25692
5.42 1.25334
5.43 1.21834
5.44 1.15355
5.45 1.06236
5.46 0.94508
5.47 0.808892
5.48 0.656097
5.49 0.493251
5.5 0.325105
5.51 0.157184
5.52 -0.00610519
5.53 -0.158973
5.54 -0.299146
5.55 -0.422702
5.56 -0.527752
5.57 -0.614275
5.58 -0.679858
5.59 -0.727965
5.6 -0.757803
5.61 -0.772928
5.62 -0.775399
5.63 -0.767526
5.64 -0.752797
5.65 -0.732903
5.66 -0.710733
5.67 -0.687795
5.68 -0.665445
5.69 -0.644287
5.7 -0.624641
5.71 -0.605979
5.72 -0.587647
5.73 -0.568534
5.74 -0.547507
5.75 -0.523124
5.76 -0.494766
5.77 -0.460832
5.78 -0.421639
5.79 -0.376721
5.8 -0.32667
5.81 -0.272598
5.82 -0.21559
5.83 -0.1577
5.84 -0.100927
5.85 -0.0474461
5.86 0.000645941
5.87 0.040776
5.88 0.072151
5.89 0.0916736
5.9 0.0999959
5.91 0.0957204
5.92 0.0791334
5.93 0.0514302
5.94 0.0124999
5.95 -0.0347298
5.96 -0.0894546
5.97 -0.149003
5.98 -0.211509
5.99 -0.274892
6 -0.337416
6.01 -0.397193
6.02 -0.453422
6.03 -0.505046
6.04 -0.551733
6.05 -0.593763
6.06 -0.630986
6.07 -0.664662
6.08 -0.695196
6.09 -0.723793
6.1 -0.751273
6.11 -0.778464
6.12 -0.805938
6.13 -0.834137
6.14 -0.863016
6.15 -0.892395
6.16 -0.921718
6.17 -0.950329
6.18 -0.977143
6.19 -1.00152
6.2 -1.0222
6.21 -1.03871
6.22 -1.05048
6.23 -1.05702
6.24 -1.05899
6.25 -1.05613
6.26 -1.04992
6.27 -1.04109
6.28 -1.03106
6.29 -1.02106
6.3 -1.01251
6.31 -1.00615
6.32 -1.0029
6.33 -1.00257
6.34 -1.00464
6.35 -1.00776
6.36 -1.0099
6.37 -1.00762
6.38 -0.997928
6.39 -0.976083
6.4 -0.93725
6.41 -0.877959
6.42 -0.790203
6.43 -0.673582
6.44 -0.52034
6.45 -0.330258
6.46 -0.101246
6.47 0.16915
6.48 0.475464
6.49 0.820461
6.5 1.19438
6.51 1.59364
6.52 2.00965
6.53 2.43348
6.54 2.85488
6.55 3.26426
6.56 3.64893
6.57 3.99986
6.58 4.30742
6.59 4.55942
6.6 4.75501
6.61 4.87832
6.62 4.93531
6.63 4.91886
6.64 4.83047
6.65 4.67645
6.66 4.45393
6.67 4.17834
6.68 3.85123
6.69 3.48627
6.7 3.09258
6.71 2.68052
6.72 2.26171
6.73 1.84668
6.74 1.44447
6.75 1.06437
6.76 0.713873
6.77 0.396487
6.78 0.12099
6.79 -0.116004
6.8 -0.308706
6.81 -0.46125
6.82 -0.575124
6.83 -0.651776
6.84 -0.698812
6.85 -0.716506
6.86 -0.713687
6.87 -0.693464
6.88 -0.661189
6.89 -0.621465
6.9 -0.577703
6.91 -0.533431
6.92 -0.491118
6.93 -0.452423
6.94 -0.418385
6.95 -0.389802
6.96 -0.366102
6.97 -0.34771
6.98 -0.333353
6.99 -0.32273
7 -0.315125
7.01 -0.30992
7.02 -0.307077
7.03 -0.306219
7.04 -0.307794
7.05 -0.312041
7.06 -0.319531
7.07 -0.331203
7.08 -0.347247
7.09 -0.369108
7.1 -0.396489
7.11 -0.430085
7.12 -0.469779
7.13 -0.514904
7.14 -0.56534
7.15 -0.619387
7.16 -0.67614
7.17 -0.733792
7.18 -0.790789
7.19 -0.845196
7.2 -0.895812
7.21 -0.940374
7.22 -0.978512
7.23 -1.00891
7.24 -1.03119
7.25 -1.04584
7.26 -1.05237
7.27 -1.05271
7.28 -1.04728
7.29 -1.03801
7.3 -1.02635
7.31 -1.01395
7.32 -1.00226
7.33 -0.992797
7.34 -0.986193
7.35 -0.983136
7.36 -0.983558
7.37 -0.98676
7.38 -0.991841
7.39 -0.997023
7.4 -1.0002
7.41 -0.999068
7.42 -0.991184
7.43 -0.973262
7.44 -0.944117
7.45 -0.899387
7.46 -0.839331
7.47 -0.761508
7.48 -0.665463
7.49 -0.55235
7.5 -0.421023
7.51 -0.275559
7.52 -0.116656
7.53 0.0514733
7.54 0.225518
7.55 0.401302
7.56 0.574764
7.57 0.74062
7.58 0.895632
7.59 1.03508
7.6 1.15531
7.61 1.2547
7.62 1.32796
7.63 1.37718
7.64 1.39846
7.65 1.39394
7.66 1.36415
7.67 1.3094
7.68 1.23434
7.69 1.13869
7.7 1.0283
7.71 0.905301
7.72 0.773679
7.73 0.637182
7.74 0.499195
7.75 0.363078
7.76 0.232226
7.77 0.109081
7.78 -0.00413241
7.79 -0.104727
7.8 -0.192743
7.81 -0.264963
7.82 -0.32288
7.83 -0.365195
7.84 -0.392277
7.85 -0.405509
7.86 -0.404106
7.87 -0.391168
7.88 -0.366691
7.89 -0.333234
7.9 -0.292435
7.91 -0.246081
7.92 -0.196658
7.93 -0.146066
7.94 -0.0966068
7.95 -0.050405
7.96 -0.00959333
7.97 0.0244854
7.98 0.0491201
7.99 0.0643387
8 0.067916
8.01 0.0600627
8.02 0.0405116
8.03 0.00884114
8.04 -0.0330467
8.05 -0.0856441
8.06 -0.14613
8.07 -0.213459
8.08 -0.285474
8.09 -0.360038
8.1 -0.435094
8.11 -0.508661
8.12 -0.578653
8.13 -0.643699
8.14 -0.702632
8.15 -0.754198
8.16 -0.798858
8.17 -0.835564
8.18 -0.865849
8.19 -0.890041
8.2 -0.909404
8.21 -0.925387
8.22 -0.939067
8.23 -0.951932
8.24 -0.964917
8.25 -0.978689
8.26 -0.993425
8.27 -1.00877
8.28 -1.02379
8.29 -1.03664
8.3 -1.04543
8.31 -1.04721
8.32 -1.03866
8.33 -1.01736
8.34 -0.97766
8.35 -0.918889
8.36 -0.835487
8.37 -0.726605
8.38 -0.59044
8.39 -0.424415
8.4 -0.231935
8.41 -0.010145
8.42 0.234642
8.43 0.500653
8.44 0.782588
8.45 1.07437
8.46 1.3699
8.47 1.66199
8.48 1.94263
8.49 2.20497
8.5 2.44233
8.51 2.64593
8.52 2.81429
8.53 2.93644
8.54 3.01496
8.55 3.04455
8.56 3.02494
8.57 2.95983
8.58 2.84583
8.59 2.69304
8.6 2.50142
8.61 2.27965
8.62 2.03355
8.63 1.76929
8.64 1.49525
8.65 1.21762
8.66 0.943482
8.67 0.678934
8.68 0.429647
8.69 0.198662
8.7 -0.0077387
8.71 -0.190727
8.72 -0.346063
8.73 -0.475476
8.74 -0.57952
8.75 -0.658415
8.76 -0.716948
8.77 -0.754905
8.78 -0.778068
8.79 -0.788505
8.8 -0.789889
8.81 -0.785634
8.82 -0.778316
8.83 -0.770772
8.84 -0.765131
8.85 -0.762942
8.86 -0.765255
8.87 -0.77304
8.88 -0.785852
8.89 -0.804249
8.9 -0.826943
8.91 -0.853462
8.92 -0.882709
8.93 -0.913542
8.94 -0.944925
8.95 -0.975796
8.96 -1.00514
8.97 -1.03227
8.98 -1.05662
8.99 -1.07761
9 -1.09542
9.01 -1.10953
9.02 -1.12058
9.03 -1.1286
9.04 -1.13398
9.05 -1.13726
9.06 -1.13859
9.07 -1.13858
9.08 -1.1373
9.09 -1.135
9.1 -1.13169
9.11 -1.12716
9.12 -1.12127
9.13 -1.11333
9.14 -1.10308
9.15 -1.08972
9.16 -1.07253
9.17 -1.05114
9.18 -1.02424
9.19 -0.992071
9.2 -0.953539
9.21 -0.908847
9.22 -0.857972
9.23 -0.800807
9.24 -0.738513
9.25 -0.671141
9.26 -0.6004
9.27 -0.527293
9.28 -0.453453
9.29 -0.380407
9.3 -0.310242
9.31 -0.244226
9.32 -0.184618
9.33 -0.132603
9.34 -0.089453
9.35 -0.0569107
9.36 -0.0344749
9.37 -0.0241803
9.38 -0.0244331
9.39 -0.0355736
9.4 -0.0566407
9.41 -0.0859438
9.42 -0.122889
9.43 -0.16478
9.44 -0.210315
9.45 -0.257227
9.46 -0.30376
9.47 -0.347915
9.48 -0.388544
9.49 -0.42366
9.5 -0.453042
9.51 -0.475746
9.52 -0.49164
9.53 -0.501355
9.54 -0.504729
9.55 -0.503489
9.56 -0.49822
9.57 -0.490547
9.58 -0.481732
9.59 -0.473214
9.6 -0.4661
9.61 -0.461825
9.62 -0.460885
9.63 -0.464086
9.64 -0.471736
9.65 -0.483571
9.66 -0.499881
9.67 -0.519603
9.68 -0.54252
9.69 -0.567658
9.7 -0.594319
9.71 -0.6218
9.72 -0.649447
9.73 -0.676748
9.74 -0.703429
9.75 -0.729301
9.76 -0.754354
9.77 -0.778716
9.78 -0.802428
9.79 -0.825638
9.8 -0.848197
9.81 -0.869802
9.82 -0.889836
9.83 -0.906994
9.84 -0.920193
9.85 -0.926518
9.86 -0.924287
9.87 -0.910003
9.88 -0.880079
9.89 -0.832301
9.9 -0.760059
9.91 -0.663368
9.92 -0.535879
9.93 -0.376861
9.94 -0.184491
9.95 0.0444499
9.96 0.305772
9.97 0.603126
9.98 0.929237
9.99 1.28224
10 1.65625
10.01 2.04406
10.02 2.43897
10.03 2.83208
10.04 3.21417
10.05 3.57658
10.06 3.91115
10.07 4.20679
10.08 4.46106
10.09 4.66024
10.1 4.80632
10.11 4.89231
10.12 4.91661
10.13 4.88333
10.14 4.78678
10.15 4.63918
10.16 4.43944
10.17 4.19772
10.18 3.92091
10.19 3.61584
10.2 3.29338
10.21 2.96026
10.22 2.62606
10.23 2.29807
10.24 1.98363
10.25 1.68698
10.26 1.41573
10.27 1.16936
10.28 0.952825
10.29 0.764737
10.3 0.604495
10.31 0.472029
10.32 0.361927
10.33 0.274218
10.34 0.202467
10.35 0.14412
10.36 0.0950258
10.37 0.0513465
10.38 0.0101461
10.39 -0.031514
10.4 -0.0758718
10.41 -0.12433
10.42 -0.177704
10.43 -0.236636
10.44 -0.300279
10.45 -0.368611
10.46 -0.439988
10.47 -0.513381
10.48 -0.587244
10.49 -0.660242
10.5 -0.730667
10.51 -0.797678
10.52 -0.859761
10.53 -0.916345
10.54 -0.966858
10.55 -1.01045
10.56 -1.04773
10.57 -1.07765
10.58 -1.10126
10.59 -1.1183
10.6 -1.12909
10.61 -1.13429
10.62 -1.13346
10.63 -1.12771
10.64 -1.11668
10.65 -1.10096
10.66 -1.08076
10.67 -1.05607
10.68 -1.02766
10.69 -0.9953
10.7 -0.959923
10.71 -0.921824
10.72 -0.88169
10.73 -0.84032
10.74 -0.798493
10.75 -0.757146
10.76 -0.717327
10.77 -0.679969
10.78 -0.645965
10.79 -0.616558
10.8 -0.591974
10.81 -0.573739
10.82 -0.56159
10.83 -0.556267
10.84 -0.557915
10.85 -0.566014
10.86 -0.581166
10.87 -0.60196
10.88 -0.628467
10.89 -0.659544
10.9 -0.694396
10.91 -0.732254
10.92 -0.771916
10.93 -0.812619
10.94 -0.853314
10.95 -0.893176
10.96 -0.931362
10.97 -0.967375
10.98 -1.00027
10.99 -1.03005
11 -1.05603
11.01 -1.07825
11.02 -1.09666
11.03 -1.11107
11.04 -1.12211
11.05 -1.12955
11.06 -1.13423
11.07 -1.13642
11.08 -1.13669
11.09 -1.1357
11.1 -1.13397
11.11 -1.13215
11.12 -1.13079
11.13 -1.13033
11.14 -1.13105
11.15 -1.13321
11.16 -1.13657
11.17 -1.14096
11.18 -1.14562
11.19 -1.14969
11.2 -1.15181
11.21 -1.15073
11.22 -1.14392
11.23 -1.1302
11.24 -1.10647
11.25 -1.07095
11.26 -1.02154
11.27 -0.954915
11.28 -0.871279
11.29 -0.766268
11.3 -0.641485
11.31 -0.495219
11.32 -0.32776
11.33 -0.141481
11.34 0.0641888
11.35 0.284016
11.36 0.516285
11.37 0.755952
11.38 0.998702
11.39 1.23907
11.4 1.47248
11.41 1.69183
11.42 1.89353
11.43 2.07164
11.44 2.22132
11.45 2.34113
11.46 2.42354
11.47 2.47196
11.48 2.48136
11.49 2.45438
11.5 2.39236
11.51 2.29542
11.52 2.17043
11.53 2.01736
11.54 1.84423
11.55 1.65453
11.56 1.45388
11.57 1.2477
11.58 1.04092
11.59 0.838036
11.6 0.643644
11.61 0.460769
11.62 0.291795
11.63 0.139725
11.64 0.00356076
11.65 -0.113948
11.66 -0.215578
11.67 -0.301373
11.68 -0.373063
11.69 -0.433405
11.7 -0.483294
11.71 -0.52637
11.72 -0.564037
11.73 -0.59873
11.74 -0.63204
11.75 -0.665361
11.76 -0.699514
11.77 -0.735117
11.78 -0.771973
11.79 -0.809721
11.8 -0.847446
11.81 -0.884101
11.82 -0.917902
11.83 -0.947721
11.84 -0.971361
11.85 -0.987438
11.86 -0.994507
11.87 -0.990315
11.88 -0.975018
11.89 -0.945808
11.9 -0.903712
11.91 -0.847593
11.92 -0.777457
11.93 -0.694639
11.94 -0.598179
11.95 -0.491053
11.96 -0.373414
11.97 -0.247706
11.98 -0.115807
11.99 0.0202499
12 0.157814
12.01 0.294346
12.02 0.427364
12.03 0.554149
12.04 0.671915
12.05 0.779131
12.06 0.871736
12.07 0.949925
12.08 1.01031
12.09 1.05269
12.1 1.07647
12.11 1.07999
12.12 1.06578
12.13 1.03188
12.14 0.981925
12.15 0.916536
12.16 0.837981
12.17 0.749404
12.18 0.652455
12.19 0.551041
12.2 0.447525
12.21 0.344928
12.22 0.245594
12.23 0.152244
12.24 0.0658424
12.25 -0.0110709
12.26 -0.0788505
12.27 -0.136702
12.28 -0.184929
12.29 -0.224942
12.3 -0.256972
12.31 -0.28367
12.32 -0.306227
12.33 -0.326893
12.34 -0.347409
12.35 -0.369678
12.36 -0.394797
12.37 -0.424345
12.38 -0.458349
12.39 -0.497109
12.4 -0.54008
12.41 -0.58602
12.42 -0.633593
