# xPDFsuite Configuration #
[PDF]
wavelength = 0.1432
dataformat = twotheta
inputfile = 1_1Pd_CeO2_cycle-00117.chi
backgroundfile = background-00000.chi
mode = xray
bgscale = 1.007
composition = CeO2
outputtype = gr
qmaxinst = 28.8974762299
qmin = 0.5
qmax = 27.9
rmax = 50.0
rmin = 0.0
rstep = 0.01
rpoly = 1.8657

[Misc]
inputdir = G:/SankarDec16/1Pd/Chi
savedir = D:/DATA/APS_CeO2/1Pd
backgroundfilefull = G:/SankarDec16/Background/background-00000.chi

#### start data
#S 1
#L r($\AA$)  G($\AA^{-2}$)
0 0
0.01 -0.00707531
0.02 -0.0136174
0.03 -0.0190772
0.04 -0.0230414
0.05 -0.0252797
0.06 -0.0254224
0.07 -0.023716
0.08 -0.0200417
0.09 -0.0148698
0.1 -0.00852594
0.11 -0.00150824
0.12 0.00564011
0.13 0.0123096
0.14 0.0180685
0.15 0.0223885
0.16 0.0249601
0.17 0.0256601
0.18 0.0242365
0.19 0.021052
0.2 0.0161215
0.21 0.00999346
0.22 0.00307335
0.23 -0.00407925
0.24 -0.0109531
0.25 -0.0168913
0.26 -0.0215844
0.27 -0.0245497
0.28 -0.025597
0.29 -0.0247157
0.3 -0.0217844
0.31 -0.0172648
0.32 -0.0113046
0.33 -0.00450515
0.34 0.00266772
0.35 0.00961922
0.36 0.0158946
0.37 0.0208211
0.38 0.0242261
0.39 0.0256966
0.4 0.0251702
0.41 0.0227504
0.42 0.0184524
0.43 0.0128154
0.44 0.00611359
0.45 -0.00102762
0.46 -0.00810402
0.47 -0.0145136
0.48 -0.0198804
0.49 -0.0235478
0.5 -0.0254889
0.51 -0.0253803
0.52 -0.0232915
0.53 -0.0194354
0.54 -0.0139641
0.55 -0.00746886
0.56 -0.00033744
0.57 0.00680971
0.58 0.0134545
0.59 0.019016
0.6 0.0232157
0.61 0.0254449
0.62 0.0258244
0.63 0.0241364
0.64 0.0205799
0.65 0.0154678
0.66 0.00908241
0.67 0.00203939
0.68 -0.00517792
0.69 -0.0119836
0.7 -0.0178705
0.71 -0.0223065
0.72 -0.0251245
0.73 -0.0257928
0.74 -0.0245747
0.75 -0.0213688
0.76 -0.0164943
0.77 -0.0103487
0.78 -0.0033313
0.79 0.00394827
0.8 0.0109356
0.81 0.0171078
0.82 0.0219948
0.83 0.0251405
0.84 0.0264977
0.85 0.0256398
0.86 0.0229592
0.87 0.0184761
0.88 0.0126134
0.89 0.00583145
0.9 -0.00137614
0.91 -0.00844041
0.92 -0.0147704
0.93 -0.0199394
0.94 -0.0235474
0.95 -0.0252495
0.96 -0.0251281
0.97 -0.0229062
0.98 -0.0190882
0.99 -0.0138355
1 -0.0076631
1.01 -0.00107678
1.02 0.00534092
1.03 0.0111034
1.04 0.015599
1.05 0.0185373
1.06 0.0196187
1.07 0.0186463
1.08 0.015861
1.09 0.0111823
1.1 0.00524605
1.11 -0.0016012
1.12 -0.00872009
1.13 -0.0155358
1.14 -0.0213131
1.15 -0.0256482
1.16 -0.0278291
1.17 -0.0276934
1.18 -0.024994
1.19 -0.0196254
1.2 -0.0120034
1.21 -0.00213339
1.22 0.00915016
1.23 0.0213704
1.24 0.0337337
1.25 0.0455483
1.26 0.0559146
1.27 0.06438
1.28 0.0700689
1.29 0.0727894
1.3 0.0722075
1.31 0.0681171
1.32 0.0609634
1.33 0.0505446
1.34 0.0377924
1.35 0.023042
1.36 0.00707159
1.37 -0.00941527
1.38 -0.0256504
1.39 -0.0410219
1.4 -0.0547599
1.41 -0.0664916
1.42 -0.0758027
1.43 -0.0823393
1.44 -0.0862884
1.45 -0.0872378
1.46 -0.085785
1.47 -0.0819328
1.48 -0.076089
1.49 -0.0686547
1.5 -0.0598756
1.51 -0.0502547
1.52 -0.0400149
1.53 -0.0294947
1.54 -0.0188952
1.55 -0.00840225
1.56 0.0018822
1.57 0.0118143
1.58 0.0213715
1.59 0.0304423
1.6 0.0389436
1.61 0.0467907
1.62 0.0537389
1.63 0.0597243
1.64 0.0643757
1.65 0.06756
1.66 0.0689996
1.67 0.0683703
1.68 0.0657049
1.69 0.0604993
1.7 0.0530885
1.71 0.0433142
1.72 0.031433
1.73 0.0177955
1.74 0.00267159
1.75 -0.0132796
1.76 -0.0295684
1.77 -0.0455378
1.78 -0.0606064
1.79 -0.0741119
1.8 -0.0857741
1.81 -0.0948442
1.82 -0.101484
1.83 -0.105393
1.84 -0.10677
1.85 -0.105972
1.86 -0.103252
1.87 -0.0993802
1.88 -0.0948725
1.89 -0.0904811
1.9 -0.0868283
1.91 -0.0845931
1.92 -0.0840545
1.93 -0.0858639
1.94 -0.089789
1.95 -0.0959457
1.96 -0.103946
1.97 -0.113258
1.98 -0.123262
1.99 -0.133114
2 -0.141864
2.01 -0.148684
2.02 -0.152716
2.03 -0.15302
2.04 -0.149432
2.05 -0.140813
2.06 -0.127725
2.07 -0.109781
2.08 -0.0874125
2.09 -0.0612326
2.1 -0.0315509
2.11 0.000479272
2.12 0.0343369
2.13 0.0690503
2.14 0.103975
2.15 0.138477
2.16 0.172232
2.17 0.20487
2.18 0.236555
2.19 0.267383
2.2 0.297758
2.21 0.328123
2.22 0.359062
2.23 0.390964
2.24 0.424376
2.25 0.459388
2.26 0.496025
2.27 0.534015
2.28 0.572677
2.29 0.611062
2.3 0.647999
2.31 0.681901
2.32 0.711088
2.33 0.734188
2.34 0.74861
2.35 0.754025
2.36 0.747837
2.37 0.730128
2.38 0.700171
2.39 0.657548
2.4 0.60408
2.41 0.539226
2.42 0.466325
2.43 0.386696
2.44 0.303188
2.45 0.218428
2.46 0.135443
2.47 0.0565405
2.48 -0.0151124
2.49 -0.0779992
2.5 -0.130406
2.51 -0.170806
2.52 -0.200091
2.53 -0.216692
2.54 -0.2234
2.55 -0.220747
2.56 -0.211099
2.57 -0.196845
2.58 -0.180287
2.59 -0.164049
2.6 -0.15062
2.61 -0.141816
2.62 -0.139212
2.63 -0.144175
2.64 -0.156307
2.65 -0.176604
2.66 -0.203071
2.67 -0.234991
2.68 -0.270352
2.69 -0.307168
2.7 -0.343171
2.71 -0.3765
2.72 -0.404806
2.73 -0.426953
2.74 -0.441805
2.75 -0.448517
2.76 -0.448003
2.77 -0.439814
2.78 -0.426305
2.79 -0.408637
2.8 -0.389096
2.81 -0.36977
2.82 -0.353198
2.83 -0.340945
2.84 -0.335417
2.85 -0.337322
2.86 -0.347482
2.87 -0.366298
2.88 -0.392365
2.89 -0.425548
2.9 -0.46308
2.91 -0.503247
2.92 -0.543367
2.93 -0.581147
2.94 -0.613567
2.95 -0.639307
2.96 -0.655667
2.97 -0.662305
2.98 -0.658576
2.99 -0.644347
3 -0.621556
3.01 -0.590589
3.02 -0.554785
3.03 -0.516198
3.04 -0.477887
3.05 -0.442385
3.06 -0.412981
3.07 -0.390984
3.08 -0.379187
3.09 -0.377768
3.1 -0.387231
3.11 -0.407496
3.12 -0.436383
3.13 -0.47325
3.14 -0.514601
3.15 -0.558223
3.16 -0.601032
3.17 -0.640581
3.18 -0.673741
3.19 -0.699527
3.2 -0.715583
3.21 -0.722204
3.22 -0.719434
3.23 -0.708052
3.24 -0.690523
3.25 -0.668489
3.26 -0.645338
3.27 -0.623855
3.28 -0.607128
3.29 -0.597334
3.3 -0.597671
3.31 -0.608156
3.32 -0.630786
3.33 -0.664183
3.34 -0.707418
3.35 -0.758593
3.36 -0.814385
3.37 -0.871778
3.38 -0.926963
3.39 -0.976191
3.4 -1.01601
3.41 -1.04429
3.42 -1.05746
3.43 -1.05654
3.44 -1.03975
3.45 -1.00975
3.46 -0.968486
3.47 -0.91916
3.48 -0.866231
3.49 -0.81422
3.5 -0.767531
3.51 -0.730842
3.52 -0.70778
3.53 -0.700039
3.54 -0.71067
3.55 -0.736803
3.56 -0.778123
3.57 -0.829066
3.58 -0.884326
3.59 -0.935879
3.6 -0.9764
3.61 -0.993279
3.62 -0.980325
3.63 -0.925601
3.64 -0.820917
3.65 -0.662132
3.66 -0.437289
3.67 -0.15257
3.68 0.199935
3.69 0.611199
3.7 1.07664
3.71 1.58852
3.72 2.13154
3.73 2.69506
3.74 3.26059
3.75 3.81196
3.76 4.33117
3.77 4.80458
3.78 5.20942
3.79 5.54194
3.8 5.78086
3.81 5.92585
3.82 5.97069
3.83 5.90985
3.84 5.7565
3.85 5.50172
3.86 5.16909
3.87 4.76303
3.88 4.30017
3.89 3.79712
3.9 3.26759
3.91 2.73024
3.92 2.20023
3.93 1.69154
3.94 1.21608
3.95 0.786394
3.96 0.404407
3.97 0.0835737
3.98 -0.182904
3.99 -0.3907
4 -0.544265
4.01 -0.650581
4.02 -0.711487
4.03 -0.739971
4.04 -0.740066
4.05 -0.722471
4.06 -0.693998
4.07 -0.661777
4.08 -0.631387
4.09 -0.608247
4.1 -0.594357
4.11 -0.592144
4.12 -0.601676
4.13 -0.621591
4.14 -0.650948
4.15 -0.686035
4.16 -0.724381
4.17 -0.762333
4.18 -0.796889
4.19 -0.824688
4.2 -0.844263
4.21 -0.852166
4.22 -0.848947
4.23 -0.833186
4.24 -0.80538
4.25 -0.766808
4.26 -0.717612
4.27 -0.660638
4.28 -0.596624
4.29 -0.527936
4.3 -0.455997
4.31 -0.38223
4.32 -0.307852
4.33 -0.233716
4.34 -0.160323
4.35 -0.0880037
4.36 -0.0168169
4.37 0.053334
4.38 0.122414
4.39 0.190579
4.4 0.257569
4.41 0.323127
4.42 0.386668
4.43 0.447144
4.44 0.503876
4.45 0.554723
4.46 0.59906
4.47 0.634816
4.48 0.660582
4.49 0.675643
4.5 0.677538
4.51 0.667334
4.52 0.643114
4.53 0.60622
4.54 0.557039
4.55 0.496254
4.56 0.42646
4.57 0.348288
4.58 0.265054
4.59 0.178544
4.6 0.0913222
4.61 0.00544424
4.62 -0.0766319
4.63 -0.153791
4.64 -0.223977
4.65 -0.286818
4.66 -0.341745
4.67 -0.388347
4.68 -0.427814
4.69 -0.459731
4.7 -0.486108
4.71 -0.507549
4.72 -0.525436
4.73 -0.541009
4.74 -0.555212
4.75 -0.569069
4.76 -0.583232
4.77 -0.598106
4.78 -0.61385
4.79 -0.630413
4.8 -0.647455
4.81 -0.664553
4.82 -0.68117
4.83 -0.696715
4.84 -0.710644
4.85 -0.722643
4.86 -0.732151
4.87 -0.739384
4.88 -0.744103
4.89 -0.746763
4.9 -0.7477
4.91 -0.747407
4.92 -0.746547
4.93 -0.745724
4.94 -0.745512
4.95 -0.74646
4.96 -0.748962
4.97 -0.753156
4.98 -0.759329
4.99 -0.767131
5 -0.776531
5.01 -0.78703
5.02 -0.798238
5.03 -0.809672
5.04 -0.820901
5.05 -0.831445
5.06 -0.841101
5.07 -0.849613
5.08 -0.856936
5.09 -0.863173
5.1 -0.868349
5.11 -0.872774
5.12 -0.876523
5.13 -0.879746
5.14 -0.882394
5.15 -0.884168
5.16 -0.884727
5.17 -0.883
5.18 -0.878257
5.19 -0.868937
5.2 -0.853447
5.21 -0.830542
5.22 -0.797305
5.23 -0.75347
5.24 -0.696004
5.25 -0.62471
5.26 -0.538608
5.27 -0.436696
5.28 -0.320983
5.29 -0.190407
5.3 -0.0488853
5.31 0.102006
5.32 0.258579
5.33 0.41707
5.34 0.572837
5.35 0.721953
5.36 0.858728
5.37 0.97952
5.38 1.08024
5.39 1.15597
5.4 1.20682
5.41 1.22645
5.42 1.21829
5.43 1.1801
5.44 1.11373
5.45 1.02261
5.46 0.907316
5.47 0.77475
5.48 0.627283
5.49 0.471098
5.5 0.310685
5.51 0.151214
5.52 -0.00335184
5.53 -0.147663
5.54 -0.279848
5.55 -0.39642
5.56 -0.495856
5.57 -0.57832
5.58 -0.641818
5.59 -0.689651
5.6 -0.721268
5.61 -0.739968
5.62 -0.747656
5.63 -0.74642
5.64 -0.739291
5.65 -0.727674
5.66 -0.713944
5.67 -0.699201
5.68 -0.684356
5.69 -0.669704
5.7 -0.655076
5.71 -0.639905
5.72 -0.623163
5.73 -0.603817
5.74 -0.58073
5.75 -0.552502
5.76 -0.518886
5.77 -0.478369
5.78 -0.43179
5.79 -0.378999
5.8 -0.321036
5.81 -0.259395
5.82 -0.195652
5.83 -0.132086
5.84 -0.0711497
5.85 -0.0151309
5.86 0.0337194
5.87 0.0726844
5.88 0.101217
5.89 0.116098
5.9 0.118456
5.91 0.107079
5.92 0.0826651
5.93 0.0468195
5.94 -0.000115642
5.95 -0.0548228
5.96 -0.116002
5.97 -0.180685
5.98 -0.246706
5.99 -0.311659
6 -0.373901
6.01 -0.431211
6.02 -0.483171
6.03 -0.528756
6.04 -0.567971
6.05 -0.601501
6.06 -0.629562
6.07 -0.653951
6.08 -0.675569
6.09 -0.696093
6.1 -0.716773
6.11 -0.738932
6.12 -0.76323
6.13 -0.790645
6.14 -0.820887
6.15 -0.853921
6.16 -0.888983
6.17 -0.925052
6.18 -0.960821
6.19 -0.995002
6.2 -1.02591
6.21 -1.05244
6.22 -1.07351
6.23 -1.088
6.24 -1.09628
6.25 -1.09742
6.26 -1.09293
6.27 -1.08324
6.28 -1.06979
6.29 -1.05411
6.3 -1.03763
6.31 -1.02178
6.32 -1.00779
6.33 -0.99617
6.34 -0.986958
6.35 -0.979471
6.36 -0.972139
6.37 -0.96229
6.38 -0.947067
6.39 -0.922196
6.4 -0.882972
6.41 -0.825788
6.42 -0.742791
6.43 -0.632957
6.44 -0.488379
6.45 -0.308178
6.46 -0.0897532
6.47 0.169972
6.48 0.46607
6.49 0.801996
6.5 1.1683
6.51 1.56187
6.52 1.97436
6.53 2.3968
6.54 2.81917
6.55 3.23139
6.56 3.62069
6.57 3.97749
6.58 4.29173
6.59 4.55066
6.6 4.75297
6.61 4.88217
6.62 4.9439
6.63 4.93064
6.64 4.84367
6.65 4.68931
6.66 4.46454
6.67 4.18519
6.68 3.85293
6.69 3.48195
6.7 3.08178
6.71 2.66331
6.72 2.23859
6.73 1.81875
6.74 1.41307
6.75 1.03123
6.76 0.680903
6.77 0.36553
6.78 0.0940252
6.79 -0.137467
6.8 -0.3233
6.81 -0.468147
6.82 -0.573935
6.83 -0.642658
6.84 -0.682359
6.85 -0.693928
6.86 -0.686417
6.87 -0.663329
6.88 -0.630169
6.89 -0.591465
6.9 -0.550748
6.91 -0.511059
6.92 -0.474711
6.93 -0.442814
6.94 -0.415963
6.95 -0.394413
6.96 -0.377162
6.97 -0.364033
6.98 -0.353548
6.99 -0.345038
7 -0.337659
7.01 -0.33089
7.02 -0.324609
7.03 -0.318928
7.04 -0.314485
7.05 -0.312061
7.06 -0.312668
7.07 -0.317787
7.08 -0.327998
7.09 -0.345336
7.1 -0.369655
7.11 -0.40198
7.12 -0.442274
7.13 -0.489728
7.14 -0.544252
7.15 -0.603633
7.16 -0.666731
7.17 -0.731192
7.18 -0.795013
7.19 -0.855712
7.2 -0.911741
7.21 -0.960256
7.22 -1.0008
7.23 -1.03176
7.24 -1.05277
7.25 -1.06446
7.26 -1.06643
7.27 -1.06111
7.28 -1.04924
7.29 -1.03329
7.3 -1.01518
7.31 -0.997098
7.32 -0.980795
7.33 -0.968372
7.34 -0.960458
7.35 -0.957974
7.36 -0.960798
7.37 -0.967974
7.38 -0.978466
7.39 -0.989924
7.4 -0.999866
7.41 -1.0054
7.42 -1.00362
7.43 -0.990668
7.44 -0.965105
7.45 -0.922002
7.46 -0.861706
7.47 -0.7816
7.48 -0.681381
7.49 -0.562548
7.5 -0.424205
7.51 -0.271073
7.52 -0.104347
7.53 0.071133
7.54 0.251517
7.55 0.431991
7.56 0.608288
7.57 0.774483
7.58 0.927524
7.59 1.06253
7.6 1.17608
7.61 1.26699
7.62 1.33031
7.63 1.36887
7.64 1.3794
7.65 1.36474
7.66 1.32607
7.67 1.26442
7.68 1.1847
7.69 1.08737
7.7 0.978057
7.71 0.859101
7.72 0.734247
7.73 0.606747
7.74 0.479669
7.75 0.355493
7.76 0.236994
7.77 0.125787
7.78 0.0234016
7.79 -0.0682913
7.8 -0.149632
7.81 -0.218232
7.82 -0.275409
7.83 -0.32012
7.84 -0.352527
7.85 -0.373525
7.86 -0.38205
7.87 -0.380288
7.88 -0.367628
7.89 -0.345766
7.9 -0.315621
7.91 -0.278136
7.92 -0.235448
7.93 -0.188606
7.94 -0.140037
7.95 -0.0915764
7.96 -0.0455324
7.97 -0.00371435
7.98 0.0309223
7.99 0.0574906
8 0.0731769
8.01 0.07732
8.02 0.0689253
8.03 0.0467145
8.04 0.0122105
8.05 -0.0359548
8.06 -0.0948738
8.07 -0.163825
8.08 -0.240521
8.09 -0.322388
8.1 -0.407185
8.11 -0.492021
8.12 -0.574275
8.13 -0.651708
8.14 -0.722438
8.15 -0.784365
8.16 -0.837536
8.17 -0.880037
8.18 -0.913422
8.19 -0.937665
8.2 -0.954102
8.21 -0.96456
8.22 -0.970232
8.23 -0.973457
8.24 -0.97563
8.25 -0.978239
8.26 -0.982129
8.27 -0.987732
8.28 -0.994539
8.29 -1.00152
8.3 -1.0068
8.31 -1.00779
8.32 -1.00116
8.33 -0.984136
8.34 -0.95103
8.35 -0.900396
8.36 -0.826279
8.37 -0.727093
8.38 -0.60043
8.39 -0.443007
8.4 -0.257822
8.41 -0.0413003
8.42 0.200304
8.43 0.465537
8.44 0.749096
8.45 1.04463
8.46 1.34598
8.47 1.64529
8.48 1.9342
8.49 2.20521
8.5 2.45109
8.51 2.66244
8.52 2.8374
8.53 2.96436
8.54 3.04586
8.55 3.0763
8.56 3.0554
8.57 2.98713
8.58 2.86811
8.59 2.70906
8.6 2.51023
8.61 2.2809
8.62 2.02734
8.63 1.75629
8.64 1.47645
8.65 1.19456
8.66 0.917737
8.67 0.652343
8.68 0.404026
8.69 0.175609
8.7 -0.0266811
8.71 -0.204543
8.72 -0.354017
8.73 -0.477342
8.74 -0.575486
8.75 -0.649152
8.76 -0.703388
8.77 -0.738456
8.78 -0.760148
8.79 -0.770715
8.8 -0.77378
8.81 -0.772531
8.82 -0.769438
8.83 -0.766853
8.84 -0.766599
8.85 -0.769754
8.86 -0.776978
8.87 -0.788776
8.88 -0.804499
8.89 -0.824241
8.9 -0.846763
8.91 -0.871442
8.92 -0.897268
8.93 -0.923366
8.94 -0.948847
8.95 -0.973162
8.96 -0.995654
8.97 -1.01613
8.98 -1.03446
8.99 -1.05057
9 -1.06487
9.01 -1.07737
9.02 -1.08865
9.03 -1.09894
9.04 -1.10858
9.05 -1.1178
9.06 -1.12666
9.07 -1.13516
9.08 -1.14306
9.09 -1.15
9.1 -1.1555
9.11 -1.15874
9.12 -1.15928
9.13 -1.15575
9.14 -1.14784
9.15 -1.13442
9.16 -1.11471
9.17 -1.08856
9.18 -1.05458
9.19 -1.01363
9.2 -0.964842
9.21 -0.909053
9.22 -0.84675
9.23 -0.778457
9.24 -0.705823
9.25 -0.629623
9.26 -0.551841
9.27 -0.473971
9.28 -0.397919
9.29 -0.325176
9.3 -0.258168
9.31 -0.197643
9.32 -0.145888
9.33 -0.103535
9.34 -0.0714289
9.35 -0.0508031
9.36 -0.0405391
9.37 -0.0420602
9.38 -0.0532522
9.39 -0.0738928
9.4 -0.102548
9.41 -0.137336
9.42 -0.17711
9.43 -0.219438
9.44 -0.262735
9.45 -0.30507
9.46 -0.34492
9.47 -0.380557
9.48 -0.411433
9.49 -0.435919
9.5 -0.45443
9.51 -0.466516
9.52 -0.472587
9.53 -0.473631
9.54 -0.470073
9.55 -0.463669
9.56 -0.45541
9.57 -0.446841
9.58 -0.439188
9.59 -0.433845
9.6 -0.43147
9.61 -0.433382
9.62 -0.439502
9.63 -0.450286
9.64 -0.465567
9.65 -0.484695
9.66 -0.507472
9.67 -0.532638
9.68 -0.55959
9.69 -0.58728
9.7 -0.614947
9.71 -0.641823
9.72 -0.667541
9.73 -0.691605
9.74 -0.714181
9.75 -0.735323
9.76 -0.7554
9.77 -0.774872
9.78 -0.79417
9.79 -0.813654
9.8 -0.833498
9.81 -0.853501
9.82 -0.87312
9.83 -0.891118
9.84 -0.906192
9.85 -0.915407
9.86 -0.916723
9.87 -0.906421
9.88 -0.880584
9.89 -0.83671
9.9 -0.767831
9.91 -0.673792
9.92 -0.54795
9.93 -0.389506
9.94 -0.19659
9.95 0.0340509
9.96 0.297993
9.97 0.598821
9.98 0.928896
9.99 1.2861
10 1.66419
10.01 2.05567
10.02 2.45344
10.03 2.84846
10.04 3.23118
10.05 3.5929
10.06 3.92542
10.07 4.21764
10.08 4.46739
10.09 4.66105
10.1 4.80103
10.11 4.88064
10.12 4.89869
10.13 4.85964
10.14 4.75826
10.15 4.60695
10.16 4.40501
10.17 4.16268
10.18 3.8869
10.19 3.58456
10.2 3.26624
10.21 2.9386
10.22 2.61075
10.23 2.28969
10.24 1.98229
10.25 1.69243
10.26 1.42721
10.27 1.18588
10.28 0.972978
10.29 0.786993
10.3 0.627233
10.31 0.493532
10.32 0.380772
10.33 0.288994
10.34 0.212241
10.35 0.148247
10.36 0.0933021
10.37 0.0439591
10.38 -0.00223175
10.39 -0.0479601
10.4 -0.0950534
10.41 -0.144792
10.42 -0.197899
10.43 -0.254932
10.44 -0.315338
10.45 -0.379127
10.46 -0.445136
10.47 -0.512641
10.48 -0.580552
10.49 -0.647926
10.5 -0.713569
10.51 -0.77687
10.52 -0.836742
10.53 -0.892718
10.54 -0.944303
10.55 -0.990726
10.56 -1.03225
10.57 -1.06779
10.58 -1.09785
10.59 -1.12185
10.6 -1.13958
10.61 -1.1513
10.62 -1.15598
10.63 -1.15449
10.64 -1.14598
10.65 -1.13093
10.66 -1.10946
10.67 -1.08145
10.68 -1.04802
10.69 -1.00899
10.7 -0.965845
10.71 -0.919245
10.72 -0.870414
10.73 -0.820622
10.74 -0.77126
10.75 -0.723573
10.76 -0.67914
10.77 -0.639074
10.78 -0.604415
10.79 -0.576581
10.8 -0.555465
10.81 -0.542654
10.82 -0.537318
10.83 -0.539901
10.84 -0.55004
10.85 -0.566733
10.86 -0.590035
10.87 -0.618162
10.88 -0.650688
10.89 -0.686236
10.9 -0.723832
10.91 -0.762499
10.92 -0.801286
10.93 -0.839327
10.94 -0.876045
10.95 -0.910845
10.96 -0.943304
10.97 -0.973342
10.98 -1.00045
10.99 -1.02498
11 -1.04663
11.01 -1.06565
11.02 -1.08214
11.03 -1.09606
11.04 -1.10782
11.05 -1.11725
11.06 -1.1248
11.07 -1.1305
11.08 -1.13458
11.09 -1.13737
11.1 -1.13896
11.11 -1.13982
11.12 -1.14013
11.13 -1.14025
11.14 -1.14037
11.15 -1.1407
11.16 -1.14124
11.17 -1.14188
11.18 -1.14224
11.19 -1.14174
11.2 -1.13939
11.21 -1.13426
11.22 -1.12423
11.23 -1.10829
11.24 -1.08367
11.25 -1.04862
11.26 -1.0011
11.27 -0.937782
11.28 -0.858577
11.29 -0.75903
11.3 -0.640304
11.31 -0.500386
11.32 -0.339156
11.33 -0.158656
11.34 0.0421442
11.35 0.258166
11.36 0.488048
11.37 0.726801
11.38 0.970141
11.39 1.21265
11.4 1.44941
11.41 1.6733
11.42 1.88025
11.43 2.06405
11.44 2.21944
11.45 2.34469
11.46 2.43182
11.47 2.48407
11.48 2.49608
11.49 2.47045
11.5 2.40846
11.51 2.31022
11.52 2.18288
11.53 2.02646
11.54 1.8494
11.55 1.65545
11.56 1.45059
11.57 1.24053
11.58 1.0306
11.59 0.825413
11.6 0.62987
11.61 0.447021
11.62 0.279256
11.63 0.129581
11.64 -0.00327919
11.65 -0.116681
11.66 -0.213781
11.67 -0.294894
11.68 -0.362106
11.69 -0.418444
11.7 -0.465193
11.71 -0.506093
11.72 -0.542833
11.73 -0.577856
11.74 -0.61275
11.75 -0.648901
11.76 -0.686841
11.77 -0.727085
11.78 -0.769047
11.79 -0.812093
11.8 -0.854953
11.81 -0.896305
11.82 -0.933973
11.83 -0.966717
11.84 -0.99205
11.85 -1.00856
11.86 -1.01479
11.87 -1.00846
11.88 -0.990016
11.89 -0.956702
11.9 -0.909924
11.91 -0.848792
11.92 -0.773644
11.93 -0.686093
11.94 -0.585544
11.95 -0.475115
11.96 -0.355247
11.97 -0.228449
11.98 -0.096639
11.99 0.0380881
12 0.173308
12.01 0.306493
12.02 0.435493
12.03 0.557781
12.04 0.670866
12.05 0.773474
12.06 0.861859
12.07 0.936387
12.08 0.99394
12.09 1.03443
12.1 1.05731
12.11 1.06105
12.12 1.04802
12.13 1.0163
12.14 0.969258
12.15 0.907403
12.16 0.832771
12.17 0.748275
12.18 0.655327
12.19 0.557635
12.2 0.45733
12.21 0.357291
12.22 0.259751
12.23 0.167284
12.24 0.0809269
12.25 0.00310576
12.26 -0.0663612
12.27 -0.126634
12.28 -0.177872
12.29 -0.2213
12.3 -0.257007
12.31 -0.287423
12.32 -0.313556
12.33 -0.337474
12.34 -0.360768
12.35 -0.385149
12.36 -0.411684
12.37 -0.441756
12.38 -0.475451
12.39 -0.513011
12.4 -0.553918
12.41 -0.597051
