# xPDFsuite Configuration #
[PDF]
wavelength = 0.1432
dataformat = twotheta
inputfile = 1_1Pd_CeO2_cycle-00089.chi
backgroundfile = background-00000.chi
mode = xray
bgscale = 1.007
composition = CeO2
outputtype = gr
qmaxinst = 28.8974762299
qmin = 0.5
qmax = 27.9
rmax = 50.0
rmin = 0.0
rstep = 0.01
rpoly = 1.8657

[Misc]
inputdir = G:/SankarDec16/1Pd/Chi
savedir = D:/DATA/APS_CeO2/1Pd
backgroundfilefull = G:/SankarDec16/Background/background-00000.chi

#### start data
#S 1
#L r($\AA$)  G($\AA^{-2}$)
0 0
0.01 -0.00680038
0.02 -0.0130882
0.03 -0.0183356
0.04 -0.0221452
0.05 -0.0242959
0.06 -0.0244323
0.07 -0.0227912
0.08 -0.0192588
0.09 -0.0142872
0.1 -0.00818937
0.11 -0.00144434
0.12 0.0054258
0.13 0.011835
0.14 0.0173687
0.15 0.0215189
0.16 0.0239883
0.17 0.0246588
0.18 0.0232884
0.19 0.020226
0.2 0.0154861
0.21 0.00959608
0.22 0.00294575
0.23 -0.00392698
0.24 -0.0105308
0.25 -0.0162346
0.26 -0.0207411
0.27 -0.0235869
0.28 -0.0245894
0.29 -0.0237388
0.3 -0.020919
0.31 -0.0165739
0.32 -0.0108459
0.33 -0.0043128
0.34 0.00257755
0.35 0.00925374
0.36 0.0152791
0.37 0.0200076
0.38 0.0232738
0.39 0.0246813
0.4 0.0241711
0.41 0.0218428
0.42 0.0177117
0.43 0.0122962
0.44 0.00585971
0.45 -0.000996842
0.46 -0.00778929
0.47 -0.0139397
0.48 -0.0190875
0.49 -0.0226026
0.5 -0.02446
0.51 -0.0243497
0.52 -0.0223394
0.53 -0.0186339
0.54 -0.0133798
0.55 -0.00714502
0.56 -0.000302122
0.57 0.00655364
0.58 0.0129252
0.59 0.0182555
0.6 0.022278
0.61 0.0244093
0.62 0.0247661
0.63 0.0231404
0.64 0.0197238
0.65 0.0148171
0.66 0.00869165
0.67 0.00193788
0.68 -0.00498041
0.69 -0.0115018
0.7 -0.0171406
0.71 -0.0213873
0.72 -0.0240824
0.73 -0.0247172
0.74 -0.023545
0.75 -0.0204693
0.76 -0.0157964
0.77 -0.00990752
0.78 -0.00318517
0.79 0.00378727
0.8 0.0104795
0.81 0.016392
0.82 0.0210763
0.83 0.0240972
0.84 0.025411
0.85 0.0246122
0.86 0.0220765
0.87 0.0178255
0.88 0.0122638
0.89 0.00583181
0.9 -0.000998806
0.91 -0.00768668
0.92 -0.0136691
0.93 -0.0185426
0.94 -0.0219296
0.95 -0.0235074
0.96 -0.0233596
0.97 -0.021233
0.98 -0.0176129
0.99 -0.0126642
1 -0.006885
1.01 -0.000762035
1.02 0.00513773
1.03 0.0103552
1.04 0.0142984
1.05 0.016699
1.06 0.0172748
1.07 0.0158469
1.08 0.0126609
1.09 0.00765446
1.1 0.00145626
1.11 -0.00557937
1.12 -0.0128158
1.13 -0.0196818
1.14 -0.0254351
1.15 -0.0296799
1.16 -0.0316902
1.17 -0.0313033
1.18 -0.0282595
1.19 -0.0224356
1.2 -0.0142453
1.21 -0.00365769
1.22 0.00848265
1.23 0.0217208
1.24 0.0352599
1.25 0.0483956
1.26 0.0602237
1.27 0.0702464
1.28 0.0775572
1.29 0.0819035
1.3 0.0828915
1.31 0.0802338
1.32 0.0743215
1.33 0.0648303
1.34 0.0526666
1.35 0.0380679
1.36 0.02177
1.37 0.00446443
1.38 -0.0131468
1.39 -0.030369
1.4 -0.0464573
1.41 -0.0609268
1.42 -0.0732904
1.43 -0.0830837
1.44 -0.0903603
1.45 -0.094562
1.46 -0.0961586
1.47 -0.0949973
1.48 -0.091362
1.49 -0.0855753
1.5 -0.0777312
1.51 -0.0683785
1.52 -0.0576335
1.53 -0.0459307
1.54 -0.0335106
1.55 -0.0206431
1.56 -0.00759905
1.57 0.00537069
1.58 0.0180371
1.59 0.0301252
1.6 0.0413722
1.61 0.051561
1.62 0.0602524
1.63 0.0673642
1.64 0.0723732
1.65 0.0751961
1.66 0.0755595
1.67 0.0731899
1.68 0.0682851
1.69 0.0604217
1.7 0.0501671
1.71 0.0375307
1.72 0.0229783
1.73 0.00702472
1.74 -0.00982874
1.75 -0.0268663
1.76 -0.0434012
1.77 -0.0587944
1.78 -0.072436
1.79 -0.0836823
1.8 -0.0924208
1.81 -0.0979485
1.82 -0.100695
1.83 -0.100528
1.84 -0.0978895
1.85 -0.0933388
1.86 -0.0874042
1.87 -0.0809646
1.88 -0.0747927
1.89 -0.0696749
1.9 -0.0663154
1.91 -0.0654371
1.92 -0.0671664
1.93 -0.072191
1.94 -0.0799857
1.95 -0.0905395
1.96 -0.10321
1.97 -0.117239
1.98 -0.131734
1.99 -0.145669
2 -0.15782
2.01 -0.16725
2.02 -0.172967
2.03 -0.173923
2.04 -0.170048
2.05 -0.160092
2.06 -0.144871
2.07 -0.124064
2.08 -0.0983169
2.09 -0.0684544
2.1 -0.0350022
2.11 0.000670684
2.12 0.0378113
2.13 0.0753003
2.14 0.112351
2.15 0.148207
2.16 0.182585
2.17 0.215007
2.18 0.245825
2.19 0.275185
2.2 0.303669
2.21 0.3319
2.22 0.360657
2.23 0.390519
2.24 0.422246
2.25 0.456063
2.26 0.492123
2.27 0.530265
2.28 0.569761
2.29 0.609747
2.3 0.64886
2.31 0.685443
2.32 0.717619
2.33 0.743818
2.34 0.76121
2.35 0.769272
2.36 0.765134
2.37 0.748736
2.38 0.719187
2.39 0.67592
2.4 0.620818
2.41 0.553189
2.42 0.476618
2.43 0.392477
2.44 0.30385
2.45 0.213612
2.46 0.125062
2.47 0.040797
2.48 -0.0356755
2.49 -0.102596
2.5 -0.157996
2.51 -0.200081
2.52 -0.229747
2.53 -0.245111
2.54 -0.249202
2.55 -0.242496
2.56 -0.227558
2.57 -0.207032
2.58 -0.183428
2.59 -0.159779
2.6 -0.138896
2.61 -0.122978
2.62 -0.113946
2.63 -0.113563
2.64 -0.121582
2.65 -0.139474
2.66 -0.165152
2.67 -0.198129
2.68 -0.236336
2.69 -0.277626
2.7 -0.319707
2.71 -0.360276
2.72 -0.396804
2.73 -0.427694
2.74 -0.451447
2.75 -0.466772
2.76 -0.474251
2.77 -0.472899
2.78 -0.464912
2.79 -0.451062
2.8 -0.433465
2.81 -0.414187
2.82 -0.395525
2.83 -0.379382
2.84 -0.368076
2.85 -0.362721
2.86 -0.364384
2.87 -0.37381
2.88 -0.390036
2.89 -0.413326
2.9 -0.44133
2.91 -0.47276
2.92 -0.505307
2.93 -0.536915
2.94 -0.565004
2.95 -0.58818
2.96 -0.604083
2.97 -0.612197
2.98 -0.61185
2.99 -0.602815
3 -0.586642
3.01 -0.563634
3.02 -0.5366
3.03 -0.507313
3.04 -0.478405
3.05 -0.452056
3.06 -0.431113
3.07 -0.416661
3.08 -0.411071
3.09 -0.414402
3.1 -0.426976
3.11 -0.448549
3.12 -0.477112
3.13 -0.511813
3.14 -0.549554
3.15 -0.588172
3.16 -0.624882
3.17 -0.657545
3.18 -0.683298
3.19 -0.701532
3.2 -0.710215
3.21 -0.709945
3.22 -0.701043
3.23 -0.684592
3.24 -0.663123
3.25 -0.638629
3.26 -0.614365
3.27 -0.59326
3.28 -0.578316
3.29 -0.571559
3.3 -0.576156
3.31 -0.591781
3.32 -0.620308
3.33 -0.66003
3.34 -0.709781
3.35 -0.767374
3.36 -0.829267
3.37 -0.892122
3.38 -0.952016
3.39 -1.00497
3.4 -1.04741
3.41 -1.0772
3.42 -1.09059
3.43 -1.0888
3.44 -1.06994
3.45 -1.03691
3.46 -0.991742
3.47 -0.937793
3.48 -0.879763
3.49 -0.822318
3.5 -0.770112
3.51 -0.728009
3.52 -0.699835
3.53 -0.68742
3.54 -0.694032
3.55 -0.716821
3.56 -0.75565
3.57 -0.804933
3.58 -0.859395
3.59 -0.911029
3.6 -0.952377
3.61 -0.970871
3.62 -0.960111
3.63 -0.908102
3.64 -0.806506
3.65 -0.651041
3.66 -0.429628
3.67 -0.148308
3.68 0.200956
3.69 0.609239
3.7 1.07205
3.71 1.58175
3.72 2.12303
3.73 2.68537
3.74 3.2502
3.75 3.80141
3.76 4.32091
3.77 4.79504
3.78 5.20098
3.79 5.53486
3.8 5.77534
3.81 5.92201
3.82 5.96856
3.83 5.90936
3.84 5.75751
3.85 5.50401
3.86 5.17241
3.87 4.76705
3.88 4.30456
3.89 3.80154
3.9 3.27168
3.91 2.7337
3.92 2.20276
3.93 1.69292
3.94 1.21615
3.95 0.785071
3.96 0.40168
3.97 0.079523
3.98 -0.188129
3.99 -0.396863
4 -0.551067
4.01 -0.657684
4.02 -0.718474
4.03 -0.746458
4.04 -0.745614
4.05 -0.726696
4.06 -0.696544
4.07 -0.662333
4.08 -0.629738
4.09 -0.604243
4.1 -0.587966
4.11 -0.583432
4.12 -0.590824
4.13 -0.608865
4.14 -0.636757
4.15 -0.670811
4.16 -0.708688
4.17 -0.746733
4.18 -0.781979
4.19 -0.811087
4.2 -0.832501
4.21 -0.8428
4.22 -0.842376
4.23 -0.829745
4.24 -0.805269
4.25 -0.770097
4.26 -0.72422
4.27 -0.670362
4.28 -0.609092
4.29 -0.542676
4.3 -0.472431
4.31 -0.399657
4.32 -0.325596
4.33 -0.250955
4.34 -0.176357
4.35 -0.102109
4.36 -0.0283625
4.37 0.0448589
4.38 0.117437
4.39 0.189333
4.4 0.260151
4.41 0.329454
4.42 0.396501
4.43 0.460058
4.44 0.519363
4.45 0.572052
4.46 0.617514
4.47 0.653557
4.48 0.678764
4.49 0.692472
4.5 0.692186
4.51 0.679164
4.52 0.651526
4.53 0.610812
4.54 0.557557
4.55 0.492628
4.56 0.418789
4.57 0.336892
4.58 0.250372
4.59 0.161201
4.6 0.0720589
4.61 -0.0149512
4.62 -0.0972163
4.63 -0.173731
4.64 -0.242351
4.65 -0.302845
4.66 -0.354721
4.67 -0.397677
4.68 -0.433103
4.69 -0.460712
4.7 -0.482733
4.71 -0.499944
4.72 -0.513919
4.73 -0.526031
4.74 -0.537439
4.75 -0.549187
4.76 -0.562104
4.77 -0.57657
4.78 -0.592765
4.79 -0.610643
4.8 -0.62971
4.81 -0.649551
4.82 -0.669398
4.83 -0.688558
4.84 -0.706301
4.85 -0.72215
4.86 -0.735356
4.87 -0.746006
4.88 -0.753679
4.89 -0.758747
4.9 -0.761456
4.91 -0.762213
4.92 -0.761739
4.93 -0.760546
4.94 -0.759368
4.95 -0.758783
4.96 -0.759312
4.97 -0.761233
4.98 -0.764958
4.99 -0.770302
5 -0.777382
5.01 -0.785827
5.02 -0.795363
5.03 -0.805629
5.04 -0.816203
5.05 -0.826728
5.06 -0.836916
5.07 -0.846529
5.08 -0.855443
5.09 -0.863659
5.1 -0.87112
5.11 -0.877973
5.12 -0.884169
5.13 -0.889709
5.14 -0.894415
5.15 -0.89784
5.16 -0.899586
5.17 -0.898413
5.18 -0.893621
5.19 -0.883576
5.2 -0.8667
5.21 -0.841816
5.22 -0.806007
5.23 -0.759172
5.24 -0.698337
5.25 -0.623464
5.26 -0.533698
5.27 -0.428184
5.28 -0.309048
5.29 -0.175401
5.3 -0.0312221
5.31 0.121784
5.32 0.279859
5.33 0.439225
5.34 0.595135
5.35 0.74376
5.36 0.879344
5.37 0.998348
5.38 1.09673
5.39 1.16963
5.4 1.21728
5.41 1.23339
5.42 1.22155
5.43 1.17959
5.44 1.10947
5.45 1.01471
5.46 0.896032
5.47 0.760366
5.48 0.610215
5.49 0.451805
5.5 0.289694
5.51 0.129136
5.52 -0.0259298
5.53 -0.170024
5.54 -0.301361
5.55 -0.4164
5.56 -0.513649
5.57 -0.593341
5.58 -0.653477
5.59 -0.697509
5.6 -0.724934
5.61 -0.739201
5.62 -0.742341
5.63 -0.736601
5.64 -0.725149
5.65 -0.709607
5.66 -0.692451
5.67 -0.674974
5.68 -0.658218
5.69 -0.642533
5.7 -0.627946
5.71 -0.613784
5.72 -0.599141
5.73 -0.582846
5.74 -0.563684
5.75 -0.540141
5.76 -0.511725
5.77 -0.476762
5.78 -0.435801
5.79 -0.388442
5.8 -0.335451
5.81 -0.278117
5.82 -0.217683
5.83 -0.156384
5.84 -0.0963953
5.85 -0.0400317
5.86 0.0104817
5.87 0.0524259
5.88 0.0849963
5.89 0.104929
5.9 0.112958
5.91 0.107632
5.92 0.0892892
5.93 0.0592212
5.94 0.0173513
5.95 -0.0332014
5.96 -0.0915342
5.97 -0.154787
5.98 -0.220935
5.99 -0.287699
6 -0.353215
6.01 -0.415348
6.02 -0.473242
6.03 -0.52567
6.04 -0.572225
6.05 -0.613199
6.06 -0.648331
6.07 -0.679065
6.08 -0.705795
6.09 -0.729938
6.1 -0.752473
6.11 -0.774436
6.12 -0.79664
6.13 -0.819791
6.14 -0.844054
6.15 -0.869507
6.16 -0.895796
6.17 -0.922363
6.18 -0.948369
6.19 -0.973058
6.2 -0.995319
6.21 -1.01449
6.22 -1.02991
6.23 -1.04093
6.24 -1.04791
6.25 -1.0504
6.26 -1.04955
6.27 -1.04584
6.28 -1.04038
6.29 -1.03423
6.3 -1.02849
6.31 -1.02392
6.32 -1.02121
6.33 -1.02027
6.34 -1.02061
6.35 -1.02095
6.36 -1.01953
6.37 -1.01303
6.38 -0.998785
6.39 -0.9723
6.4 -0.929025
6.41 -0.865706
6.42 -0.774642
6.43 -0.655505
6.44 -0.500773
6.45 -0.310219
6.46 -0.0817744
6.47 0.187019
6.48 0.490898
6.49 0.83266
6.5 1.20284
6.51 1.59801
6.52 2.00981
6.53 2.42952
6.54 2.84711
6.55 3.2531
6.56 3.63498
6.57 3.98377
6.58 4.28987
6.59 4.54112
6.6 4.73658
6.61 4.86035
6.62 4.91823
6.63 4.90302
6.64 4.8161
6.65 4.66365
6.66 4.44271
6.67 4.16864
6.68 3.84292
6.69 3.47922
6.7 3.08665
6.71 2.67561
6.72 2.25777
6.73 1.8437
6.74 1.44251
6.75 1.06355
6.76 0.714332
6.77 0.398391
6.78 0.124514
6.79 -0.110745
6.8 -0.301642
6.81 -0.452405
6.82 -0.564618
6.83 -0.639861
6.84 -0.685817
6.85 -0.702934
6.86 -0.700063
6.87 -0.680416
6.88 -0.649366
6.89 -0.611474
6.9 -0.570167
6.91 -0.528804
6.92 -0.489779
6.93 -0.454559
6.94 -0.424017
6.95 -0.398744
6.96 -0.378023
6.97 -0.362031
6.98 -0.349432
6.99 -0.339771
7 -0.332277
7.01 -0.326371
7.02 -0.32196
7.03 -0.31887
7.04 -0.317606
7.05 -0.318633
7.06 -0.322701
7.07 -0.330972
7.08 -0.343821
7.09 -0.362943
7.1 -0.388143
7.11 -0.420279
7.12 -0.459309
7.13 -0.504544
7.14 -0.555927
7.15 -0.611568
7.16 -0.670514
7.17 -0.730743
7.18 -0.790529
7.19 -0.847723
7.2 -0.900947
7.21 -0.9477
7.22 -0.987512
7.23 -1.01891
7.24 -1.04145
7.25 -1.05563
7.26 -1.06091
7.27 -1.05937
7.28 -1.05148
7.29 -1.03937
7.3 -1.02463
7.31 -1.0091
7.32 -0.994358
7.33 -0.982151
7.34 -0.973182
7.35 -0.968265
7.36 -0.967396
7.37 -0.969862
7.38 -0.974816
7.39 -0.980351
7.4 -0.984347
7.41 -0.984357
7.42 -0.977855
7.43 -0.961452
7.44 -0.933866
7.45 -0.890656
7.46 -0.832039
7.47 -0.755544
7.48 -0.660723
7.49 -0.54876
7.5 -0.418558
7.51 -0.274253
7.52 -0.116616
7.53 0.050087
7.54 0.222504
7.55 0.396426
7.56 0.567824
7.57 0.731429
7.58 0.884104
7.59 1.02123
7.6 1.13929
7.61 1.2368
7.62 1.30868
7.63 1.35709
7.64 1.37835
7.65 1.37462
7.66 1.3465
7.67 1.29435
7.68 1.22267
7.69 1.13117
7.7 1.02541
7.71 0.907368
7.72 0.780737
7.73 0.64901
7.74 0.515219
7.75 0.382546
7.76 0.254048
7.77 0.132054
7.78 0.0186704
7.79 -0.0835336
7.8 -0.174402
7.81 -0.250779
7.82 -0.313771
7.83 -0.361881
7.84 -0.395109
7.85 -0.414485
7.86 -0.418786
7.87 -0.410824
7.88 -0.390158
7.89 -0.359147
7.9 -0.319238
7.91 -0.272017
7.92 -0.22016
7.93 -0.165428
7.94 -0.110552
7.95 -0.0578421
7.96 -0.00983677
7.97 0.0317071
7.98 0.0636131
7.99 0.085523
8 0.0947215
8.01 0.0911375
8.02 0.0742477
8.03 0.0433517
8.04 0.000503358
8.05 -0.055011
8.06 -0.119946
8.07 -0.193116
8.08 -0.271973
8.09 -0.35395
8.1 -0.436556
8.11 -0.517361
8.12 -0.5938
8.13 -0.664163
8.14 -0.726997
8.15 -0.780727
8.16 -0.825914
8.17 -0.861251
8.18 -0.88864
8.19 -0.908505
8.2 -0.92246
8.21 -0.932349
8.22 -0.939632
8.23 -0.946238
8.24 -0.953541
8.25 -0.962543
8.26 -0.973704
8.27 -0.986976
8.28 -1.00136
8.29 -1.01527
8.3 -1.02648
8.31 -1.03198
8.32 -1.02816
8.33 -1.01223
8.34 -0.978224
8.35 -0.925075
8.36 -0.846841
8.37 -0.742377
8.38 -0.609635
8.39 -0.445775
8.4 -0.254252
8.41 -0.0320074
8.42 0.214382
8.43 0.483072
8.44 0.768512
8.45 1.06433
8.46 1.36416
8.47 1.66049
8.48 1.94501
8.49 2.21066
8.5 2.45057
8.51 2.6558
8.52 2.82491
8.53 2.94684
8.54 3.0244
8.55 3.05238
8.56 3.03074
8.57 2.96341
8.58 2.84724
8.59 2.69253
8.6 2.49947
8.61 2.27685
8.62 2.03053
8.63 1.76677
8.64 1.4938
8.65 1.21776
8.66 0.945492
8.67 0.682909
8.68 0.435424
8.69 0.205876
8.7 0.00025672
8.71 -0.182682
8.72 -0.338911
8.73 -0.470141
8.74 -0.576903
8.75 -0.659348
8.76 -0.722005
8.77 -0.764476
8.78 -0.792196
8.79 -0.806924
8.8 -0.811975
8.81 -0.81052
8.82 -0.804714
8.83 -0.797373
8.84 -0.790334
8.85 -0.785223
8.86 -0.783148
8.87 -0.785174
8.88 -0.791238
8.89 -0.80211
8.9 -0.816996
8.91 -0.835814
8.92 -0.857935
8.93 -0.882555
8.94 -0.90918
8.95 -0.93683
8.96 -0.964898
8.97 -0.992662
8.98 -1.01957
8.99 -1.04501
9 -1.06876
9.01 -1.09021
9.02 -1.1094
9.03 -1.12603
9.04 -1.14
9.05 -1.15144
9.06 -1.15999
9.07 -1.16603
9.08 -1.16923
9.09 -1.16977
9.1 -1.16755
9.11 -1.16228
9.12 -1.15416
9.13 -1.14246
9.14 -1.12737
9.15 -1.10835
9.16 -1.08504
9.17 -1.05741
9.18 -1.02451
9.19 -0.986788
9.2 -0.94346
9.21 -0.894831
9.22 -0.840953
9.23 -0.781789
9.24 -0.718335
9.25 -0.650655
9.26 -0.580197
9.27 -0.50784
9.28 -0.435027
9.29 -0.36312
9.3 -0.294074
9.31 -0.229078
9.32 -0.170342
9.33 -0.119078
9.34 -0.0766226
9.35 -0.0448379
9.36 -0.0233424
9.37 -0.0143725
9.38 -0.0164351
9.39 -0.0300278
9.4 -0.054279
9.41 -0.0874795
9.42 -0.129089
9.43 -0.176199
9.44 -0.227387
9.45 -0.280096
9.46 -0.332284
9.47 -0.381563
9.48 -0.426517
9.49 -0.464646
9.5 -0.495583
9.51 -0.518039
9.52 -0.531708
9.53 -0.537288
9.54 -0.53441
9.55 -0.525255
9.56 -0.510489
9.57 -0.492247
9.58 -0.472228
9.59 -0.452426
9.6 -0.434467
9.61 -0.420484
9.62 -0.411353
9.63 -0.408429
9.64 -0.412397
9.65 -0.42305
9.66 -0.441121
9.67 -0.465089
9.68 -0.494836
9.69 -0.528853
9.7 -0.56602
9.71 -0.605114
9.72 -0.644801
9.73 -0.683927
9.74 -0.72162
9.75 -0.757081
9.76 -0.789781
9.77 -0.819639
9.78 -0.846138
9.79 -0.869726
9.8 -0.890029
9.81 -0.907154
9.82 -0.920807
9.83 -0.930078
9.84 -0.934536
9.85 -0.931774
9.86 -0.920733
9.87 -0.898463
9.88 -0.861892
9.89 -0.80906
9.9 -0.733869
9.91 -0.636153
9.92 -0.509782
9.93 -0.353713
9.94 -0.165867
9.95 0.0573051
9.96 0.312164
9.97 0.6028
9.98 0.922472
9.99 1.26979
10 1.63929
10.01 2.024
10.02 2.41762
10.03 2.81109
10.04 3.19532
10.05 3.56138
10.06 3.90082
10.07 4.20223
10.08 4.46265
10.09 4.66795
10.1 4.81963
10.11 4.91027
10.12 4.93787
10.13 4.90639
10.14 4.80975
10.15 4.66039
10.16 4.45709
10.17 4.21035
10.18 3.92733
10.19 3.6152
10.2 3.28533
10.21 2.94487
10.22 2.60387
10.23 2.27004
10.24 1.95108
10.25 1.6514
10.26 1.37897
10.27 1.13306
10.28 0.918763
10.29 0.734381
10.3 0.579069
10.31 0.452467
10.32 0.348714
10.33 0.267478
10.34 0.201926
10.35 0.149153
10.36 0.104704
10.37 0.0646188
10.38 0.0256905
10.39 -0.0148484
10.4 -0.0592965
10.41 -0.108806
10.42 -0.163978
10.43 -0.225197
10.44 -0.291291
10.45 -0.361935
10.46 -0.435243
10.47 -0.509951
10.48 -0.584362
10.49 -0.657136
10.5 -0.726489
10.51 -0.791807
10.52 -0.851691
10.53 -0.905868
10.54 -0.954035
10.55 -0.995694
10.56 -1.03166
10.57 -1.0613
10.58 -1.08571
10.59 -1.10483
10.6 -1.11899
10.61 -1.12869
10.62 -1.13344
10.63 -1.13391
10.64 -1.12947
10.65 -1.12024
10.66 -1.10603
10.67 -1.08628
10.68 -1.06152
10.69 -1.03093
10.7 -0.995429
10.71 -0.955052
10.72 -0.910486
10.73 -0.86279
10.74 -0.812786
10.75 -0.762041
10.76 -0.71195
10.77 -0.664091
10.78 -0.619916
10.79 -0.581364
10.8 -0.549061
10.81 -0.525307
10.82 -0.509954
10.83 -0.504143
10.84 -0.508127
10.85 -0.521145
10.86 -0.543907
10.87 -0.574272
10.88 -0.612041
10.89 -0.655331
10.9 -0.70273
10.91 -0.752716
10.92 -0.803522
10.93 -0.853542
10.94 -0.901429
10.95 -0.945834
10.96 -0.985646
10.97 -1.02049
10.98 -1.04912
10.99 -1.07223
11 -1.08922
11.01 -1.10083
11.02 -1.10756
11.03 -1.10991
11.04 -1.10912
11.05 -1.10574
11.06 -1.10104
11.07 -1.09583
11.08 -1.09108
11.09 -1.08746
11.1 -1.08587
11.11 -1.0865
11.12 -1.08992
11.13 -1.09605
11.14 -1.10477
11.15 -1.11583
11.16 -1.12842
11.17 -1.14183
11.18 -1.15484
11.19 -1.16614
11.2 -1.17401
11.21 -1.17711
11.22 -1.17257
11.23 -1.1595
11.24 -1.13472
11.25 -1.09678
11.26 -1.04388
11.27 -0.972965
11.28 -0.884669
11.29 -0.774955
11.3 -0.645748
11.31 -0.49561
11.32 -0.325045
11.33 -0.136475
11.34 0.070516
11.35 0.290879
11.36 0.522921
11.37 0.761831
11.38 1.00349
11.39 1.24265
11.4 1.47496
11.41 1.69353
11.42 1.89488
11.43 2.07319
11.44 2.22361
11.45 2.34466
11.46 2.42871
11.47 2.47897
11.48 2.49022
11.49 2.46485
11.5 2.40399
11.51 2.30752
11.52 2.18222
11.53 2.02782
11.54 1.85245
11.55 1.65958
11.56 1.45496
11.57 1.24426
11.58 1.03264
11.59 0.824929
11.6 0.626085
11.61 0.439458
11.62 0.267715
11.63 0.114221
11.64 -0.022007
11.65 -0.137901
11.66 -0.236452
11.67 -0.317719
11.68 -0.383671
11.69 -0.437428
11.7 -0.480208
11.71 -0.516145
11.72 -0.547113
11.73 -0.575992
11.74 -0.604754
11.75 -0.635266
11.76 -0.66838
11.77 -0.70514
11.78 -0.745085
11.79 -0.787856
11.8 -0.832266
11.81 -0.876817
11.82 -0.91937
11.83 -0.958168
11.84 -0.99047
11.85 -1.01433
11.86 -1.02782
11.87 -1.02812
11.88 -1.01527
11.89 -0.985943
11.9 -0.941402
11.91 -0.880456
11.92 -0.803364
11.93 -0.711947
11.94 -0.605567
11.95 -0.487934
11.96 -0.359761
11.97 -0.224152
11.98 -0.0835333
11.99 0.0593891
12 0.201791
12.01 0.340491
12.02 0.473191
12.03 0.597034
12.04 0.709422
12.05 0.809288
12.06 0.89281
12.07 0.96096
12.08 1.01086
12.09 1.04302
12.1 1.05739
12.11 1.05304
12.12 1.03272
12.13 0.995153
12.14 0.943868
12.15 0.879677
12.16 0.804724
12.17 0.721736
12.18 0.632187
12.19 0.539233
12.2 0.44477
12.21 0.351135
12.22 0.260105
12.23 0.173723
12.24 0.0926696
12.25 0.0188324
12.26 -0.0480914
12.27 -0.107509
12.28 -0.15963
12.29 -0.205476
12.3 -0.24512
12.31 -0.280479
12.32 -0.312284
12.33 -0.342095
12.34 -0.371078
12.35 -0.400428
12.36 -0.430935
12.37 -0.46347
12.38 -0.498079
12.39 -0.534808
12.4 -0.57315
12.41 -0.612235
