# xPDFsuite Configuration #
[PDF]
wavelength = 0.1432
dataformat = twotheta
inputfile = 1_1Pd_CeO2_cycle-00312.chi
backgroundfile = background-00000.chi
mode = xray
bgscale = 1.007
composition = CeO2
outputtype = gr
qmaxinst = 28.8974762299
qmin = 0.5
qmax = 27.9
rmax = 50.0
rmin = 0.0
rstep = 0.01
rpoly = 1.8657

[Misc]
inputdir = G:/SankarDec16/1Pd/Chi
savedir = D:/DATA/APS_CeO2/1Pd
backgroundfilefull = G:/SankarDec16/Background/background-00000.chi

#### start data
#S 1
#L r($\AA$)  G($\AA^{-2}$)
0 0
0.01 -0.00610794
0.02 -0.0117538
0.03 -0.016462
0.04 -0.0198745
0.05 -0.0217928
0.06 -0.0218977
0.07 -0.0204037
0.08 -0.0172103
0.09 -0.0127261
0.1 -0.00723498
0.11 -0.00117008
0.12 0.00499835
0.13 0.0107407
0.14 0.0156857
0.15 0.0193765
0.16 0.0215487
0.17 0.0220987
0.18 0.0208132
0.19 0.0180099
0.2 0.0137074
0.21 0.00838354
0.22 0.00239263
0.23 -0.00377823
0.24 -0.00968821
0.25 -0.0147668
0.26 -0.0187526
0.27 -0.0212307
0.28 -0.0220433
0.29 -0.0211878
0.3 -0.0185676
0.31 -0.014588
0.32 -0.00938562
0.33 -0.00348377
0.34 0.00271054
0.35 0.00868065
0.36 0.0140377
0.37 0.0181992
0.38 0.0210267
0.39 0.0221689
0.4 0.0215827
0.41 0.0193672
0.42 0.0155477
0.43 0.0105967
0.44 0.00476255
0.45 -0.00141221
0.46 -0.00748863
0.47 -0.0129463
0.48 -0.0174684
0.49 -0.0204902
0.5 -0.0220035
0.51 -0.021739
0.52 -0.0197711
0.53 -0.0162957
0.54 -0.0114598
0.55 -0.00577914
0.56 0.000398123
0.57 0.00653758
0.58 0.0121908
0.59 0.0168597
0.6 0.0203162
0.61 0.0220423
0.62 0.0221611
0.63 0.0204993
0.64 0.017246
0.65 0.0126842
0.66 0.00707593
0.67 0.00095451
0.68 -0.0052499
0.69 -0.0110378
0.7 -0.0159741
0.71 -0.0196085
0.72 -0.0218137
0.73 -0.0221445
0.74 -0.0208496
0.75 -0.0178602
0.76 -0.0134703
0.77 -0.00803536
0.78 -0.00191779
0.79 0.00435955
0.8 0.0103087
0.81 0.0154915
0.82 0.0195112
0.83 0.0219902
0.84 0.0229093
0.85 0.0219233
0.86 0.0193915
0.87 0.0153553
0.88 0.0101963
0.89 0.00432111
0.9 -0.00182951
0.91 -0.00777732
0.92 -0.0130108
0.93 -0.0171859
0.94 -0.0199775
0.95 -0.021118
0.96 -0.0207073
0.97 -0.0185485
0.98 -0.0150985
0.99 -0.0105335
1 -0.00531851
1.01 0.000101585
1.02 0.00520145
1.03 0.00958776
1.04 0.0127282
1.05 0.014413
1.06 0.0144136
1.07 0.0126052
1.08 0.00924348
1.09 0.00432212
1.1 -0.00156793
1.11 -0.00806411
1.12 -0.0145683
1.13 -0.020555
1.14 -0.0253251
1.15 -0.0285498
1.16 -0.0295613
1.17 -0.0282532
1.18 -0.0244157
1.19 -0.0179752
1.2 -0.00935313
1.21 0.00143225
1.22 0.0135714
1.23 0.0266025
1.24 0.039762
1.25 0.0523835
1.26 0.0635939
1.27 0.0729482
1.28 0.0795757
1.29 0.0832611
1.3 0.0836362
1.31 0.0804331
1.32 0.0740397
1.33 0.064134
1.34 0.0515939
1.35 0.0366334
1.36 0.0199525
1.37 0.00221127
1.38 -0.0159312
1.39 -0.0337927
1.4 -0.0506607
1.41 -0.0660405
1.42 -0.0794366
1.43 -0.0903565
1.44 -0.0988042
1.45 -0.10416
1.46 -0.106826
1.47 -0.106564
1.48 -0.103575
1.49 -0.0981205
1.5 -0.0901844
1.51 -0.0803192
1.52 -0.0685474
1.53 -0.0553398
1.54 -0.0409383
1.55 -0.0256422
1.56 -0.00982746
1.57 0.00620947
1.58 0.0220865
1.59 0.0374213
1.6 0.0518093
1.61 0.0649185
1.62 0.0761455
1.63 0.0853553
1.64 0.0918703
1.65 0.0955955
1.66 0.0962087
1.67 0.0934073
1.68 0.0874802
1.69 0.0779629
1.7 0.0655937
1.71 0.0504318
1.72 0.0330732
1.73 0.0141504
1.74 -0.00572081
1.75 -0.0257158
1.76 -0.0450367
1.77 -0.0629773
1.78 -0.0788648
1.79 -0.0920006
1.8 -0.102292
1.81 -0.108978
1.82 -0.112562
1.83 -0.112912
1.84 -0.110515
1.85 -0.105976
1.86 -0.09984
1.87 -0.093041
1.88 -0.0863521
1.89 -0.0805845
1.9 -0.0764389
1.91 -0.0746237
1.92 -0.0752673
1.93 -0.079013
1.94 -0.0853501
1.95 -0.094244
1.96 -0.105064
1.97 -0.117078
1.98 -0.129423
1.99 -0.141146
2 -0.151097
2.01 -0.158436
2.02 -0.162275
2.03 -0.161697
2.04 -0.156695
2.05 -0.146203
2.06 -0.131028
2.07 -0.110956
2.08 -0.0866305
2.09 -0.0588288
2.1 -0.0280719
2.11 0.00445393
2.12 0.0380891
2.13 0.0719322
2.14 0.105386
2.15 0.137935
2.16 0.169462
2.17 0.1998
2.18 0.22936
2.19 0.258499
2.2 0.287855
2.21 0.318025
2.22 0.349853
2.23 0.383662
2.24 0.420149
2.25 0.459225
2.26 0.500794
2.27 0.544369
2.28 0.588947
2.29 0.633253
2.3 0.675761
2.31 0.714498
2.32 0.74744
2.33 0.772991
2.34 0.788158
2.35 0.792693
2.36 0.783726
2.37 0.761561
2.38 0.725575
2.39 0.675562
2.4 0.613777
2.41 0.539974
2.42 0.458015
2.43 0.369655
2.44 0.278208
2.45 0.186638
2.46 0.0984868
2.47 0.016093
2.48 -0.0569764
2.49 -0.119334
2.5 -0.169272
2.51 -0.205369
2.52 -0.228933
2.53 -0.238537
2.54 -0.23755
2.55 -0.226855
2.56 -0.209288
2.57 -0.187609
2.58 -0.164587
2.59 -0.143
2.6 -0.125715
2.61 -0.114536
2.62 -0.111092
2.63 -0.11673
2.64 -0.130756
2.65 -0.154108
2.66 -0.184344
2.67 -0.22051
2.68 -0.260241
2.69 -0.301275
2.7 -0.341034
2.71 -0.37753
2.72 -0.408195
2.73 -0.431914
2.74 -0.447556
2.75 -0.454356
2.76 -0.45344
2.77 -0.444514
2.78 -0.430207
2.79 -0.411905
2.8 -0.392118
2.81 -0.373076
2.82 -0.357509
2.83 -0.346932
2.84 -0.343804
2.85 -0.348654
2.86 -0.362141
2.87 -0.384405
2.88 -0.413771
2.89 -0.449719
2.9 -0.489254
2.91 -0.530318
2.92 -0.570015
2.93 -0.605976
2.94 -0.634961
2.95 -0.655912
2.96 -0.666111
2.97 -0.665614
2.98 -0.654088
2.99 -0.631853
3 -0.601294
3.01 -0.563408
3.02 -0.521881
3.03 -0.479304
3.04 -0.439063
3.05 -0.40382
3.06 -0.377229
3.07 -0.360233
3.08 -0.355724
3.09 -0.363339
3.1 -0.383192
3.11 -0.414638
3.12 -0.454846
3.13 -0.50244
3.14 -0.553359
3.15 -0.604684
3.16 -0.652822
3.17 -0.695074
3.18 -0.727746
3.19 -0.750213
3.2 -0.759864
3.21 -0.757576
3.22 -0.743778
3.23 -0.719841
3.24 -0.689027
3.25 -0.653744
3.26 -0.618164
3.27 -0.585897
3.28 -0.560719
3.29 -0.545214
3.3 -0.543333
3.31 -0.554829
3.32 -0.582131
3.33 -0.623322
3.34 -0.677155
3.35 -0.741197
3.36 -0.81124
3.37 -0.883559
3.38 -0.953378
3.39 -1.01607
3.4 -1.06734
3.41 -1.10452
3.42 -1.12311
3.43 -1.12427
3.44 -1.1056
3.45 -1.0702
3.46 -1.02022
3.47 -0.959283
3.48 -0.89275
3.49 -0.82572
3.5 -0.76368
3.51 -0.71217
3.52 -0.675752
3.53 -0.656774
3.54 -0.659282
3.55 -0.68045
3.56 -0.720677
3.57 -0.774118
3.58 -0.835376
3.59 -0.896139
3.6 -0.94823
3.61 -0.978598
3.62 -0.97994
3.63 -0.939512
3.64 -0.848158
3.65 -0.701016
3.66 -0.485106
3.67 -0.206425
3.68 0.14373
3.69 0.556192
3.7 1.02641
3.71 1.54648
3.72 2.10035
3.73 2.6771
3.74 3.25714
3.75 3.82361
3.76 4.35755
3.77 4.84459
3.78 5.26097
3.79 5.60263
3.8 5.84749
3.81 5.99521
3.82 6.03946
3.83 5.97472
3.84 5.8148
3.85 5.55092
3.86 5.20762
3.87 4.78991
3.88 4.31526
3.89 3.80096
3.9 3.26157
3.91 2.71613
3.92 2.18048
3.93 1.6687
3.94 1.19284
3.95 0.765452
3.96 0.387948
3.97 0.073677
3.98 -0.18499
3.99 -0.384225
4 -0.529209
4.01 -0.627521
4.02 -0.681758
4.03 -0.705215
4.04 -0.70255
4.05 -0.684513
4.06 -0.658027
4.07 -0.630219
4.08 -0.606186
4.09 -0.591223
4.1 -0.586565
4.11 -0.594158
4.12 -0.613394
4.13 -0.642354
4.14 -0.679381
4.15 -0.720493
4.16 -0.762625
4.17 -0.802087
4.18 -0.835778
4.19 -0.860334
4.2 -0.874753
4.21 -0.875687
4.22 -0.864415
4.23 -0.839953
4.24 -0.803431
4.25 -0.756643
4.26 -0.700381
4.27 -0.637751
4.28 -0.570018
4.29 -0.499585
4.3 -0.427957
4.31 -0.356543
4.32 -0.28614
4.33 -0.21748
4.34 -0.150412
4.35 -0.0848557
4.36 -0.0202989
4.37 0.0438097
4.38 0.108024
4.39 0.172695
4.4 0.238023
4.41 0.303738
4.42 0.369288
4.43 0.433556
4.44 0.495441
4.45 0.552615
4.46 0.603837
4.47 0.646602
4.48 0.678948
4.49 0.699737
4.5 0.705918
4.51 0.698431
4.52 0.674909
4.53 0.636762
4.54 0.584379
4.55 0.518548
4.56 0.442321
4.57 0.356552
4.58 0.265195
4.59 0.170497
4.6 0.0755938
4.61 -0.0170285
4.62 -0.104301
4.63 -0.184986
4.64 -0.256564
4.65 -0.318738
4.66 -0.370938
4.67 -0.412857
4.68 -0.446155
4.69 -0.47063
4.7 -0.48895
4.71 -0.50218
4.72 -0.512287
4.73 -0.520954
4.74 -0.529747
4.75 -0.539834
4.76 -0.552348
4.77 -0.567644
4.78 -0.585902
4.79 -0.606999
4.8 -0.630136
4.81 -0.654722
4.82 -0.679561
4.83 -0.703628
4.84 -0.725803
4.85 -0.745325
4.86 -0.761023
4.87 -0.772933
4.88 -0.780334
4.89 -0.783686
4.9 -0.783274
4.91 -0.779615
4.92 -0.773788
4.93 -0.766506
4.94 -0.758966
4.95 -0.752097
4.96 -0.746832
4.97 -0.743745
4.98 -0.743683
4.99 -0.746513
5 -0.752665
5.01 -0.761684
5.02 -0.773269
5.03 -0.786963
5.04 -0.801994
5.05 -0.817842
5.06 -0.833761
5.07 -0.849197
5.08 -0.863642
5.09 -0.876811
5.1 -0.888262
5.11 -0.898073
5.12 -0.90592
5.13 -0.911869
5.14 -0.915762
5.15 -0.917233
5.16 -0.916184
5.17 -0.911513
5.18 -0.902907
5.19 -0.88899
5.2 -0.8685
5.21 -0.840477
5.22 -0.802302
5.23 -0.753906
5.24 -0.692495
5.25 -0.617947
5.26 -0.529343
5.27 -0.425708
5.28 -0.308908
5.29 -0.177861
5.3 -0.036251
5.31 0.114469
5.32 0.27079
5.33 0.429083
5.34 0.584842
5.35 0.73418
5.36 0.871457
5.37 0.992976
5.38 1.09458
5.39 1.1712
5.4 1.22283
5.41 1.24289
5.42 1.2347
5.43 1.19582
5.44 1.12797
5.45 1.03455
5.46 0.916027
5.47 0.779456
5.48 0.627226
5.49 0.465764
5.5 0.299769
5.51 0.134698
5.52 -0.0252129
5.53 -0.174225
5.54 -0.310265
5.55 -0.429525
5.56 -0.530281
5.57 -0.612646
5.58 -0.674394
5.59 -0.719078
5.6 -0.746098
5.61 -0.759082
5.62 -0.760183
5.63 -0.751822
5.64 -0.737425
5.65 -0.718814
5.66 -0.698702
5.67 -0.678576
5.68 -0.659644
5.69 -0.642325
5.7 -0.626766
5.71 -0.612195
5.72 -0.597706
5.73 -0.581963
5.74 -0.56361
5.75 -0.540949
5.76 -0.513312
5.77 -0.47881
5.78 -0.437891
5.79 -0.390019
5.8 -0.33591
5.81 -0.276894
5.82 -0.214221
5.83 -0.150325
5.84 -0.0875208
5.85 -0.0283676
5.86 0.0246833
5.87 0.0686276
5.88 0.10251
5.89 0.122733
5.9 0.130028
5.91 0.122784
5.92 0.101357
5.93 0.0671727
5.94 0.0202075
5.95 -0.0360703
5.96 -0.100539
5.97 -0.169961
5.98 -0.241982
5.99 -0.313921
6 -0.383694
6.01 -0.448702
6.02 -0.508072
6.03 -0.560339
6.04 -0.605095
6.05 -0.642779
6.06 -0.673138
6.07 -0.698057
6.08 -0.718134
6.09 -0.735248
6.1 -0.750758
6.11 -0.766157
6.12 -0.782561
6.13 -0.801189
6.14 -0.822298
6.15 -0.846255
6.16 -0.872766
6.17 -0.901157
6.18 -0.930637
6.19 -0.960012
6.2 -0.988006
6.21 -1.01349
6.22 -1.03543
6.23 -1.05272
6.24 -1.0654
6.25 -1.07252
6.26 -1.07507
6.27 -1.07324
6.28 -1.06806
6.29 -1.06066
6.3 -1.05208
6.31 -1.04347
6.32 -1.03564
6.33 -1.02894
6.34 -1.02324
6.35 -1.01764
6.36 -1.01072
6.37 -0.999599
6.38 -0.981758
6.39 -0.952966
6.4 -0.908757
6.41 -0.845804
6.42 -0.756457
6.43 -0.640029
6.44 -0.488861
6.45 -0.302336
6.46 -0.0780677
6.47 0.186785
6.48 0.487235
6.49 0.826497
6.5 1.19521
6.51 1.59017
6.52 2.0031
6.53 2.42516
6.54 2.84634
6.55 3.25682
6.56 3.64395
6.57 3.99833
6.58 4.31008
6.59 4.56664
6.6 4.76681
6.61 4.8943
6.62 4.95479
6.63 4.94084
6.64 4.85379
6.65 4.69988
6.66 4.47612
6.67 4.1982
6.68 3.86769
6.69 3.49863
6.7 3.10041
6.71 2.68373
6.72 2.26051
6.73 1.84168
6.74 1.43644
6.75 1.05436
6.76 0.703029
6.77 0.385921
6.78 0.111887
6.79 -0.122757
6.8 -0.312327
6.81 -0.461297
6.82 -0.571428
6.83 -0.644504
6.84 -0.688375
6.85 -0.703668
6.86 -0.699302
6.87 -0.678574
6.88 -0.646861
6.89 -0.608668
6.9 -0.567383
6.91 -0.526219
6.92 -0.487467
6.93 -0.452456
6.94 -0.421952
6.95 -0.396433
6.96 -0.375157
6.97 -0.358234
6.98 -0.344408
6.99 -0.333272
7 -0.324183
7.01 -0.316705
7.02 -0.310941
7.03 -0.306854
7.04 -0.305173
7.05 -0.306467
7.06 -0.311593
7.07 -0.321818
7.08 -0.337418
7.09 -0.360143
7.1 -0.389557
7.11 -0.426382
7.12 -0.470317
7.13 -0.520414
7.14 -0.576287
7.15 -0.635825
7.16 -0.697728
7.17 -0.759814
7.18 -0.820196
7.19 -0.876554
7.2 -0.927656
7.21 -0.970872
7.22 -1.00608
7.23 -1.03195
7.24 -1.04837
7.25 -1.05617
7.26 -1.05521
7.27 -1.04789
7.28 -1.03511
7.29 -1.01923
7.3 -1.00207
7.31 -0.985727
7.32 -0.971669
7.33 -0.961838
7.34 -0.956586
7.35 -0.956623
7.36 -0.961613
7.37 -0.970477
7.38 -0.981997
7.39 -0.993865
7.4 -1.00354
7.41 -1.00825
7.42 -1.00522
7.43 -0.990737
7.44 -0.963589
7.45 -0.919065
7.46 -0.857693
7.47 -0.777051
7.48 -0.676977
7.49 -0.559003
7.5 -0.422339
7.51 -0.271543
7.52 -0.107768
7.53 0.0643861
7.54 0.241282
7.55 0.418398
7.56 0.591707
7.57 0.755658
7.58 0.907348
7.59 1.04217
7.6 1.15681
7.61 1.2501
7.62 1.31719
7.63 1.36061
7.64 1.37703
7.65 1.36889
7.66 1.33709
7.67 1.28224
7.68 1.2089
7.69 1.11703
7.7 1.01203
7.71 0.895885
7.72 0.77213
7.73 0.644022
7.74 0.514411
7.75 0.386149
7.76 0.26203
7.77 0.144107
7.78 0.0342523
7.79 -0.0652256
7.8 -0.154226
7.81 -0.229842
7.82 -0.293073
7.83 -0.342471
7.84 -0.377939
7.85 -0.400331
7.86 -0.408328
7.87 -0.404458
7.88 -0.388109
7.89 -0.361399
7.9 -0.325583
7.91 -0.282027
7.92 -0.233316
7.93 -0.180995
7.94 -0.127818
7.95 -0.0760055
7.96 -0.0281128
7.97 0.0140184
7.98 0.047216
7.99 0.0709302
8 0.0823888
8.01 0.0813533
8.02 0.0671793
8.03 0.0390314
8.04 -0.00114998
8.05 -0.0542146
8.06 -0.116983
8.07 -0.188367
8.08 -0.26588
8.09 -0.346969
8.1 -0.429233
8.11 -0.510178
8.12 -0.587296
8.13 -0.65882
8.14 -0.723268
8.15 -0.779045
8.16 -0.826607
8.17 -0.864623
8.18 -0.89487
8.19 -0.917692
8.2 -0.934586
8.21 -0.947295
8.22 -0.957123
8.23 -0.965925
8.24 -0.974907
8.25 -0.985
8.26 -0.996574
8.27 -1.00947
8.28 -1.02273
8.29 -1.03464
8.3 -1.04312
8.31 -1.04517
8.32 -1.03728
8.33 -1.01684
8.34 -0.978
8.35 -0.919913
8.36 -0.836832
8.37 -0.727813
8.38 -0.590987
8.39 -0.423735
8.4 -0.229564
8.41 -0.00564785
8.42 0.241507
8.43 0.509985
8.44 0.794295
8.45 1.08821
8.46 1.38541
8.47 1.67866
8.48 1.9598
8.49 2.22201
8.5 2.45861
8.51 2.66089
8.52 2.82753
8.53 2.94768
8.54 3.02415
8.55 3.05182
8.56 3.03059
8.57 2.96429
8.58 2.84971
8.59 2.69693
8.6 2.50597
8.61 2.28542
8.62 2.04097
8.63 1.77867
8.64 1.50665
8.65 1.23087
8.66 0.95821
8.67 0.694542
8.68 0.445343
8.69 0.213583
8.7 0.00535586
8.71 -0.180366
8.72 -0.33938
8.73 -0.473197
8.74 -0.582182
8.75 -0.666303
8.76 -0.730052
8.77 -0.772877
8.78 -0.800311
8.79 -0.814124
8.8 -0.817758
8.81 -0.814558
8.82 -0.806857
8.83 -0.797694
8.84 -0.789133
8.85 -0.782991
8.86 -0.78053
8.87 -0.782989
8.88 -0.790273
8.89 -0.803271
8.9 -0.820998
8.91 -0.843288
8.92 -0.869291
8.93 -0.897958
8.94 -0.928501
8.95 -0.959685
8.96 -0.990572
8.97 -1.02023
8.98 -1.04794
8.99 -1.07286
9 -1.09489
9.01 -1.11325
9.02 -1.1283
9.03 -1.13984
9.04 -1.14811
9.05 -1.15354
9.06 -1.15615
9.07 -1.15669
9.08 -1.15522
9.09 -1.15218
9.1 -1.14772
9.11 -1.14182
9.12 -1.13455
9.13 -1.1254
9.14 -1.11421
9.15 -1.1003
9.16 -1.08299
9.17 -1.06186
9.18 -1.03555
9.19 -1.00413
9.2 -0.966349
9.21 -0.922203
9.22 -0.871481
9.23 -0.813846
9.24 -0.750389
9.25 -0.680944
9.26 -0.607304
9.27 -0.530458
9.28 -0.452177
9.29 -0.374212
9.3 -0.298884
9.31 -0.227797
9.32 -0.163574
9.33 -0.107728
9.34 -0.0618396
9.35 -0.02803
9.36 -0.00582498
9.37 0.00236782
9.38 -0.00163051
9.39 -0.018183
9.4 -0.0460907
9.41 -0.083291
9.42 -0.128873
9.43 -0.179595
9.44 -0.233661
9.45 -0.288296
9.46 -0.341295
9.47 -0.390116
9.48 -0.433509
9.49 -0.468942
9.5 -0.496421
9.51 -0.514897
9.52 -0.524454
9.53 -0.526148
9.54 -0.520079
9.55 -0.508663
9.56 -0.492976
9.57 -0.475269
9.58 -0.45733
9.59 -0.44122
9.6 -0.428258
9.61 -0.420499
9.62 -0.418304
9.63 -0.422664
9.64 -0.433746
9.65 -0.450912
9.66 -0.474282
9.67 -0.502113
9.68 -0.533778
9.69 -0.567688
9.7 -0.602649
9.71 -0.637384
9.72 -0.670982
9.73 -0.702389
9.74 -0.731387
9.75 -0.757614
9.76 -0.781162
9.77 -0.802466
9.78 -0.821707
9.79 -0.839603
9.8 -0.856345
9.81 -0.872136
9.82 -0.886757
9.83 -0.899349
9.84 -0.909007
9.85 -0.913197
9.86 -0.910142
9.87 -0.8964
9.88 -0.86822
9.89 -0.823085
9.9 -0.754133
9.91 -0.66093
9.92 -0.536742
9.93 -0.380448
9.94 -0.189909
9.95 0.0384473
9.96 0.300449
9.97 0.600014
9.98 0.929611
9.99 1.28729
10 1.66687
10.01 2.06074
10.02 2.46178
10.03 2.86065
10.04 3.24763
10.05 3.6137
10.06 3.95038
10.07 4.24623
10.08 4.49892
10.09 4.69448
10.1 4.83532
10.11 4.91459
10.12 4.93115
10.13 4.8896
10.14 4.78479
10.15 4.62944
10.16 4.42308
10.17 4.17628
10.18 3.89627
10.19 3.59027
10.2 3.26899
10.21 2.93944
10.22 2.61071
10.23 2.28988
10.24 1.98379
10.25 1.69612
10.26 1.43387
10.27 1.19592
10.28 0.986584
10.29 0.803998
10.3 0.647183
10.31 0.515628
10.32 0.40409
10.33 0.312264
10.34 0.234256
10.35 0.1677
10.36 0.108967
10.37 0.0548246
10.38 0.00294173
10.39 -0.0489766
10.4 -0.102488
10.41 -0.158496
10.42 -0.217408
10.43 -0.279393
10.44 -0.343742
10.45 -0.410066
10.46 -0.477236
10.47 -0.544379
10.48 -0.610436
10.49 -0.67466
10.5 -0.735892
10.51 -0.793935
10.52 -0.847902
10.53 -0.897712
10.54 -0.943181
10.55 -0.983906
10.56 -1.02037
10.57 -1.05187
10.58 -1.07898
10.59 -1.10129
10.6 -1.11865
10.61 -1.13121
10.62 -1.13798
10.63 -1.13951
10.64 -1.13485
10.65 -1.12417
10.66 -1.10733
10.67 -1.08395
10.68 -1.05491
10.69 -1.01975
10.7 -0.979843
10.71 -0.935669
10.72 -0.888372
10.73 -0.839265
10.74 -0.789661
10.75 -0.741016
10.76 -0.694949
10.77 -0.652781
10.78 -0.615715
10.79 -0.585353
10.8 -0.561758
10.81 -0.546704
10.82 -0.539462
10.83 -0.540588
10.84 -0.549786
10.85 -0.566031
10.86 -0.589423
10.87 -0.618046
10.88 -0.651435
10.89 -0.688071
10.9 -0.726867
10.91 -0.766708
10.92 -0.806537
10.93 -0.845345
10.94 -0.882505
10.95 -0.917342
10.96 -0.949405
10.97 -0.978649
10.98 -1.00455
10.99 -1.02759
11 -1.04753
11.01 -1.06475
11.02 -1.07946
11.03 -1.09179
11.04 -1.10224
11.05 -1.11081
11.06 -1.11798
11.07 -1.12392
11.08 -1.1289
11.09 -1.1332
11.1 -1.13701
11.11 -1.14061
11.12 -1.14421
11.13 -1.14797
11.14 -1.152
11.15 -1.15631
11.16 -1.16077
11.17 -1.16505
11.18 -1.16866
11.19 -1.17081
11.2 -1.17038
11.21 -1.16636
11.22 -1.15644
11.23 -1.13969
11.24 -1.11319
11.25 -1.0753
11.26 -1.02403
11.27 -0.95607
11.28 -0.871565
11.29 -0.766123
11.3 -0.641164
11.31 -0.494844
11.32 -0.327275
11.33 -0.14069
11.34 0.0656642
11.35 0.286595
11.36 0.520482
11.37 0.762238
11.38 1.00748
11.39 1.25063
11.4 1.48691
11.41 1.709
11.42 1.9131
11.43 2.09303
11.44 2.2437
11.45 2.36359
11.46 2.44491
11.47 2.49117
11.48 2.49726
11.49 2.46601
11.5 2.39894
11.51 2.2964
11.52 2.16561
11.53 2.00689
11.54 1.82861
11.55 1.63461
11.56 1.43087
11.57 1.22293
11.58 1.01614
11.59 0.814794
11.6 0.623676
11.61 0.445561
11.62 0.282615
11.63 0.137576
11.64 0.0089774
11.65 -0.100829
11.66 -0.195099
11.67 -0.274329
11.68 -0.340705
11.69 -0.397216
11.7 -0.445278
11.71 -0.488409
11.72 -0.528292
11.73 -0.567158
11.74 -0.60642
11.75 -0.647269
11.76 -0.690003
11.77 -0.73491
11.78 -0.781213
11.79 -0.828083
11.8 -0.874077
11.81 -0.917818
11.82 -0.956935
11.83 -0.990292
11.84 -1.01531
11.85 -1.03069
11.86 -1.03507
11.87 -1.02624
11.88 -1.00486
11.89 -0.968261
11.9 -0.918063
11.91 -0.85351
11.92 -0.775095
11.93 -0.684529
11.94 -0.581365
11.95 -0.468728
11.96 -0.347148
11.97 -0.219113
11.98 -0.0865202
11.99 0.0485517
12 0.183784
12.01 0.316677
12.02 0.445198
12.03 0.566885
12.04 0.679324
12.05 0.7813
12.06 0.869121
12.07 0.943171
12.08 1.00035
12.09 1.04055
12.1 1.06322
12.11 1.06677
12.12 1.05354
12.13 1.02155
12.14 0.974139
12.15 0.911766
12.16 0.836444
12.17 0.751089
12.18 0.657101
12.19 0.558242
12.2 0.456675
12.21 0.355349
12.22 0.256567
12.23 0.162998
12.24 0.0757381
12.25 -0.00267075
12.26 -0.0723815
12.27 -0.132486
12.28 -0.183114
12.29 -0.225523
12.3 -0.259772
12.31 -0.288411
12.32 -0.312492
12.33 -0.334213
12.34 -0.355284
12.35 -0.377561
12.36 -0.402229
12.37 -0.430854
12.38 -0.46359
12.39 -0.500805
12.4 -0.542057
12.41 -0.586205
