# xPDFsuite Configuration #
[PDF]
wavelength = 0.1432
dataformat = twotheta
inputfile = 1_1Pd_CeO2_cycle-00370.chi
backgroundfile = background-00000.chi
mode = xray
bgscale = 1.007
composition = CeO2
outputtype = gr
qmaxinst = 28.8974762299
qmin = 0.5
qmax = 27.9
rmax = 50.0
rmin = 0.0
rstep = 0.01
rpoly = 1.8657

[Misc]
inputdir = G:/SankarDec16/1Pd/Chi
savedir = D:/DATA/APS_CeO2/1Pd
backgroundfilefull = G:/SankarDec16/Background/background-00000.chi

#### start data
#S 1
#L r($\AA$)  G($\AA^{-2}$)
0 0
0.01 -0.00703058
0.02 -0.013532
0.03 -0.0189594
0.04 -0.0229022
0.05 -0.025132
0.06 -0.0252812
0.07 -0.0235939
0.08 -0.0199516
0.09 -0.0148204
0.1 -0.00852282
0.11 -0.00155251
0.12 0.0055513
0.13 0.0121843
0.14 0.0179173
0.15 0.0222253
0.16 0.0248
0.17 0.0255178
0.18 0.0241269
0.19 0.0209858
0.2 0.0161068
0.21 0.0100334
0.22 0.00316648
0.23 -0.00393967
0.24 -0.010777
0.25 -0.0166944
0.26 -0.0213825
0.27 -0.0243611
0.28 -0.0254387
0.29 -0.0246023
0.3 -0.0217282
0.31 -0.0172724
0.32 -0.0113778
0.33 -0.00463997
0.34 0.00248051
0.35 0.00939442
0.36 0.0156489
0.37 0.0205767
0.38 0.0240025
0.39 0.0255142
0.4 0.0250459
0.41 0.0226965
0.42 0.0184763
0.43 0.0129178
0.44 0.00628816
0.45 -0.000792759
0.46 -0.00782627
0.47 -0.0142155
0.48 -0.0195843
0.49 -0.0232809
0.5 -0.0252726
0.51 -0.0252347
0.52 -0.0232309
0.53 -0.0194675
0.54 -0.014089
0.55 -0.00767985
0.56 -0.000619053
0.57 0.00647781
0.58 0.0130977
0.59 0.0186636
0.6 0.0228947
0.61 0.0251848
0.62 0.0256465
0.63 0.0240581
0.64 0.0206103
0.65 0.0156077
0.66 0.00932316
0.67 0.00236551
0.68 -0.00479164
0.69 -0.0115656
0.7 -0.0174531
0.71 -0.021924
0.72 -0.0248061
0.73 -0.0255675
0.74 -0.0244606
0.75 -0.0213774
0.76 -0.0166264
0.77 -0.010596
0.78 -0.00367377
0.79 0.00353577
0.8 0.0104884
0.81 0.0166618
0.82 0.0215878
0.83 0.0248087
0.84 0.0262691
0.85 0.025538
0.86 0.0229941
0.87 0.0186471
0.88 0.0129067
0.89 0.0062231
0.9 -0.000924656
0.91 -0.0079704
0.92 -0.0143346
0.93 -0.0195873
0.94 -0.0233281
0.95 -0.0252071
0.96 -0.0252939
0.97 -0.0233023
0.98 -0.0197187
0.99 -0.0146885
1 -0.00870931
1.01 -0.00227306
1.02 0.00405841
1.03 0.00980125
1.04 0.0143616
1.05 0.0174453
1.06 0.0187546
1.07 0.0180902
1.08 0.0156769
1.09 0.0114309
1.1 0.00596311
1.11 -0.000393817
1.12 -0.00702181
1.13 -0.0133639
1.14 -0.0187081
1.15 -0.0226619
1.16 -0.0245368
1.17 -0.0241768
1.18 -0.0213465
1.19 -0.0159516
1.2 -0.00840114
1.21 0.00128072
1.22 0.0122783
1.23 0.0241081
1.24 0.0359857
1.25 0.0472297
1.26 0.0569416
1.27 0.0646901
1.28 0.0696043
1.29 0.071513
1.3 0.0700971
1.31 0.0651713
1.32 0.0572004
1.33 0.0460132
1.34 0.0325599
1.35 0.0172091
1.36 0.000765171
1.37 -0.0160489
1.38 -0.032422
1.39 -0.047748
1.4 -0.0612166
1.41 -0.072469
1.42 -0.0810879
1.43 -0.0867264
1.44 -0.0896139
1.45 -0.0893509
1.46 -0.0866037
1.47 -0.0814221
1.48 -0.0742832
1.49 -0.0656485
1.5 -0.0558523
1.51 -0.0454355
1.52 -0.0347136
1.53 -0.0240446
1.54 -0.0136681
1.55 -0.00379679
1.56 0.00551547
1.57 0.0141011
1.58 0.0220483
1.59 0.0292956
1.6 0.0358695
1.61 0.0417905
1.62 0.0469509
1.63 0.0513841
1.64 0.054877
1.65 0.0573704
1.66 0.0586817
1.67 0.0585749
1.68 0.0570446
1.69 0.0536869
1.7 0.0486882
1.71 0.0418666
1.72 0.0333391
1.73 0.0233074
1.74 0.0118756
1.75 -0.000481828
1.76 -0.013491
1.77 -0.0266579
1.78 -0.0395737
1.79 -0.0517592
1.8 -0.0629474
1.81 -0.0726105
1.82 -0.0807674
1.83 -0.0871753
1.84 -0.091911
1.85 -0.0951746
1.86 -0.0970983
1.87 -0.0981799
1.88 -0.0987354
1.89 -0.0992594
1.9 -0.100148
1.91 -0.101822
1.92 -0.104455
1.93 -0.108399
1.94 -0.113475
1.95 -0.119659
1.96 -0.126608
1.97 -0.133895
1.98 -0.140934
1.99 -0.147158
2 -0.151739
2.01 -0.154129
2.02 -0.153685
2.03 -0.149718
2.04 -0.142235
2.05 -0.130365
2.06 -0.114714
2.07 -0.0950508
2.08 -0.0718214
2.09 -0.0455897
2.1 -0.0166758
2.11 0.0139796
2.12 0.045931
2.13 0.0784356
2.14 0.111018
2.15 0.143246
2.16 0.174943
2.17 0.205944
2.18 0.236458
2.19 0.266691
2.2 0.297049
2.21 0.327922
2.22 0.359866
2.23 0.393094
2.24 0.428041
2.25 0.464608
2.26 0.502658
2.27 0.541729
2.28 0.581044
2.29 0.61945
2.3 0.655796
2.31 0.688416
2.32 0.715674
2.33 0.736295
2.34 0.747768
2.35 0.749973
2.36 0.740479
2.37 0.719586
2.38 0.686764
2.39 0.641817
2.4 0.586659
2.41 0.521005
2.42 0.448139
2.43 0.369484
2.44 0.287831
2.45 0.205692
2.46 0.126025
2.47 0.0508829
2.48 -0.0167209
2.49 -0.0755209
2.5 -0.124007
2.51 -0.160885
2.52 -0.187164
2.53 -0.201517
2.54 -0.20671
2.55 -0.203377
2.56 -0.193838
2.57 -0.180382
2.58 -0.165254
2.59 -0.150853
2.6 -0.139539
2.61 -0.132917
2.62 -0.132397
2.63 -0.139178
2.64 -0.152784
2.65 -0.174067
2.66 -0.201083
2.67 -0.233107
2.68 -0.268227
2.69 -0.304587
2.7 -0.340079
2.71 -0.373019
2.72 -0.401269
2.73 -0.423841
2.74 -0.439741
2.75 -0.448257
2.76 -0.450257
2.77 -0.445384
2.78 -0.435773
2.79 -0.422476
2.8 -0.407517
2.81 -0.39272
2.82 -0.380261
2.83 -0.371452
2.84 -0.368276
2.85 -0.371245
2.86 -0.38094
2.87 -0.397536
2.88 -0.419757
2.89 -0.447245
2.9 -0.477658
2.91 -0.509407
2.92 -0.54023
2.93 -0.568271
2.94 -0.591026
2.95 -0.60766
2.96 -0.616102
2.97 -0.616416
2.98 -0.608394
2.99 -0.592359
3 -0.570189
3.01 -0.542784
3.02 -0.512991
3.03 -0.482892
3.04 -0.455108
3.05 -0.431654
3.06 -0.41534
3.07 -0.406734
3.08 -0.40796
3.09 -0.418533
3.1 -0.438341
3.11 -0.466626
3.12 -0.501051
3.13 -0.540205
3.14 -0.580921
3.15 -0.620736
3.16 -0.656846
3.17 -0.687247
3.18 -0.709083
3.19 -0.722211
3.2 -0.724801
3.21 -0.717948
3.22 -0.70236
3.23 -0.679581
3.24 -0.652453
3.25 -0.623467
3.26 -0.595959
3.27 -0.573131
3.28 -0.558015
3.29 -0.552528
3.3 -0.559841
3.31 -0.579227
3.32 -0.61239
3.33 -0.657199
3.34 -0.712156
3.35 -0.774687
3.36 -0.840982
3.37 -0.907298
3.38 -0.969645
3.39 -1.02382
3.4 -1.06626
3.41 -1.0949
3.42 -1.10603
3.43 -1.10118
3.44 -1.07865
3.45 -1.04164
3.46 -0.992479
3.47 -0.934808
3.48 -0.873516
3.49 -0.813558
3.5 -0.759598
3.51 -0.716615
3.52 -0.688382
3.53 -0.676607
3.54 -0.684453
3.55 -0.708807
3.56 -0.749336
3.57 -0.800203
3.58 -0.855933
3.59 -0.90831
3.6 -0.949826
3.61 -0.967757
3.62 -0.955837
3.63 -0.902124
3.64 -0.798486
3.65 -0.640883
3.66 -0.417551
3.67 -0.134801
3.68 0.215013
3.69 0.622744
3.7 1.08366
3.71 1.58989
3.72 2.12625
3.73 2.682
3.74 3.239
3.75 3.78127
3.76 4.2912
3.77 4.75555
3.78 5.15209
3.79 5.47746
3.8 5.71103
3.81 5.85278
3.82 5.89689
3.83 5.83823
3.84 5.68982
3.85 5.44322
3.86 5.12139
3.87 4.72873
3.88 4.28134
3.89 3.79521
3.9 3.28349
3.91 2.76402
3.92 2.25119
3.93 1.75826
3.94 1.29646
3.95 0.87757
3.96 0.503365
3.97 0.186409
3.98 -0.0797018
3.99 -0.290942
4 -0.451467
4.01 -0.567758
4.02 -0.641412
4.03 -0.684444
4.04 -0.700358
4.05 -0.698935
4.06 -0.686254
4.07 -0.66859
4.08 -0.651041
4.09 -0.638089
4.1 -0.631691
4.11 -0.633769
4.12 -0.644365
4.13 -0.662339
4.14 -0.686685
4.15 -0.714464
4.16 -0.743446
4.17 -0.77078
4.18 -0.794064
4.19 -0.810666
4.2 -0.819705
4.21 -0.818532
4.22 -0.807998
4.23 -0.787229
4.24 -0.756959
4.25 -0.718453
4.26 -0.672119
4.27 -0.620273
4.28 -0.563648
4.29 -0.504001
4.3 -0.442337
4.31 -0.379537
4.32 -0.316248
4.33 -0.252726
4.34 -0.189038
4.35 -0.125008
4.36 -0.0603467
4.37 0.00518384
4.38 0.0719261
4.39 0.139753
4.4 0.208579
4.41 0.277767
4.42 0.346506
4.43 0.413436
4.44 0.477399
4.45 0.535917
4.46 0.587897
4.47 0.63089
4.48 0.663126
4.49 0.683671
4.5 0.689707
4.51 0.682359
4.52 0.65949
4.53 0.622605
4.54 0.572174
4.55 0.509023
4.56 0.436073
4.57 0.354132
4.58 0.266898
4.59 0.176428
4.6 0.0856002
4.61 -0.00331018
4.62 -0.0875232
4.63 -0.165881
4.64 -0.236088
4.65 -0.297821
4.66 -0.350511
4.67 -0.39379
4.68 -0.429089
4.69 -0.456077
4.7 -0.477107
4.71 -0.493006
4.72 -0.505467
4.73 -0.515984
4.74 -0.525855
4.75 -0.536241
4.76 -0.548129
4.77 -0.561989
4.78 -0.578098
4.79 -0.596512
4.8 -0.616711
4.81 -0.638387
4.82 -0.660647
4.83 -0.682788
4.84 -0.703968
4.85 -0.723576
4.86 -0.740736
4.87 -0.755354
4.88 -0.766833
4.89 -0.775381
4.9 -0.781088
4.91 -0.784179
4.92 -0.785339
4.93 -0.784868
4.94 -0.783585
4.95 -0.781989
4.96 -0.780662
4.97 -0.779995
4.98 -0.780447
4.99 -0.782059
5 -0.785066
5.01 -0.789311
5.02 -0.794692
5.03 -0.801043
5.04 -0.80806
5.05 -0.815593
5.06 -0.823372
5.07 -0.831264
5.08 -0.839152
5.09 -0.846978
5.1 -0.854694
5.11 -0.862276
5.12 -0.869615
5.13 -0.87655
5.14 -0.882783
5.15 -0.88774
5.16 -0.89093
5.17 -0.891012
5.18 -0.887273
5.19 -0.878055
5.2 -0.861822
5.21 -0.837468
5.22 -0.802174
5.23 -0.755953
5.24 -0.695978
5.25 -0.622325
5.26 -0.534245
5.27 -0.431004
5.28 -0.314704
5.29 -0.184552
5.3 -0.0443791
5.31 0.104172
5.32 0.257525
5.33 0.412104
5.34 0.563431
5.35 0.707899
5.36 0.840094
5.37 0.956682
5.38 1.05385
5.39 1.127
5.4 1.17632
5.41 1.1958
5.42 1.18876
5.43 1.15304
5.44 1.09035
5.45 1.0039
5.46 0.894122
5.47 0.767516
5.48 0.626182
5.49 0.475951
5.5 0.321018
5.51 0.166221
5.52 0.0154138
5.53 -0.126375
5.54 -0.257167
5.55 -0.373551
5.56 -0.473867
5.57 -0.558063
5.58 -0.623969
5.59 -0.674528
5.6 -0.708913
5.61 -0.730108
5.62 -0.73976
5.63 -0.739685
5.64 -0.732866
5.65 -0.720491
5.66 -0.705109
5.67 -0.687866
5.68 -0.66991
5.69 -0.651824
5.7 -0.633779
5.71 -0.615553
5.72 -0.596547
5.73 -0.576018
5.74 -0.553111
5.75 -0.526719
5.76 -0.496513
5.77 -0.461231
5.78 -0.421329
5.79 -0.376533
5.8 -0.327479
5.81 -0.275209
5.82 -0.220783
5.83 -0.165983
5.84 -0.112638
5.85 -0.062628
5.86 -0.0178
5.87 0.0195628
5.88 0.0488094
5.89 0.0671328
5.9 0.0751515
5.91 0.0715638
5.92 0.0565825
5.93 0.0312442
5.94 -0.00467464
5.95 -0.048543
5.96 -0.0997657
5.97 -0.155937
5.98 -0.215403
5.99 -0.276306
6 -0.336969
6.01 -0.395677
6.02 -0.451512
6.03 -0.503393
6.04 -0.550826
6.05 -0.593889
6.06 -0.632211
6.07 -0.666818
6.08 -0.697861
6.09 -0.72638
6.1 -0.753061
6.11 -0.778621
6.12 -0.803736
6.13 -0.828835
6.14 -0.854155
6.15 -0.879723
6.16 -0.905312
6.17 -0.930565
6.18 -0.954823
6.19 -0.977629
6.2 -0.998129
6.21 -1.0159
6.22 -1.03048
6.23 -1.04141
6.24 -1.04903
6.25 -1.05298
6.26 -1.05417
6.27 -1.05296
6.28 -1.05016
6.29 -1.04654
6.3 -1.04278
6.31 -1.03939
6.32 -1.03663
6.33 -1.03425
6.34 -1.0316
6.35 -1.02723
6.36 -1.01966
6.37 -1.00553
6.38 -0.982705
6.39 -0.947041
6.4 -0.894576
6.41 -0.822599
6.42 -0.72419
6.43 -0.599428
6.44 -0.441605
6.45 -0.250788
6.46 -0.0252657
6.47 0.237046
6.48 0.531256
6.49 0.859839
6.5 1.21418
6.51 1.59117
6.52 1.98326
6.53 2.38255
6.54 2.77996
6.55 3.16688
6.56 3.53191
6.57 3.8668
6.58 4.16265
6.59 4.40817
6.6 4.60226
6.61 4.72997
6.62 4.7963
6.63 4.79417
6.64 4.72433
6.65 4.59216
6.66 4.39414
6.67 4.14438
6.68 3.84354
6.69 3.50421
6.7 3.13463
6.71 2.74416
6.72 2.34412
6.73 1.94401
6.74 1.55312
6.75 1.18037
6.76 0.833396
6.77 0.516158
6.78 0.237462
6.79 -0.00515873
6.8 -0.205649
6.81 -0.367378
6.82 -0.491319
6.83 -0.578393
6.84 -0.635768
6.85 -0.663312
6.86 -0.669677
6.87 -0.657789
6.88 -0.632968
6.89 -0.599911
6.9 -0.562062
6.91 -0.523202
6.92 -0.485917
6.93 -0.452074
6.94 -0.422841
6.95 -0.399119
6.96 -0.380359
6.97 -0.366963
6.98 -0.357549
6.99 -0.351658
7 -0.348352
7.01 -0.346827
7.02 -0.346692
7.03 -0.347486
7.04 -0.349327
7.05 -0.352423
7.06 -0.357278
7.07 -0.364781
7.08 -0.375395
7.09 -0.390585
7.1 -0.410507
7.11 -0.436129
7.12 -0.467766
7.13 -0.505127
7.14 -0.548592
7.15 -0.596706
7.16 -0.649024
7.17 -0.70387
7.18 -0.759834
7.19 -0.815108
7.2 -0.868219
7.21 -0.916956
7.22 -0.96044
7.23 -0.997091
7.24 -1.02607
7.25 -1.04741
7.26 -1.06013
7.27 -1.06579
7.28 -1.06433
7.29 -1.05747
7.3 -1.04644
7.31 -1.03271
7.32 -1.01795
7.33 -1.00357
7.34 -0.990689
7.35 -0.980227
7.36 -0.972585
7.37 -0.967526
7.38 -0.964685
7.39 -0.962698
7.4 -0.96003
7.41 -0.954674
7.42 -0.944502
7.43 -0.926569
7.44 -0.899539
7.45 -0.859384
7.46 -0.805912
7.47 -0.736617
7.48 -0.650676
7.49 -0.548795
7.5 -0.429462
7.51 -0.296197
7.52 -0.149223
7.53 0.00771251
7.54 0.171704
7.55 0.339053
7.56 0.505794
7.57 0.667172
7.58 0.819779
7.59 0.959107
7.6 1.08141
7.61 1.18487
7.62 1.2642
7.63 1.32099
7.64 1.35126
7.65 1.35669
7.66 1.33753
7.67 1.29374
7.68 1.22967
7.69 1.14468
7.7 1.04439
7.71 0.930666
7.72 0.807277
7.73 0.677881
7.74 0.545575
7.75 0.413829
7.76 0.28582
7.77 0.164086
7.78 0.0508596
7.79 -0.0511979
7.8 -0.141898
7.81 -0.218106
7.82 -0.281012
7.83 -0.329247
7.84 -0.362987
7.85 -0.3834
7.86 -0.389536
7.87 -0.384247
7.88 -0.367318
7.89 -0.341091
7.9 -0.307007
7.91 -0.266607
7.92 -0.2223
7.93 -0.175684
7.94 -0.129097
7.95 -0.0845007
7.96 -0.0440038
7.97 -0.00903209
7.98 0.0177977
7.99 0.0362425
8 0.0440649
8.01 0.0412189
8.02 0.0272524
8.03 0.00152572
8.04 -0.0343123
8.05 -0.0810041
8.06 -0.13594
8.07 -0.198304
8.08 -0.266134
8.09 -0.337381
8.1 -0.410221
8.11 -0.48258
8.12 -0.552509
8.13 -0.618513
8.14 -0.679356
8.15 -0.73369
8.16 -0.781737
8.17 -0.822334
8.18 -0.856734
8.19 -0.885069
8.2 -0.908365
8.21 -0.927897
8.22 -0.944477
8.23 -0.959539
8.24 -0.973807
8.25 -0.987945
8.26 -1.00211
8.27 -1.01592
8.28 -1.02862
8.29 -1.0384
8.3 -1.04364
8.31 -1.04157
8.32 -1.02913
8.33 -1.00413
8.34 -0.961275
8.35 -0.900053
8.36 -0.815245
8.37 -0.706146
8.38 -0.571111
8.39 -0.407764
8.4 -0.21938
8.41 -0.00330684
8.42 0.234456
8.43 0.492203
8.44 0.76491
8.45 1.04683
8.46 1.3322
8.47 1.61424
8.48 1.88541
8.49 2.13925
8.5 2.36947
8.51 2.5678
8.52 2.73285
8.53 2.85424
8.54 2.9344
8.55 2.96829
8.56 2.95554
8.57 2.89961
8.58 2.7971
8.59 2.65747
8.6 2.48046
8.61 2.27411
8.62 2.04374
8.63 1.79493
8.64 1.53555
8.65 1.27107
8.66 1.0083
8.67 0.75282
8.68 0.509976
8.69 0.282799
8.7 0.077143
8.71 -0.107694
8.72 -0.267617
8.73 -0.403862
8.74 -0.51664
8.75 -0.605768
8.76 -0.675406
8.77 -0.724878
8.78 -0.759376
8.79 -0.780467
8.8 -0.791337
8.81 -0.795131
8.82 -0.793913
8.83 -0.79062
8.84 -0.78708
8.85 -0.785043
8.86 -0.78569
8.87 -0.790153
8.88 -0.798455
8.89 -0.811375
8.9 -0.82815
8.91 -0.848666
8.92 -0.872246
8.93 -0.898041
8.94 -0.925428
8.95 -0.953406
8.96 -0.981236
8.97 -1.00817
8.98 -1.03364
8.99 -1.05699
9 -1.07811
9.01 -1.09637
9.02 -1.11203
9.03 -1.12489
9.04 -1.13505
9.05 -1.14281
9.06 -1.14804
9.07 -1.15126
9.08 -1.15236
9.09 -1.15159
9.1 -1.14897
9.11 -1.14429
9.12 -1.13763
9.13 -1.12835
9.14 -1.11641
9.15 -1.10118
9.16 -1.08213
9.17 -1.05901
9.18 -1.03067
9.19 -0.997403
9.2 -0.958204
9.21 -0.913259
9.22 -0.862516
9.23 -0.805828
9.24 -0.744242
9.25 -0.677736
9.26 -0.607898
9.27 -0.53564
9.28 -0.46251
9.29 -0.389992
9.3 -0.320112
9.31 -0.254173
9.32 -0.194438
9.33 -0.142161
9.34 -0.0986825
9.35 -0.0658354
9.36 -0.0431939
9.37 -0.032896
9.38 -0.0333833
9.39 -0.0450475
9.4 -0.0669314
9.41 -0.0972998
9.42 -0.135519
9.43 -0.178771
9.44 -0.22564
9.45 -0.273712
9.46 -0.321094
9.47 -0.365606
9.48 -0.406038
9.49 -0.440203
9.5 -0.467914
9.51 -0.48816
9.52 -0.50085
9.53 -0.506742
9.54 -0.505745
9.55 -0.499836
9.56 -0.489783
9.57 -0.47747
9.58 -0.464387
9.59 -0.452265
9.6 -0.442333
9.61 -0.436355
9.62 -0.434812
9.63 -0.438656
9.64 -0.448194
9.65 -0.463022
9.66 -0.483427
9.67 -0.508009
9.68 -0.536391
9.69 -0.56726
9.7 -0.599633
9.71 -0.632453
9.72 -0.66483
9.73 -0.69585
9.74 -0.725132
9.75 -0.752238
9.76 -0.777044
9.77 -0.79974
9.78 -0.820213
9.79 -0.838936
9.8 -0.855785
9.81 -0.870789
9.82 -0.883595
9.83 -0.893215
9.84 -0.898909
9.85 -0.898153
9.86 -0.889549
9.87 -0.869951
9.88 -0.836074
9.89 -0.785827
9.9 -0.71301
9.91 -0.617493
9.92 -0.493209
9.93 -0.339291
9.94 -0.15386
9.95 0.066323
9.96 0.317432
9.97 0.60314
9.98 0.916632
9.99 1.25628
10 1.61658
10.01 1.99068
10.02 2.37234
10.03 2.75297
10.04 3.12385
10.05 3.47667
10.06 3.80357
10.07 4.09398
10.08 4.3454
10.09 4.54477
10.1 4.69383
10.11 4.78583
10.12 4.81912
10.13 4.7975
10.14 4.71536
10.15 4.58423
10.16 4.40281
10.17 4.18062
10.18 3.92399
10.19 3.6391
10.2 3.33624
10.21 3.02129
10.22 2.70343
10.23 2.38926
10.24 2.08562
10.25 1.79665
10.26 1.52925
10.27 1.28338
10.28 1.06365
10.29 0.869149
10.3 0.699638
10.31 0.55542
10.32 0.431914
10.33 0.329641
10.34 0.24304
10.35 0.170233
10.36 0.107818
10.37 0.0524403
10.38 0.00197468
10.39 -0.0464934
10.4 -0.0946663
10.41 -0.144078
10.42 -0.195641
10.43 -0.25011
10.44 -0.307302
10.45 -0.367453
10.46 -0.429743
10.47 -0.493707
10.48 -0.558512
10.49 -0.623361
10.5 -0.687303
10.51 -0.749691
10.52 -0.809562
10.53 -0.86636
10.54 -0.919517
10.55 -0.968179
10.56 -1.01241
10.57 -1.051
10.58 -1.08427
10.59 -1.11148
10.6 -1.13228
10.61 -1.14684
10.62 -1.15402
10.63 -1.15467
10.64 -1.14794
10.65 -1.13433
10.66 -1.11405
10.67 -1.08703
10.68 -1.05452
10.69 -1.01641
10.7 -0.974295
10.71 -0.928895
10.72 -0.881487
10.73 -0.833341
10.74 -0.785858
10.75 -0.740199
10.76 -0.697873
10.77 -0.659874
10.78 -0.627119
10.79 -0.600864
10.8 -0.580912
10.81 -0.568647
10.82 -0.563215
10.83 -0.564948
10.84 -0.573453
10.85 -0.58779
10.86 -0.607981
10.87 -0.632448
10.88 -0.660839
10.89 -0.691989
10.9 -0.725105
10.91 -0.759434
10.92 -0.794193
10.93 -0.828773
10.94 -0.862688
10.95 -0.895508
10.96 -0.926893
10.97 -0.956733
10.98 -0.984614
10.99 -1.01069
11 -1.03463
11.01 -1.05647
11.02 -1.07616
11.03 -1.09346
11.04 -1.10858
11.05 -1.12113
11.06 -1.13143
11.07 -1.13937
11.08 -1.14506
11.09 -1.14882
11.1 -1.15067
11.11 -1.15117
11.12 -1.15055
11.13 -1.14928
11.14 -1.1477
11.15 -1.14613
11.16 -1.14473
11.17 -1.14352
11.18 -1.14224
11.19 -1.14039
11.2 -1.13704
11.21 -1.13127
11.22 -1.12102
11.23 -1.10518
11.24 -1.08097
11.25 -1.04656
11.26 -0.999861
11.27 -0.937476
11.28 -0.859271
11.29 -0.760771
11.3 -0.643135
11.31 -0.504378
11.32 -0.344436
11.33 -0.165409
11.34 0.0336087
11.35 0.247495
11.36 0.474761
11.37 0.710377
11.38 0.95003
11.39 1.18826
11.4 1.42029
11.41 1.63901
11.42 1.84059
11.43 2.019
11.44 2.16926
11.45 2.28988
11.46 2.3733
11.47 2.42292
11.48 2.4338
11.49 2.40871
11.5 2.34908
11.51 2.25527
11.52 2.1342
11.53 1.98612
11.54 1.81903
11.55 1.6365
11.56 1.44414
11.57 1.24719
11.58 1.05052
11.59 0.858228
11.6 0.674657
11.61 0.502411
11.62 0.343494
11.63 0.200408
11.64 0.0719115
11.65 -0.0398397
11.66 -0.137672
11.67 -0.221937
11.68 -0.294459
11.69 -0.357804
11.7 -0.413004
11.71 -0.463122
11.72 -0.509406
11.73 -0.553731
11.74 -0.597228
11.75 -0.640751
11.76 -0.684655
11.77 -0.728966
11.78 -0.773205
11.79 -0.816626
11.8 -0.858092
11.81 -0.896617
11.82 -0.930203
11.83 -0.958182
11.84 -0.978446
11.85 -0.990098
11.86 -0.992106
11.87 -0.982709
11.88 -0.962521
11.89 -0.929292
11.9 -0.884351
11.91 -0.826949
11.92 -0.757336
11.93 -0.676822
11.94 -0.584687
11.95 -0.483496
11.96 -0.373346
11.97 -0.256236
11.98 -0.133654
11.99 -0.00717124
12 0.121028
12.01 0.248954
12.02 0.37447
12.03 0.495286
12.04 0.608942
12.05 0.713952
12.06 0.806642
12.07 0.886876
12.08 0.951394
12.09 0.999666
12.1 1.03082
12.11 1.04296
12.12 1.03813
12.13 1.01407
12.14 0.973982
12.15 0.918157
12.16 0.84852
12.17 0.768021
12.18 0.677953
12.19 0.582249
12.2 0.483045
12.21 0.383412
12.22 0.285721
12.23 0.192665
12.24 0.105448
12.25 0.0265705
12.26 -0.0440485
12.27 -0.105528
12.28 -0.158008
12.29 -0.202711
12.3 -0.239754
12.31 -0.271586
12.32 -0.29925
12.33 -0.324824
12.34 -0.349901
12.35 -0.376169
12.36 -0.404643
12.37 -0.436632
12.38 -0.47213
12.39 -0.511269
12.4 -0.553409
