# xPDFsuite Configuration #
[PDF]
wavelength = 0.1432
dataformat = twotheta
inputfile = 1_1Pd_CeO2_cycle-00463.chi
backgroundfile = background-00000.chi
mode = xray
bgscale = 1.007
composition = CeO2
outputtype = gr
qmaxinst = 28.8974762299
qmin = 0.5
qmax = 27.9
rmax = 50.0
rmin = 0.0
rstep = 0.01
rpoly = 1.8657

[Misc]
inputdir = G:/SankarDec16/1Pd/Chi
savedir = D:/DATA/APS_CeO2/1Pd
backgroundfilefull = G:/SankarDec16/Background/background-00000.chi

#### start data
#S 1
#L r($\AA$)  G($\AA^{-2}$)
0 0
0.01 -0.00412828
0.02 -0.00794486
0.03 -0.0111288
0.04 -0.0134386
0.05 -0.0147399
0.06 -0.014817
0.07 -0.0138144
0.08 -0.0116634
0.09 -0.00863924
0.1 -0.00493288
0.11 -0.000836004
0.12 0.00333405
0.13 0.00722051
0.14 0.0105721
0.15 0.0130802
0.16 0.0145654
0.17 0.0149566
0.18 0.0141084
0.19 0.0122339
0.2 0.00934368
0.21 0.00575923
0.22 0.00171852
0.23 -0.00245073
0.24 -0.00645053
0.25 -0.00989663
0.26 -0.0126105
0.27 -0.0143113
0.28 -0.0148904
0.29 -0.0143439
0.3 -0.0126038
0.31 -0.00994158
0.32 -0.00644671
0.33 -0.00247113
0.34 0.00171182
0.35 0.0057543
0.36 0.00939249
0.37 0.0122337
0.38 0.0141808
0.39 0.0149951
0.4 0.0146439
0.41 0.013191
0.42 0.0106495
0.43 0.00733614
0.44 0.00341472
0.45 -0.00074933
0.46 -0.00486092
0.47 -0.00856903
0.48 -0.0116573
0.49 -0.0137439
0.5 -0.0148186
0.51 -0.0146962
0.52 -0.0134224
0.53 -0.0111256
0.54 -0.00789966
0.55 -0.00409107
0.56 6.97458e-05
0.57 0.00422182
0.58 0.00806301
0.59 0.0112563
0.6 0.0136438
0.61 0.0148738
0.62 0.0150232
0.63 0.0139704
0.64 0.0118373
0.65 0.00881068
0.66 0.00506126
0.67 0.000948071
0.68 -0.00324303
0.69 -0.00717318
0.7 -0.0105482
0.71 -0.0130615
0.72 -0.0146217
0.73 -0.0149241
0.74 -0.0141293
0.75 -0.0121845
0.76 -0.00928166
0.77 -0.00565608
0.78 -0.00154569
0.79 0.00269614
0.8 0.00674428
0.81 0.0102993
0.82 0.0130911
0.83 0.0148601
0.84 0.0155858
0.85 0.015028
0.86 0.0134207
0.87 0.0107827
0.88 0.00736389
0.89 0.00343305
0.9 -0.000721267
0.91 -0.00477463
0.92 -0.00838801
0.93 -0.0113241
0.94 -0.0133613
0.95 -0.014314
0.96 -0.0142404
0.97 -0.0130012
0.98 -0.0108934
0.99 -0.00802672
1 -0.00470498
1.01 -0.00122095
1.02 0.0020822
1.03 0.00494067
1.04 0.00700587
1.05 0.00813569
1.06 0.0081797
1.07 0.00705719
1.08 0.00493583
1.09 0.00182035
1.1 -0.00189924
1.11 -0.00597332
1.12 -0.01
1.13 -0.0136269
1.14 -0.0163771
1.15 -0.0180372
1.16 -0.018152
1.17 -0.0166587
1.18 -0.0134205
1.19 -0.00839661
1.2 -0.00188576
1.21 0.00608308
1.22 0.0149434
1.23 0.0243569
1.24 0.0337799
1.25 0.0427374
1.26 0.0505928
1.27 0.0570348
1.28 0.0614209
1.29 0.063598
1.3 0.0632907
1.31 0.0602938
1.32 0.0548921
1.33 0.0468306
1.34 0.0367622
1.35 0.024837
1.36 0.0115782
1.37 -0.00251452
1.38 -0.0169387
1.39 -0.0311611
1.4 -0.0446201
1.41 -0.0569114
1.42 -0.0676249
1.43 -0.0763418
1.44 -0.0830416
1.45 -0.0871865
1.46 -0.0890812
1.47 -0.0885008
1.48 -0.0855931
1.49 -0.0805675
1.5 -0.0734016
1.51 -0.0645754
1.52 -0.054124
1.53 -0.0424765
1.54 -0.0298726
1.55 -0.0166122
1.56 -0.0030396
1.57 0.0105306
1.58 0.0237762
1.59 0.0363399
1.6 0.047885
1.61 0.0581534
1.62 0.0666499
1.63 0.0733268
1.64 0.0776571
1.65 0.0796344
1.66 0.0790505
1.67 0.0757238
1.68 0.0699339
1.69 0.0613669
1.7 0.0506314
1.71 0.0378021
1.72 0.0233528
1.73 0.0077692
1.74 -0.00847859
1.75 -0.0247838
1.76 -0.0405574
1.77 -0.0552904
1.78 -0.0684965
1.79 -0.0796716
1.8 -0.0887541
1.81 -0.0951872
1.82 -0.0993374
1.83 -0.101095
1.84 -0.100802
1.85 -0.0988822
1.86 -0.095702
1.87 -0.0919329
1.88 -0.088102
1.89 -0.0847966
1.9 -0.0825146
1.91 -0.0817651
1.92 -0.0826658
1.93 -0.0856811
1.94 -0.0904864
1.95 -0.097078
1.96 -0.105035
1.97 -0.113856
1.98 -0.12294
1.99 -0.131602
2 -0.139006
2.01 -0.14451
2.02 -0.147421
2.03 -0.146984
2.04 -0.143117
2.05 -0.13486
2.06 -0.122714
2.07 -0.106319
2.08 -0.0859852
2.09 -0.0621664
2.1 -0.0349729
2.11 -0.00531487
2.12 0.0265751
2.13 0.0599487
2.14 0.0943863
2.15 0.129475
2.16 0.164873
2.17 0.200405
2.18 0.235968
2.19 0.271576
2.2 0.307315
2.21 0.343284
2.22 0.379631
2.23 0.416358
2.24 0.453468
2.25 0.490734
2.26 0.527821
2.27 0.564116
2.28 0.59904
2.29 0.631299
2.3 0.660227
2.31 0.68435
2.32 0.702496
2.33 0.713839
2.34 0.716414
2.35 0.710528
2.36 0.694364
2.37 0.668532
2.38 0.632861
2.39 0.587492
2.4 0.534185
2.41 0.47301
2.42 0.406696
2.43 0.336567
2.44 0.264915
2.45 0.193728
2.46 0.125422
2.47 0.0614371
2.48 0.00413974
2.49 -0.045686
2.5 -0.0869954
2.51 -0.118954
2.52 -0.14254
2.53 -0.1569
2.54 -0.164329
2.55 -0.165465
2.56 -0.162198
2.57 -0.156335
2.58 -0.14967
2.59 -0.143963
2.6 -0.141009
2.61 -0.141899
2.62 -0.147591
2.63 -0.158833
2.64 -0.175113
2.65 -0.196855
2.66 -0.222479
2.67 -0.251248
2.68 -0.281609
2.69 -0.31212
2.7 -0.341063
2.71 -0.367301
2.72 -0.38918
2.73 -0.406142
2.74 -0.417566
2.75 -0.423097
2.76 -0.423606
2.77 -0.419048
2.78 -0.411223
2.79 -0.401137
2.8 -0.390476
2.81 -0.380691
2.82 -0.373583
2.83 -0.370036
2.84 -0.371605
2.85 -0.378499
2.86 -0.391029
2.87 -0.409138
2.88 -0.43163
2.89 -0.457985
2.9 -0.486216
2.91 -0.514872
2.92 -0.542048
2.93 -0.566232
2.94 -0.58531
2.95 -0.598752
2.96 -0.604866
2.97 -0.603876
2.98 -0.595727
2.99 -0.580825
3 -0.560858
3.01 -0.536712
3.02 -0.510824
3.03 -0.485021
3.04 -0.461522
3.05 -0.442007
3.06 -0.428849
3.07 -0.422443
3.08 -0.424551
3.09 -0.434681
3.1 -0.452683
3.11 -0.477857
3.12 -0.508186
3.13 -0.542432
3.14 -0.577914
3.15 -0.612535
3.16 -0.64394
3.17 -0.670451
3.18 -0.689679
3.19 -0.701532
3.2 -0.704495
3.21 -0.699516
3.22 -0.687216
3.23 -0.668917
3.24 -0.647022
3.25 -0.623651
3.26 -0.60161
3.27 -0.58361
3.28 -0.57221
3.29 -0.56903
3.3 -0.576769
3.31 -0.594814
3.32 -0.624647
3.33 -0.664488
3.34 -0.713113
3.35 -0.768398
3.36 -0.827136
3.37 -0.886245
3.38 -0.942326
3.39 -0.991863
3.4 -1.03181
3.41 -1.06038
3.42 -1.07437
3.43 -1.07497
3.44 -1.0606
3.45 -1.03382
3.46 -0.996402
3.47 -0.951207
3.48 -0.902234
3.49 -0.853303
3.5 -0.808304
3.51 -0.771139
3.52 -0.744834
3.53 -0.73075
3.54 -0.731205
3.55 -0.743722
3.56 -0.767661
3.57 -0.798204
3.58 -0.830624
3.59 -0.857836
3.6 -0.873714
3.61 -0.867116
3.62 -0.833104
3.63 -0.761382
3.64 -0.645147
3.65 -0.481117
3.66 -0.259162
3.67 0.0149915
3.68 0.347934
3.69 0.731565
3.7 1.16169
3.71 1.63136
3.72 2.12724
3.73 2.63984
3.74 3.15321
3.75 3.65318
3.76 4.12409
3.77 4.55415
3.78 4.92339
3.79 5.22865
3.8 5.45117
3.81 5.59063
3.82 5.64139
3.83 5.59828
3.84 5.47269
3.85 5.25615
3.86 4.96921
3.87 4.61514
3.88 4.20814
3.89 3.76257
3.9 3.28974
3.91 2.80634
3.92 2.32505
3.93 1.85853
3.94 1.4173
3.95 1.01253
3.96 0.646664
3.97 0.331637
3.98 0.0625309
3.99 -0.156312
4 -0.327941
4.01 -0.457749
4.02 -0.546439
4.03 -0.604899
4.04 -0.635759
4.05 -0.64808
4.06 -0.647397
4.07 -0.639501
4.08 -0.629572
4.09 -0.62175
4.1 -0.61853
4.11 -0.621969
4.12 -0.632588
4.13 -0.649725
4.14 -0.67281
4.15 -0.699371
4.16 -0.727572
4.17 -0.754818
4.18 -0.778886
4.19 -0.797252
4.2 -0.808894
4.21 -0.811144
4.22 -0.804517
4.23 -0.787917
4.24 -0.761753
4.25 -0.72703
4.26 -0.683817
4.27 -0.634325
4.28 -0.579042
4.29 -0.519757
4.3 -0.457483
4.31 -0.393186
4.32 -0.32777
4.33 -0.261651
4.34 -0.19523
4.35 -0.128592
4.36 -0.0617309
4.37 0.0054011
4.38 0.0728754
4.39 0.140577
4.4 0.20827
4.41 0.275448
4.42 0.341392
4.43 0.404906
4.44 0.465099
4.45 0.519728
4.46 0.567979
4.47 0.60767
4.48 0.637265
4.49 0.655963
4.5 0.66118
4.51 0.653959
4.52 0.632281
4.53 0.597485
4.54 0.549937
4.55 0.490305
4.56 0.421261
4.57 0.343435
4.58 0.26028
4.59 0.173664
4.6 0.0862919
4.61 0.000348018
4.62 -0.0815318
4.63 -0.158132
4.64 -0.227213
4.65 -0.288344
4.66 -0.340881
4.67 -0.384363
4.68 -0.420088
4.69 -0.44764
4.7 -0.469268
4.71 -0.485741
4.72 -0.498715
4.73 -0.509681
4.74 -0.519956
4.75 -0.530748
4.76 -0.543102
4.77 -0.557545
4.78 -0.574404
4.79 -0.59378
4.8 -0.615133
4.81 -0.63816
4.82 -0.661876
4.83 -0.685491
4.84 -0.708024
4.85 -0.728738
4.86 -0.746547
4.87 -0.761278
4.88 -0.772127
4.89 -0.779267
4.9 -0.782738
4.91 -0.782743
4.92 -0.780133
4.93 -0.775263
4.94 -0.769252
4.95 -0.762829
4.96 -0.756905
4.97 -0.75215
4.98 -0.749439
4.99 -0.748961
5 -0.751332
5.01 -0.756443
5.02 -0.764274
5.03 -0.774694
5.04 -0.787097
5.05 -0.801269
5.06 -0.816417
5.07 -0.832058
5.08 -0.847549
5.09 -0.862387
5.1 -0.875889
5.11 -0.88777
5.12 -0.897339
5.13 -0.904327
5.14 -0.908275
5.15 -0.908507
5.16 -0.904939
5.17 -0.89624
5.18 -0.882432
5.19 -0.862297
5.2 -0.835018
5.21 -0.800127
5.22 -0.755669
5.23 -0.702102
5.24 -0.63745
5.25 -0.562053
5.26 -0.475502
5.27 -0.377371
5.28 -0.269342
5.29 -0.150875
5.3 -0.0249029
5.31 0.107287
5.32 0.242931
5.33 0.379256
5.34 0.512695
5.35 0.640402
5.36 0.757955
5.37 0.862593
5.38 0.951089
5.39 1.01947
5.4 1.06771
5.41 1.09049
5.42 1.09034
5.43 1.06507
5.44 1.01579
5.45 0.944975
5.46 0.852494
5.47 0.743891
5.48 0.620534
5.49 0.487481
5.5 0.348282
5.51 0.207078
5.52 0.0675591
5.53 -0.0659525
5.54 -0.191183
5.55 -0.304927
5.56 -0.405291
5.57 -0.491821
5.58 -0.56219
5.59 -0.618629
5.6 -0.659998
5.61 -0.688691
5.62 -0.705942
5.63 -0.713127
5.64 -0.712972
5.65 -0.706294
5.66 -0.695633
5.67 -0.682
5.68 -0.666597
5.69 -0.650154
5.7 -0.632913
5.71 -0.614951
5.72 -0.595819
5.73 -0.575024
5.74 -0.551886
5.75 -0.525476
5.76 -0.495546
5.77 -0.460959
5.78 -0.422128
5.79 -0.378785
5.8 -0.331488
5.81 -0.281181
5.82 -0.228824
5.83 -0.176079
5.84 -0.124665
5.85 -0.0763809
5.86 -0.0330122
5.87 0.00320981
5.88 0.0316062
5.89 0.0493956
5.9 0.0571128
5.91 0.0534239
5.92 0.0384771
5.93 0.0132554
5.94 -0.0224964
5.95 -0.0661682
5.96 -0.117149
5.97 -0.172997
5.98 -0.231995
5.99 -0.292184
6 -0.351822
6.01 -0.40903
6.02 -0.462861
6.03 -0.512125
6.04 -0.556294
6.05 -0.595487
6.06 -0.629321
6.07 -0.659006
6.08 -0.684807
6.09 -0.708004
6.1 -0.729514
6.11 -0.750362
6.12 -0.771425
6.13 -0.793541
6.14 -0.817035
6.15 -0.842206
6.16 -0.868931
6.17 -0.896801
6.18 -0.925274
6.19 -0.953533
6.2 -0.98063
6.21 -1.00571
6.22 -1.02795
6.23 -1.04639
6.24 -1.06097
6.25 -1.0707
6.26 -1.0762
6.27 -1.07731
6.28 -1.07455
6.29 -1.06862
6.3 -1.05982
6.31 -1.04906
6.32 -1.03649
6.33 -1.02239
6.34 -1.00648
6.35 -0.98788
6.36 -0.96575
6.37 -0.937481
6.38 -0.901582
6.39 -0.854688
6.4 -0.793526
6.41 -0.715784
6.42 -0.615463
6.43 -0.492469
6.44 -0.340796
6.45 -0.160238
6.46 0.0509659
6.47 0.294978
6.48 0.567708
6.49 0.871729
6.5 1.19951
6.51 1.54854
6.52 1.91217
6.53 2.28333
6.54 2.65398
6.55 3.01613
6.56 3.35947
6.57 3.67624
6.58 3.95817
6.59 4.1947
6.6 4.38453
6.61 4.51368
6.62 4.58641
6.63 4.59589
6.64 4.5425
6.65 4.43093
6.66 4.25752
6.67 4.03518
6.68 3.76411
6.69 3.45582
6.7 3.11772
6.71 2.75819
6.72 2.38779
6.73 2.01488
6.74 1.64831
6.75 1.29613
6.76 0.965483
6.77 0.660222
6.78 0.388378
6.79 0.148146
6.8 -0.0548514
6.81 -0.223289
6.82 -0.357758
6.83 -0.458726
6.84 -0.532373
6.85 -0.57809
6.86 -0.603466
6.87 -0.610705
6.88 -0.604284
6.89 -0.588296
6.9 -0.565319
6.91 -0.538972
6.92 -0.511188
6.93 -0.483876
6.94 -0.458159
6.95 -0.434932
6.96 -0.414229
6.97 -0.396503
6.98 -0.381197
6.99 -0.368268
7 -0.357434
7.01 -0.34844
7.02 -0.341513
7.03 -0.336535
7.04 -0.334121
7.05 -0.33461
7.06 -0.338615
7.07 -0.347086
7.08 -0.360146
7.09 -0.379204
7.1 -0.403866
7.11 -0.434762
7.12 -0.471715
7.13 -0.514032
7.14 -0.561581
7.15 -0.612704
7.16 -0.666559
7.17 -0.721433
7.18 -0.775883
7.19 -0.828122
7.2 -0.877024
7.21 -0.920525
7.22 -0.958254
7.23 -0.988991
7.24 -1.01236
7.25 -1.02875
7.26 -1.03764
7.27 -1.04072
7.28 -1.03824
7.29 -1.03186
7.3 -1.02277
7.31 -1.0123
7.32 -1.0017
7.33 -0.992124
7.34 -0.984157
7.35 -0.978284
7.36 -0.974423
7.37 -0.972021
7.38 -0.970203
7.39 -0.967628
7.4 -0.96247
7.41 -0.952931
7.42 -0.937064
7.43 -0.912224
7.44 -0.877628
7.45 -0.829766
7.46 -0.769083
7.47 -0.693725
7.48 -0.603515
7.49 -0.499547
7.5 -0.381084
7.51 -0.25152
7.52 -0.11157
7.53 0.0353277
7.54 0.186473
7.55 0.33849
7.56 0.488216
7.57 0.631432
7.58 0.765704
7.59 0.887353
7.6 0.993572
7.61 1.08319
7.62 1.15205
7.63 1.20184
7.64 1.22945
7.65 1.23647
7.66 1.2232
7.67 1.18962
7.68 1.13923
7.69 1.07132
7.7 0.990315
7.71 0.897451
7.72 0.79551
7.73 0.687294
7.74 0.574866
7.75 0.461122
7.76 0.348306
7.77 0.238624
7.78 0.133963
7.79 0.0366121
7.8 -0.0527999
7.81 -0.131472
7.82 -0.199742
7.83 -0.255997
7.84 -0.299764
7.85 -0.331524
7.86 -0.34976
7.87 -0.356627
7.88 -0.351329
7.89 -0.33574
7.9 -0.310941
7.91 -0.278103
7.92 -0.239698
7.93 -0.197034
7.94 -0.152798
7.95 -0.109014
7.96 -0.0680848
7.97 -0.0317854
7.98 -0.00299139
7.99 0.0176605
8 0.0276584
8.01 0.0266991
8.02 0.014154
8.03 -0.0107743
8.04 -0.0464091
8.05 -0.0935587
8.06 -0.149432
8.07 -0.21311
8.08 -0.282425
8.09 -0.355129
8.1 -0.429149
8.11 -0.502249
8.12 -0.572238
8.13 -0.637512
8.14 -0.696729
8.15 -0.748422
8.16 -0.792913
8.17 -0.828923
8.18 -0.857919
8.19 -0.880075
8.2 -0.896576
8.21 -0.908874
8.22 -0.917923
8.23 -0.925364
8.24 -0.932095
8.25 -0.938957
8.26 -0.946263
8.27 -0.953855
8.28 -0.961053
8.29 -0.966344
8.3 -0.968127
8.31 -0.963873
8.32 -0.950689
8.33 -0.926433
8.34 -0.886163
8.35 -0.829247
8.36 -0.750786
8.37 -0.650004
8.38 -0.525287
8.39 -0.374339
8.4 -0.20012
8.41 -6.60694e-05
8.42 0.22032
8.43 0.459556
8.44 0.713077
8.45 0.975617
8.46 1.24201
8.47 1.50597
8.48 1.76069
8.49 2.00024
8.5 2.21885
8.51 2.40898
8.52 2.56925
8.53 2.69018
8.54 2.77383
8.55 2.81547
8.56 2.81459
8.57 2.77415
8.58 2.69074
8.59 2.57282
8.6 2.41973
8.61 2.2386
8.62 2.03397
8.63 1.81053
8.64 1.57544
8.65 1.33313
8.66 1.08999
8.67 0.850844
8.68 0.62059
8.69 0.402217
8.7 0.200937
8.71 0.0166955
8.72 -0.146685
8.73 -0.289787
8.74 -0.412393
8.75 -0.513852
8.76 -0.597456
8.77 -0.662023
8.78 -0.711897
8.79 -0.748016
8.8 -0.772901
8.81 -0.789274
8.82 -0.798518
8.83 -0.803565
8.84 -0.805788
8.85 -0.807066
8.86 -0.808638
8.87 -0.811705
8.88 -0.816809
8.89 -0.824849
8.9 -0.835706
8.91 -0.849633
8.92 -0.866457
8.93 -0.88574
8.94 -0.907349
8.95 -0.930506
8.96 -0.954859
8.97 -0.979753
8.98 -1.00469
8.99 -1.02908
9 -1.05257
9.01 -1.07452
9.02 -1.09476
9.03 -1.11287
9.04 -1.12857
9.05 -1.14184
9.06 -1.15214
9.07 -1.15976
9.08 -1.16424
9.09 -1.16569
9.1 -1.16397
9.11 -1.15876
9.12 -1.15032
9.13 -1.13793
9.14 -1.12192
9.15 -1.10181
9.16 -1.0774
9.17 -1.04878
9.18 -1.0152
9.19 -0.977211
9.2 -0.934226
9.21 -0.886646
9.22 -0.834623
9.23 -0.778247
9.24 -0.718442
9.25 -0.655389
9.26 -0.59034
9.27 -0.524111
9.28 -0.457948
9.29 -0.392976
9.3 -0.330878
9.31 -0.272552
9.32 -0.219843
9.33 -0.17367
9.34 -0.135078
9.35 -0.105547
9.36 -0.0846706
9.37 -0.0742502
9.38 -0.0729873
9.39 -0.0812651
9.4 -0.0983545
9.41 -0.12286
9.42 -0.154392
9.43 -0.190611
9.44 -0.230463
9.45 -0.271944
9.46 -0.313493
9.47 -0.35332
9.48 -0.390302
9.49 -0.422615
9.5 -0.449921
9.51 -0.471272
9.52 -0.486417
9.53 -0.495831
9.54 -0.499236
9.55 -0.498164
9.56 -0.493067
9.57 -0.485438
9.58 -0.476457
9.59 -0.467492
9.6 -0.459674
9.61 -0.454444
9.62 -0.452409
9.63 -0.454476
9.64 -0.461102
9.65 -0.472148
9.66 -0.488093
9.67 -0.50793
9.68 -0.531582
9.69 -0.558062
9.7 -0.586645
9.71 -0.616554
9.72 -0.646925
9.73 -0.677036
9.74 -0.706314
9.75 -0.734235
9.76 -0.760414
9.77 -0.784724
9.78 -0.80668
9.79 -0.826416
9.8 -0.843379
9.81 -0.85733
9.82 -0.867692
9.83 -0.873237
9.84 -0.873398
9.85 -0.865558
9.86 -0.848787
9.87 -0.820258
9.88 -0.777264
9.89 -0.718287
9.9 -0.637969
9.91 -0.536693
9.92 -0.40932
9.93 -0.255463
9.94 -0.0737325
9.95 0.138456
9.96 0.377575
9.97 0.646664
9.98 0.939715
9.99 1.25525
10 1.58849
10.01 1.9335
10.02 2.28488
10.03 2.63523
10.04 2.97698
10.05 3.30292
10.06 3.6062
10.07 3.87751
10.08 4.11459
10.09 4.30583
10.1 4.45255
10.11 4.54857
10.12 4.59208
10.13 4.58619
10.14 4.52538
10.15 4.41967
10.16 4.26736
10.17 4.07665
10.18 3.85289
10.19 3.60112
10.2 3.33066
10.21 3.04624
10.22 2.75641
10.23 2.46697
10.24 2.1842
10.25 1.91219
10.26 1.65712
10.27 1.41961
10.28 1.20395
10.29 1.00983
10.3 0.837372
10.31 0.687185
10.32 0.555496
10.33 0.443061
10.34 0.345088
10.35 0.260089
10.36 0.185147
10.37 0.117283
10.38 0.0547567
10.39 -0.00514605
10.4 -0.0638317
10.41 -0.122724
10.42 -0.182626
10.43 -0.244124
10.44 -0.307133
10.45 -0.371658
10.46 -0.437051
10.47 -0.502763
10.48 -0.567991
10.49 -0.632067
10.5 -0.693957
10.51 -0.753288
10.52 -0.809108
10.53 -0.861101
10.54 -0.908887
10.55 -0.951836
10.56 -0.990281
10.57 -1.02332
10.58 -1.05151
10.59 -1.07441
10.6 -1.09195
10.61 -1.10441
10.62 -1.11098
10.63 -1.11242
10.64 -1.10803
10.65 -1.09819
10.66 -1.08295
10.67 -1.06211
10.68 -1.03654
10.69 -1.00593
10.7 -0.971444
10.71 -0.933492
10.72 -0.89299
10.73 -0.850982
10.74 -0.808485
10.75 -0.766663
10.76 -0.72679
10.77 -0.689942
10.78 -0.657108
10.79 -0.629626
10.8 -0.607617
10.81 -0.592608
10.82 -0.5841
10.83 -0.582661
10.84 -0.588161
10.85 -0.599828
10.86 -0.61789
10.87 -0.640753
10.88 -0.668124
10.89 -0.698709
10.9 -0.731578
10.91 -0.765773
10.92 -0.800289
10.93 -0.834237
10.94 -0.866958
10.95 -0.897812
10.96 -0.926338
10.97 -0.952452
10.98 -0.975685
10.99 -0.996462
11 -1.01462
11.01 -1.03058
11.02 -1.04459
11.03 -1.0569
11.04 -1.068
11.05 -1.07805
11.06 -1.08745
11.07 -1.09639
11.08 -1.10506
11.09 -1.11357
11.1 -1.12194
11.11 -1.13015
11.12 -1.13809
11.13 -1.14558
11.14 -1.15237
11.15 -1.15806
11.16 -1.16237
11.17 -1.1645
11.18 -1.16408
11.19 -1.16022
11.2 -1.15196
11.21 -1.13872
11.22 -1.1185
11.23 -1.09112
11.24 -1.05437
11.25 -1.00743
11.26 -0.949084
11.27 -0.877123
11.28 -0.792034
11.29 -0.690688
11.3 -0.574406
11.31 -0.441892
11.32 -0.293259
11.33 -0.130144
11.34 0.0482075
11.35 0.238035
11.36 0.438438
11.37 0.645818
11.38 0.857102
11.39 1.06841
11.4 1.27606
11.41 1.47479
11.42 1.66138
11.43 1.83098
11.44 1.97925
11.45 2.10445
11.46 2.19981
11.47 2.26726
11.48 2.30173
11.49 2.30448
11.5 2.2757
11.51 2.2143
11.52 2.12563
11.53 2.00826
11.54 1.86899
11.55 1.71007
11.56 1.53607
11.57 1.35205
11.58 1.16176
11.59 0.970322
11.6 0.781814
11.61 0.599966
11.62 0.427702
11.63 0.268555
11.64 0.122739
11.65 -0.00637825
11.66 -0.120397
11.67 -0.218565
11.68 -0.301762
11.69 -0.372227
11.7 -0.430116
11.71 -0.479099
11.72 -0.52023
11.73 -0.556188
11.74 -0.588805
11.75 -0.619761
11.76 -0.650496
11.77 -0.682039
11.78 -0.714803
11.79 -0.748903
11.8 -0.783894
11.81 -0.81897
11.82 -0.852773
11.83 -0.884051
11.84 -0.910772
11.85 -0.931327
11.86 -0.944076
11.87 -0.946554
11.88 -0.938536
11.89 -0.916984
11.9 -0.882615
11.91 -0.834095
11.92 -0.771281
11.93 -0.695476
11.94 -0.60571
11.95 -0.505103
11.96 -0.393956
11.97 -0.274925
11.98 -0.150079
11.99 -0.0216844
12 0.107558
12.01 0.23495
12.02 0.358164
12.03 0.474604
12.04 0.581801
12.05 0.678604
12.06 0.761549
12.07 0.831274
12.08 0.885156
12.09 0.923506
12.1 0.946204
12.11 0.952319
12.12 0.94423
12.13 0.920673
12.14 0.8847
12.15 0.836892
12.16 0.778986
12.17 0.713284
12.18 0.640772
12.19 0.564188
12.2 0.484867
12.21 0.404746
12.22 0.325238
12.23 0.247864
12.24 0.173364
12.25 0.103085
12.26 0.0370624
12.27 -0.0241789
12.28 -0.0806054
12.29 -0.13275
12.3 -0.180455
12.31 -0.224877
12.32 -0.26627
12.33 -0.305528
12.34 -0.343272
12.35 -0.380048
12.36 -0.416385
12.37 -0.452538
