# xPDFsuite Configuration #
[PDF]
wavelength = 0.1432
dataformat = twotheta
inputfile = 1_1Pd_CeO2_cycle-00096.chi
backgroundfile = background-00000.chi
mode = xray
bgscale = 1.007
composition = CeO2
outputtype = gr
qmaxinst = 28.8974762299
qmin = 0.5
qmax = 27.9
rmax = 50.0
rmin = 0.0
rstep = 0.01
rpoly = 1.8657

[Misc]
inputdir = G:/SankarDec16/1Pd/Chi
savedir = D:/DATA/APS_CeO2/1Pd
backgroundfilefull = G:/SankarDec16/Background/background-00000.chi

#### start data
#S 1
#L r($\AA$)  G($\AA^{-2}$)
0 0
0.01 -0.0062112
0.02 -0.0119552
0.03 -0.0167508
0.04 -0.0202355
0.05 -0.0222074
0.06 -0.0223419
0.07 -0.0208543
0.08 -0.0176398
0.09 -0.0131098
0.1 -0.0075488
0.11 -0.00139252
0.12 0.00488286
0.13 0.010744
0.14 0.0158115
0.15 0.0196217
0.16 0.0219021
0.17 0.0225431
0.18 0.0213218
0.19 0.0185543
0.2 0.0142509
0.21 0.00889102
0.22 0.00282838
0.23 -0.00344793
0.24 -0.00948909
0.25 -0.0147205
0.26 -0.0188681
0.27 -0.0215076
0.28 -0.0224692
0.29 -0.0217407
0.3 -0.0192119
0.31 -0.0152848
0.32 -0.0100847
0.33 -0.00413697
0.34 0.00215197
0.35 0.00826209
0.36 0.013793
0.37 0.0181556
0.38 0.0211939
0.39 0.0225433
0.4 0.0221444
0.41 0.0200836
0.42 0.0163685
0.43 0.0114688
0.44 0.00561906
0.45 -0.000633459
0.46 -0.00684876
0.47 -0.0124998
0.48 -0.0172535
0.49 -0.0205339
0.5 -0.0223107
0.51 -0.022296
0.52 -0.0205443
0.53 -0.0172367
0.54 -0.0124991
0.55 -0.00684699
0.56 -0.000613659
0.57 0.00565713
0.58 0.0115124
0.59 0.0164423
0.6 0.0201973
0.61 0.0222416
0.62 0.0226722
0.63 0.021292
0.64 0.0182673
0.65 0.0138658
0.66 0.00832639
0.67 0.00218651
0.68 -0.0041371
0.69 -0.0101292
0.7 -0.0153452
0.71 -0.0193159
0.72 -0.0218873
0.73 -0.0225883
0.74 -0.0216393
0.75 -0.0189427
0.76 -0.0147685
0.77 -0.00945809
0.78 -0.0033512
0.79 0.00301842
0.8 0.00917213
0.81 0.0146478
0.82 0.0190317
0.83 0.0219191
0.84 0.0232585
0.85 0.0226684
0.86 0.02048
0.87 0.0167
0.88 0.0116873
0.89 0.00583752
0.9 -0.000429425
0.91 -0.00661461
0.92 -0.0122095
0.93 -0.0168352
0.94 -0.0201402
0.95 -0.0218178
0.96 -0.0219295
0.97 -0.0202276
0.98 -0.0171401
0.99 -0.0128001
1 -0.00764819
1.01 -0.00211994
1.02 0.00328368
1.03 0.00813837
1.04 0.0119154
1.05 0.0143594
1.06 0.0152092
1.07 0.0142938
1.08 0.0118205
1.09 0.00772501
1.1 0.00256074
1.11 -0.00336166
1.12 -0.00947701
1.13 -0.0152762
1.14 -0.0200982
1.15 -0.0235874
1.16 -0.0250979
1.17 -0.0244842
1.18 -0.0215185
1.19 -0.0160988
1.2 -0.00860017
1.21 0.00098373
1.22 0.011891
1.23 0.0236906
1.24 0.035652
1.25 0.047132
1.26 0.0572895
1.27 0.0656859
1.28 0.0714809
1.29 0.0744632
1.3 0.0742823
1.31 0.0706933
1.32 0.0640837
1.33 0.0541852
1.34 0.0418656
1.35 0.027385
1.36 0.0114624
1.37 -0.0052328
1.38 -0.0219921
1.39 -0.0381697
1.4 -0.0530168
1.41 -0.066091
1.42 -0.0769258
1.43 -0.0850847
1.44 -0.0906619
1.45 -0.0931315
1.46 -0.0930103
1.47 -0.0901942
1.48 -0.0850206
1.49 -0.0778576
1.5 -0.0688798
1.51 -0.058655
1.52 -0.0473878
1.53 -0.0355224
1.54 -0.0233357
1.55 -0.0111263
1.56 0.0008824
1.57 0.0124033
1.58 0.0233158
1.59 0.0333813
1.6 0.042438
1.61 0.0503685
1.62 0.0568546
1.63 0.0619173
1.64 0.0651773
1.65 0.0666328
1.66 0.066105
1.67 0.0634108
1.68 0.0587244
1.69 0.0517217
1.7 0.0428442
1.71 0.0320874
1.72 0.0197982
1.73 0.00636235
1.74 -0.00785606
1.75 -0.0223029
1.76 -0.0364649
1.77 -0.0498364
1.78 -0.0619391
1.79 -0.0722579
1.8 -0.0806764
1.81 -0.0866211
1.82 -0.0903873
1.83 -0.0918344
1.84 -0.091266
1.85 -0.0890893
1.86 -0.0856681
1.87 -0.0816864
1.88 -0.0777077
1.89 -0.074358
1.9 -0.0721858
1.91 -0.0717632
1.92 -0.0732277
1.93 -0.0771245
1.94 -0.0830981
1.95 -0.0911679
1.96 -0.100873
1.97 -0.111651
1.98 -0.12284
1.99 -0.133648
2 -0.143137
2.01 -0.150562
2.02 -0.155134
2.03 -0.155998
2.04 -0.153057
2.05 -0.145256
2.06 -0.133174
2.07 -0.116459
2.08 -0.0955175
2.09 -0.0709134
2.1 -0.0428858
2.11 -0.0124825
2.12 0.0199065
2.13 0.0534298
2.14 0.0875721
2.15 0.121847
2.16 0.155961
2.17 0.189721
2.18 0.223206
2.19 0.25656
2.2 0.290101
2.21 0.324147
2.22 0.35917
2.23 0.395337
2.24 0.433003
2.25 0.472037
2.26 0.512258
2.27 0.553158
2.28 0.593975
2.29 0.633481
2.3 0.670581
2.31 0.703574
2.32 0.730847
2.33 0.751154
2.34 0.761972
2.35 0.763251
2.36 0.752558
2.37 0.730252
2.38 0.695835
2.39 0.649152
2.4 0.592169
2.41 0.524637
2.42 0.449894
2.43 0.369409
2.44 0.286017
2.45 0.202268
2.46 0.121178
2.47 0.0448111
2.48 -0.0237617
2.49 -0.0832718
2.5 -0.132188
2.51 -0.169195
2.52 -0.195335
2.53 -0.20925
2.54 -0.21377
2.55 -0.209541
2.56 -0.198931
2.57 -0.184282
2.58 -0.167888
2.59 -0.15221
2.6 -0.139669
2.61 -0.131921
2.62 -0.130427
2.63 -0.136432
2.64 -0.149468
2.65 -0.170437
2.66 -0.197359
2.67 -0.229514
2.68 -0.264952
2.69 -0.301771
2.7 -0.337817
2.71 -0.371341
2.72 -0.400142
2.73 -0.423174
2.74 -0.439396
2.75 -0.448043
2.76 -0.449982
2.77 -0.444814
2.78 -0.434724
2.79 -0.420779
2.8 -0.405065
2.81 -0.389471
2.82 -0.37626
2.83 -0.366819
2.84 -0.363235
2.85 -0.366079
2.86 -0.375996
2.87 -0.393219
2.88 -0.416442
2.89 -0.445353
2.9 -0.477499
2.91 -0.51124
2.92 -0.54419
2.93 -0.574367
2.94 -0.599098
2.95 -0.617425
2.96 -0.627076
2.97 -0.628019
2.98 -0.619927
2.99 -0.603011
3 -0.579202
3.01 -0.549288
3.02 -0.516311
3.03 -0.482403
3.04 -0.450379
3.05 -0.422457
3.06 -0.401684
3.07 -0.388858
3.08 -0.386393
3.09 -0.393997
3.1 -0.411759
3.11 -0.439129
3.12 -0.473741
3.13 -0.514403
3.14 -0.557718
3.15 -0.601211
3.16 -0.64186
3.17 -0.677407
3.18 -0.704742
3.19 -0.723384
3.2 -0.731168
3.21 -0.728897
3.22 -0.717003
3.23 -0.696736
3.24 -0.670911
3.25 -0.641709
3.26 -0.61268
3.27 -0.586985
3.28 -0.567863
3.29 -0.557495
3.3 -0.559288
3.31 -0.572912
3.32 -0.60041
3.33 -0.640002
3.34 -0.690506
3.35 -0.74968
3.36 -0.813791
3.37 -0.87944
3.38 -0.942455
3.39 -0.998711
3.4 -1.04444
3.41 -1.07735
3.42 -1.09351
3.43 -1.09404
3.44 -1.07693
3.45 -1.04504
3.46 -1.00038
3.47 -0.94629
3.48 -0.887591
3.49 -0.828945
3.5 -0.77519
3.51 -0.731283
3.52 -0.701203
3.53 -0.686916
3.54 -0.691846
3.55 -0.713237
3.56 -0.751098
3.57 -0.799886
3.58 -0.854381
3.59 -0.906615
3.6 -0.949055
3.61 -0.96916
3.62 -0.960376
3.63 -0.910639
3.64 -0.811473
3.65 -0.658471
3.66 -0.439404
3.67 -0.16021
3.68 0.1873
3.69 0.594263
3.7 1.05626
3.71 1.56571
3.72 2.10726
3.73 2.67043
3.74 3.23652
3.75 3.78937
3.76 4.31078
3.77 4.78696
3.78 5.19496
3.79 5.53083
3.8 5.77311
3.81 5.9213
3.82 5.96905
3.83 5.91068
3.84 5.75936
3.85 5.50607
3.86 5.17446
3.87 4.76897
3.88 4.30633
3.89 3.80325
3.9 3.27355
3.91 2.73601
3.92 2.2059
3.93 1.69729
3.94 1.22215
3.95 0.793071
3.96 0.411936
3.97 0.0921927
3.98 -0.173067
3.99 -0.379612
4 -0.532032
4.01 -0.637429
4.02 -0.697828
4.03 -0.726283
4.04 -0.726997
4.05 -0.710686
4.06 -0.684202
4.07 -0.654681
4.08 -0.627566
4.09 -0.608241
4.1 -0.598466
4.11 -0.600504
4.12 -0.614184
4.13 -0.637938
4.14 -0.670534
4.15 -0.708145
4.16 -0.748026
4.17 -0.786476
4.18 -0.820414
4.19 -0.846421
4.2 -0.863211
4.21 -0.867309
4.22 -0.859593
4.23 -0.838809
4.24 -0.805752
4.25 -0.761971
4.26 -0.707936
4.27 -0.646698
4.28 -0.579316
4.29 -0.508269
4.3 -0.435113
4.31 -0.361377
4.32 -0.28813
4.33 -0.216302
4.34 -0.146065
4.35 -0.0776154
4.36 -0.0107182
4.37 0.0549993
4.38 0.119812
4.39 0.18411
4.4 0.247938
4.41 0.311176
4.42 0.373377
4.43 0.433598
4.44 0.491036
4.45 0.54361
4.46 0.590398
4.47 0.629192
4.48 0.658304
4.49 0.67676
4.5 0.681799
4.51 0.674287
4.52 0.652023
4.53 0.616244
4.54 0.567237
4.55 0.505617
4.56 0.434131
4.57 0.35341
4.58 0.26708
4.59 0.177113
4.6 0.0863751
4.61 -0.00281538
4.62 -0.0876579
4.63 -0.166873
4.64 -0.238097
4.65 -0.300898
4.66 -0.354626
4.67 -0.398838
4.68 -0.434935
4.69 -0.462539
4.7 -0.484036
4.71 -0.500269
4.72 -0.512981
4.73 -0.523719
4.74 -0.533838
4.75 -0.544537
4.76 -0.556841
4.77 -0.571216
4.78 -0.587919
4.79 -0.606956
4.8 -0.627734
4.81 -0.649829
4.82 -0.672263
4.83 -0.694203
4.84 -0.714702
4.85 -0.7331
4.86 -0.748396
4.87 -0.760572
4.88 -0.768985
4.89 -0.773978
4.9 -0.77575
4.91 -0.774691
4.92 -0.771687
4.93 -0.767283
4.94 -0.762486
4.95 -0.758039
4.96 -0.754713
4.97 -0.75299
4.98 -0.753547
4.99 -0.756301
5 -0.761586
5.01 -0.769048
5.02 -0.778447
5.03 -0.789418
5.04 -0.801362
5.05 -0.813874
5.06 -0.826397
5.07 -0.838524
5.08 -0.849903
5.09 -0.860354
5.1 -0.869595
5.11 -0.87771
5.12 -0.884495
5.13 -0.889985
5.14 -0.894027
5.15 -0.896255
5.16 -0.896463
5.17 -0.893569
5.18 -0.887116
5.19 -0.875694
5.2 -0.857958
5.21 -0.832873
5.22 -0.797771
5.23 -0.752512
5.24 -0.694258
5.25 -0.622834
5.26 -0.53728
5.27 -0.436563
5.28 -0.322519
5.29 -0.193978
5.3 -0.0545972
5.31 0.0942599
5.32 0.249154
5.33 0.4065
5.34 0.56193
5.35 0.711536
5.36 0.849809
5.37 0.973027
5.38 1.07705
5.39 1.15682
5.4 1.2122
5.41 1.23663
5.42 1.2332
5.43 1.19937
5.44 1.13663
5.45 1.04823
5.46 0.934344
5.47 0.801888
5.48 0.652965
5.49 0.493881
5.5 0.329182
5.51 0.164163
5.52 0.00314571
5.53 -0.148309
5.54 -0.287869
5.55 -0.411684
5.56 -0.517803
5.57 -0.606079
5.58 -0.674032
5.59 -0.724891
5.6 -0.757722
5.61 -0.775872
5.62 -0.781226
5.63 -0.775903
5.64 -0.763299
5.65 -0.744911
5.66 -0.72364
5.67 -0.700912
5.68 -0.6781
5.69 -0.65588
5.7 -0.634583
5.71 -0.613852
5.72 -0.593097
5.73 -0.571365
5.74 -0.54764
5.75 -0.520611
5.76 -0.489751
5.77 -0.453596
5.78 -0.412496
5.79 -0.366068
5.8 -0.314934
5.81 -0.2602
5.82 -0.202996
5.83 -0.145298
5.84 -0.0891256
5.85 -0.03658
5.86 0.0102799
5.87 0.0489209
5.88 0.0786236
5.89 0.0963198
5.9 0.102735
5.91 0.096518
5.92 0.0780119
5.93 0.0484596
5.94 0.00781983
5.95 -0.040948
5.96 -0.0969632
5.97 -0.157523
5.98 -0.220714
5.99 -0.284401
6 -0.34686
6.01 -0.406127
6.02 -0.46146
6.03 -0.511787
6.04 -0.55682
6.05 -0.596907
6.06 -0.631942
6.07 -0.663299
6.08 -0.69147
6.09 -0.717771
6.1 -0.743125
6.11 -0.768481
6.12 -0.794465
6.13 -0.821659
6.14 -0.850005
6.15 -0.87939
6.16 -0.909248
6.17 -0.938865
6.18 -0.967145
6.19 -0.993303
6.2 -1.01602
6.21 -1.03465
6.22 -1.04852
6.23 -1.057
6.24 -1.06063
6.25 -1.05903
6.26 -1.05361
6.27 -1.04506
6.28 -1.03475
6.29 -1.02397
6.3 -1.01413
6.31 -1.00612
6.32 -1.00091
6.33 -0.998478
6.34 -0.998426
6.35 -0.999545
6.36 -0.999922
6.37 -0.99629
6.38 -0.985676
6.39 -0.963455
6.4 -0.924818
6.41 -0.866266
6.42 -0.779825
6.43 -0.664959
6.44 -0.513879
6.45 -0.326229
6.46 -0.0998153
6.47 0.16794
6.48 0.471677
6.49 0.814287
6.5 1.18607
6.51 1.58351
6.52 1.99808
6.53 2.42082
6.54 2.84153
6.55 3.25052
6.56 3.63512
6.57 3.98621
6.58 4.29409
6.59 4.54654
6.6 4.74267
6.61 4.86654
6.62 4.92411
6.63 4.90824
6.64 4.82046
6.65 4.66708
6.66 4.44529
6.67 4.17053
6.68 3.84439
6.69 3.48056
6.7 3.0882
6.71 2.67764
6.72 2.26049
6.73 1.84725
6.74 1.44688
6.75 1.06861
6.76 0.719826
6.77 0.40396
6.78 0.129661
6.79 -0.106495
6.8 -0.298836
6.81 -0.451507
6.82 -0.566018
6.83 -0.643829
6.84 -0.692447
6.85 -0.712128
6.86 -0.71154
6.87 -0.693687
6.88 -0.663765
6.89 -0.626245
6.9 -0.584356
6.91 -0.541552
6.92 -0.500145
6.93 -0.461766
6.94 -0.427422
6.95 -0.397893
6.96 -0.372726
6.97 -0.35237
6.98 -0.335748
6.99 -0.322688
7 -0.312662
7.01 -0.30521
7.02 -0.300505
7.03 -0.298256
7.04 -0.299087
7.05 -0.303265
7.06 -0.311388
7.07 -0.324406
7.08 -0.342366
7.09 -0.366669
7.1 -0.396794
7.11 -0.433277
7.12 -0.475785
7.13 -0.523474
7.14 -0.575978
7.15 -0.631512
7.16 -0.68897
7.17 -0.746524
7.18 -0.802596
7.19 -0.855239
7.2 -0.903425
7.21 -0.944932
7.22 -0.97965
7.23 -1.00643
7.24 -1.02514
7.25 -1.03643
7.26 -1.04011
7.27 -1.03815
7.28 -1.03121
7.29 -1.02123
7.3 -1.00968
7.31 -0.998197
7.32 -0.988049
7.33 -0.980716
7.34 -0.976552
7.35 -0.976071
7.36 -0.978972
7.37 -0.98437
7.38 -0.99112
7.39 -0.997373
7.4 -1.00085
7.41 -0.999253
7.42 -0.990162
7.43 -0.970342
7.44 -0.938809
7.45 -0.891332
7.46 -0.828442
7.47 -0.747927
7.48 -0.649599
7.49 -0.534795
7.5 -0.402676
7.51 -0.25734
7.52 -0.0996971
7.53 0.0660973
7.54 0.236769
7.55 0.408217
7.56 0.57665
7.57 0.736939
7.58 0.886197
7.59 1.01999
7.6 1.13498
7.61 1.22981
7.62 1.29957
7.63 1.34639
7.64 1.36669
7.65 1.36256
7.66 1.33454
7.67 1.28293
7.68 1.21209
7.69 1.12165
7.7 1.01704
7.71 0.900155
7.72 0.774607
7.73 0.643852
7.74 0.510888
7.75 0.378922
7.76 0.251028
7.77 0.129593
7.78 0.0167786
7.79 -0.0847794
7.8 -0.174885
7.81 -0.250319
7.82 -0.312195
7.83 -0.359008
7.84 -0.390797
7.85 -0.408652
7.86 -0.411433
7.87 -0.40204
7.88 -0.380152
7.89 -0.348218
7.9 -0.307769
7.91 -0.260491
7.92 -0.209043
7.93 -0.155272
7.94 -0.101808
7.95 -0.0509324
7.96 -0.00507491
7.97 0.0341374
7.98 0.063665
7.99 0.0832961
8 0.0904757
8.01 0.0852458
8.02 0.0671788
8.03 0.0356733
8.04 -0.00725661
8.05 -0.0622607
8.06 -0.126235
8.07 -0.198054
8.08 -0.275316
8.09 -0.355601
8.1 -0.436584
8.11 -0.515965
8.12 -0.591333
8.13 -0.66105
8.14 -0.723713
8.15 -0.777779
8.16 -0.823708
8.17 -0.860155
8.18 -0.888838
8.19 -0.910033
8.2 -0.925156
8.21 -0.935898
8.22 -0.943491
8.23 -0.949816
8.24 -0.956088
8.25 -0.963345
8.26 -0.972087
8.27 -0.982356
8.28 -0.993381
8.29 -1.00378
8.3 -1.01164
8.31 -1.01424
8.32 -1.00827
8.33 -0.991164
8.34 -0.957324
8.35 -0.905636
8.36 -0.830389
8.37 -0.730288
8.38 -0.603154
8.39 -0.445949
8.4 -0.261706
8.41 -0.0470079
8.42 0.192065
8.43 0.454151
8.44 0.734201
8.45 1.02615
8.46 1.32422
8.47 1.62083
8.48 1.90805
8.49 2.17859
8.5 2.42542
8.51 2.63936
8.52 2.81838
8.53 2.95096
8.54 3.0392
8.55 3.07728
8.56 3.06443
8.57 3.00417
8.58 2.89254
8.59 2.73986
8.6 2.54582
8.61 2.3194
8.62 2.06663
8.63 1.79401
8.64 1.51048
8.65 1.22265
8.66 0.938264
8.67 0.663959
8.68 0.405984
8.69 0.167748
8.7 -0.043834
8.71 -0.229956
8.72 -0.385972
8.73 -0.513778
8.74 -0.614044
8.75 -0.687157
8.76 -0.738468
8.77 -0.768061
8.78 -0.782402
8.79 -0.784071
8.8 -0.777343
8.81 -0.766056
8.82 -0.75343
8.83 -0.742382
8.84 -0.73548
8.85 -0.734184
8.86 -0.739481
8.87 -0.752224
8.88 -0.771439
8.89 -0.797421
8.9 -0.828206
8.91 -0.86282
8.92 -0.899555
8.93 -0.936834
8.94 -0.972962
8.95 -1.00678
8.96 -1.03681
8.97 -1.06243
8.98 -1.08316
8.99 -1.0985
9 -1.10919
9.01 -1.11498
9.02 -1.1172
9.03 -1.11641
9.04 -1.11365
9.05 -1.1099
9.06 -1.10604
9.07 -1.10276
9.08 -1.10065
9.09 -1.09988
9.1 -1.10039
9.11 -1.10188
9.12 -1.10363
9.13 -1.10469
9.14 -1.10401
9.15 -1.10026
9.16 -1.09202
9.17 -1.07842
9.18 -1.05738
9.19 -1.029
9.2 -0.991642
9.21 -0.945566
9.22 -0.890777
9.23 -0.827254
9.24 -0.756758
9.25 -0.679605
9.26 -0.598311
9.27 -0.514465
9.28 -0.430447
9.29 -0.348344
9.3 -0.271072
9.31 -0.200094
9.32 -0.138293
9.33 -0.0868544
9.34 -0.0470662
9.35 -0.0206563
9.36 -0.0065141
9.37 -0.00648618
9.38 -0.0181275
9.39 -0.0412073
9.4 -0.0739908
9.41 -0.114169
9.42 -0.160294
9.43 -0.209376
9.44 -0.259429
9.45 -0.308089
9.46 -0.353501
9.47 -0.393573
9.48 -0.427705
9.49 -0.453968
9.5 -0.472965
9.51 -0.484238
9.52 -0.48838
9.53 -0.486654
9.54 -0.479671
9.55 -0.469551
9.56 -0.457537
9.57 -0.445448
9.58 -0.434714
9.59 -0.426947
9.6 -0.42283
9.61 -0.423845
9.62 -0.429786
9.63 -0.441094
9.64 -0.457472
9.65 -0.478097
9.66 -0.502635
9.67 -0.529626
9.68 -0.558307
9.69 -0.587492
9.7 -0.61632
9.71 -0.643925
9.72 -0.669962
9.73 -0.693887
9.74 -0.715972
9.75 -0.736328
9.76 -0.755434
9.77 -0.773868
9.78 -0.792182
9.79 -0.810834
9.8 -0.830109
9.81 -0.849857
9.82 -0.869573
9.83 -0.888051
9.84 -0.903925
9.85 -0.914259
9.86 -0.9169
9.87 -0.908061
9.88 -0.883722
9.89 -0.841293
9.9 -0.773696
9.91 -0.680725
9.92 -0.555651
9.93 -0.397656
9.94 -0.204854
9.95 0.0260225
9.96 0.290488
9.97 0.592126
9.98 0.923207
9.99 1.28156
10 1.66089
10.01 2.05363
10.02 2.4526
10.03 2.84874
10.04 3.23244
10.05 3.59499
10.06 3.92817
10.07 4.22086
10.08 4.47091
10.09 4.66468
10.1 4.80462
10.11 4.88402
10.12 4.90174
10.13 4.86223
10.14 4.76027
10.15 4.6083
10.16 4.40561
10.17 4.16247
10.18 3.88585
10.19 3.58267
10.2 3.26354
10.21 2.93517
10.22 2.60673
10.23 2.28523
10.24 1.97764
10.25 1.68784
10.26 1.42299
10.27 1.18233
10.28 0.970429
10.29 0.785731
10.3 0.627504
10.31 0.495521
10.32 0.384565
10.33 0.294573
10.34 0.219477
10.35 0.156883
10.36 0.102959
10.37 0.0541931
10.38 0.00798374
10.39 -0.0383197
10.4 -0.0866227
10.41 -0.138129
10.42 -0.193492
10.43 -0.25317
10.44 -0.316426
10.45 -0.383102
10.46 -0.451832
10.47 -0.521684
10.48 -0.591361
10.49 -0.659807
10.5 -0.725587
10.51 -0.788147
10.52 -0.846275
10.53 -0.899623
10.54 -0.947806
10.55 -0.9902
10.56 -1.02735
10.57 -1.05843
10.58 -1.08424
10.59 -1.10452
10.6 -1.11937
10.61 -1.12922
10.62 -1.13341
10.63 -1.13273
10.64 -1.12653
10.65 -1.11514
10.66 -1.09854
10.67 -1.07642
10.68 -1.04953
10.69 -1.01736
10.7 -0.980969
10.71 -0.940605
10.72 -0.897068
10.73 -0.851377
10.74 -0.804436
10.75 -0.757542
10.76 -0.711989
10.77 -0.669042
10.78 -0.629878
10.79 -0.59609
10.8 -0.568044
10.81 -0.54764
10.82 -0.534596
10.83 -0.529807
10.84 -0.533416
10.85 -0.544736
10.86 -0.564369
10.87 -0.590518
10.88 -0.623078
10.89 -0.660526
10.9 -0.701747
10.91 -0.745578
10.92 -0.790553
10.93 -0.83546
10.94 -0.879127
10.95 -0.920458
10.96 -0.958483
10.97 -0.992784
10.98 -1.02226
10.99 -1.04729
11 -1.06725
11.01 -1.08257
11.02 -1.09353
11.03 -1.10034
11.04 -1.10399
11.05 -1.10475
11.06 -1.10373
11.07 -1.10156
11.08 -1.09912
11.09 -1.09708
11.1 -1.0963
11.11 -1.09713
11.12 -1.10022
11.13 -1.10567
11.14 -1.1135
11.15 -1.12366
11.16 -1.13545
11.17 -1.14831
11.18 -1.16107
11.19 -1.17244
11.2 -1.18071
11.21 -1.18444
11.22 -1.18067
11.23 -1.16836
11.24 -1.14419
11.25 -1.10656
11.26 -1.05354
11.27 -0.981941
11.28 -0.8924
11.29 -0.780778
11.3 -0.649127
11.31 -0.496069
11.32 -0.322269
11.33 -0.130344
11.34 0.0798886
11.35 0.30317
11.36 0.537533
11.37 0.777986
11.38 1.02025
11.39 1.25891
11.4 1.48966
11.41 1.70551
11.42 1.9032
11.43 2.07702
11.44 2.22239
11.45 2.3381
11.46 2.41688
11.47 2.46222
11.48 2.46929
11.49 2.44074
11.5 2.37792
11.51 2.28096
11.52 2.15659
11.53 2.00475
11.54 1.83327
11.55 1.64552
11.56 1.44699
11.57 1.24298
11.58 1.03831
11.59 0.8374
11.6 0.644792
11.61 0.463492
11.62 0.295882
11.63 0.144974
11.64 0.00981733
11.65 -0.106824
11.66 -0.207678
11.67 -0.29277
11.68 -0.363823
11.69 -0.423596
11.7 -0.473028
11.71 -0.515787
11.72 -0.553355
11.73 -0.588224
11.74 -0.622049
11.75 -0.656317
11.76 -0.69184
11.77 -0.729328
11.78 -0.768509
11.79 -0.809009
11.8 -0.849825
11.81 -0.889781
11.82 -0.926952
11.83 -0.960037
11.84 -0.986635
11.85 -1.00519
11.86 -1.01408
11.87 -1.01086
11.88 -0.995659
11.89 -0.965471
11.9 -0.92144
11.91 -0.862418
11.92 -0.788527
11.93 -0.701312
11.94 -0.599971
11.95 -0.487792
11.96 -0.365188
11.97 -0.234896
11.98 -0.0990411
11.99 0.0400301
12 0.179599
12.01 0.316822
12.02 0.449316
12.03 0.574302
12.04 0.689093
12.05 0.792393
12.06 0.880271
12.07 0.953309
12.08 1.00839
12.09 1.04567
12.1 1.06484
12.11 1.06461
12.12 1.04762
12.13 1.01227
12.14 0.962111
12.15 0.897874
12.16 0.821741
12.17 0.736621
12.18 0.644051
12.19 0.547529
12.2 0.449146
12.21 0.351546
12.22 0.25676
12.23 0.16713
12.24 0.0834768
12.25 0.00797866
12.26 -0.0596691
12.27 -0.118772
12.28 -0.169559
12.29 -0.213205
12.3 -0.249828
12.31 -0.281654
12.32 -0.309593
12.33 -0.335501
12.34 -0.360793
12.35 -0.386969
12.36 -0.414975
12.37 -0.446004
12.38 -0.480126
12.39 -0.517532
12.4 -0.557742
