# xPDFsuite Configuration #
[PDF]
wavelength = 0.1432
dataformat = twotheta
inputfile = 1_1Pd_CeO2_cycle-00075.chi
backgroundfile = background-00000.chi
mode = xray
bgscale = 1.007
composition = CeO2
outputtype = gr
qmaxinst = 28.8974762299
qmin = 0.5
qmax = 27.9
rmax = 50.0
rmin = 0.0
rstep = 0.01
rpoly = 1.8657

[Misc]
inputdir = G:/SankarDec16/1Pd/Chi
savedir = D:/DATA/APS_CeO2/1Pd
backgroundfilefull = G:/SankarDec16/Background/background-00000.chi

#### start data
#S 1
#L r($\AA$)  G($\AA^{-2}$)
0 0
0.01 -0.00666947
0.02 -0.0128378
0.03 -0.0179887
0.04 -0.0217333
0.05 -0.0238548
0.06 -0.0240046
0.07 -0.0224135
0.08 -0.0189683
0.09 -0.01411
0.1 -0.00814336
0.11 -0.00153535
0.12 0.00520315
0.13 0.0115004
0.14 0.0169487
0.15 0.0210505
0.16 0.0235123
0.17 0.0242157
0.18 0.0229203
0.19 0.0199641
0.2 0.0153566
0.21 0.00961145
0.22 0.00310711
0.23 -0.00363238
0.24 -0.010125
0.25 -0.0157548
0.26 -0.020226
0.27 -0.0230826
0.28 -0.0241404
0.29 -0.0233847
0.3 -0.0206947
0.31 -0.0165004
0.32 -0.0109336
0.33 -0.00455736
0.34 0.00219345
0.35 0.00876141
0.36 0.0147156
0.37 0.0194242
0.38 0.0227168
0.39 0.0242003
0.4 0.0238084
0.41 0.0216309
0.42 0.0176728
0.43 0.0124362
0.44 0.00616993
0.45 -0.0005394
0.46 -0.00722044
0.47 -0.0133076
0.48 -0.0184412
0.49 -0.0220024
0.5 -0.0239546
0.51 -0.023986
0.52 -0.0221512
0.53 -0.0186413
0.54 -0.013587
0.55 -0.00754025
0.56 -0.000855213
0.57 0.00588414
0.58 0.0121919
0.59 0.0175199
0.6 0.0215969
0.61 0.0238456
0.62 0.0243652
0.63 0.02294
0.64 0.0197437
0.65 0.0150602
0.66 0.00914098
0.67 0.00256228
0.68 -0.004232
0.69 -0.0106871
0.7 -0.0163248
0.71 -0.0206393
0.72 -0.0234603
0.73 -0.0242784
0.74 -0.0233241
0.75 -0.0204875
0.76 -0.0160533
0.77 -0.0103848
0.78 -0.00384148
0.79 0.00300248
0.8 0.00963571
0.81 0.0155582
0.82 0.0203231
0.83 0.0234905
0.84 0.0249991
0.85 0.0244317
0.86 0.0221377
0.87 0.0181164
0.88 0.0127477
0.89 0.00645296
0.9 -0.000322644
0.91 -0.00703957
0.92 -0.0131537
0.93 -0.0182508
0.94 -0.0219475
0.95 -0.0239055
0.96 -0.0241805
0.97 -0.0224932
0.98 -0.0192936
0.99 -0.0147104
1 -0.00920675
1.01 -0.00324365
1.02 0.0026545
1.03 0.00802717
1.04 0.0123166
1.05 0.0152391
1.06 0.0165111
1.07 0.0159405
1.08 0.0137341
1.09 0.009812
1.1 0.00474738
1.11 -0.00114437
1.12 -0.0072776
1.13 -0.0131232
1.14 -0.0180001
1.15 -0.0215345
1.16 -0.0230642
1.17 -0.0224382
1.18 -0.0194275
1.19 -0.0139375
1.2 -0.00636006
1.21 0.00328636
1.22 0.0142143
1.23 0.0259576
1.24 0.0377547
1.25 0.0489405
1.26 0.0586355
1.27 0.0664106
1.28 0.071403
1.29 0.0734312
1.3 0.0721658
1.31 0.0674028
1.32 0.059586
1.33 0.0485145
1.34 0.03512
1.35 0.0197435
1.36 0.00317314
1.37 -0.0138747
1.38 -0.0306039
1.39 -0.0463874
1.4 -0.0604131
1.41 -0.0722893
1.42 -0.0815717
1.43 -0.0878756
1.44 -0.0913961
1.45 -0.0916841
1.46 -0.0893839
1.47 -0.0845063
1.48 -0.0775108
1.49 -0.0688562
1.5 -0.0588613
1.51 -0.0481035
1.52 -0.0369065
1.53 -0.025679
1.54 -0.0147015
1.55 -0.00424278
1.56 0.00559609
1.57 0.014575
1.58 0.0227533
1.59 0.0300127
1.6 0.0363532
1.61 0.0417888
1.62 0.0461817
1.63 0.0496135
1.64 0.0518685
1.65 0.0529526
1.66 0.0527297
1.67 0.0510302
1.68 0.0479173
1.69 0.0430731
1.7 0.0367413
1.71 0.0288224
1.72 0.0194924
1.73 0.00898815
1.74 -0.00250606
1.75 -0.0145441
1.76 -0.0267871
1.77 -0.0387839
1.78 -0.0501303
1.79 -0.0603644
1.8 -0.0692935
1.81 -0.0763947
1.82 -0.0817893
1.83 -0.0852786
1.84 -0.0870191
1.85 -0.0872806
1.86 -0.0862803
1.87 -0.0845766
1.88 -0.0825841
1.89 -0.0808513
1.9 -0.0798469
1.91 -0.0800778
1.92 -0.0817225
1.93 -0.0852667
1.94 -0.090482
1.95 -0.0974192
1.96 -0.105726
1.97 -0.114942
1.98 -0.124505
1.99 -0.133727
2 -0.141765
2.01 -0.147933
2.02 -0.15149
2.03 -0.151611
2.04 -0.148169
2.05 -0.140114
2.06 -0.12794
2.07 -0.111242
2.08 -0.0903418
2.09 -0.0657324
2.1 -0.0375654
2.11 -0.00685087
2.12 0.026086
2.13 0.0603872
2.14 0.0955304
2.15 0.130991
2.16 0.166397
2.17 0.201466
2.18 0.236166
2.19 0.270517
2.2 0.304712
2.21 0.338982
2.22 0.373648
2.23 0.408887
2.24 0.444946
2.25 0.481762
2.26 0.519183
2.27 0.556785
2.28 0.59397
2.29 0.629644
2.3 0.662925
2.31 0.692316
2.32 0.716415
2.33 0.734135
2.34 0.743209
2.35 0.743602
2.36 0.733088
2.37 0.711966
2.38 0.679735
2.39 0.636183
2.4 0.583053
2.41 0.519996
2.42 0.450028
2.43 0.374388
2.44 0.295615
2.45 0.21602
2.46 0.138283
2.47 0.0643694
2.48 -0.00294646
2.49 -0.0623972
2.5 -0.112513
2.51 -0.151987
2.52 -0.181634
2.53 -0.200073
2.54 -0.209754
2.55 -0.211111
2.56 -0.206171
2.57 -0.196986
2.58 -0.185476
2.59 -0.173916
2.6 -0.164373
2.61 -0.158422
2.62 -0.157394
2.63 -0.162453
2.64 -0.173316
2.65 -0.190819
2.66 -0.213364
2.67 -0.240387
2.68 -0.270271
2.69 -0.301416
2.7 -0.332011
2.71 -0.360558
2.72 -0.385197
2.73 -0.405025
2.74 -0.419159
2.75 -0.426959
2.76 -0.429162
2.77 -0.425469
2.78 -0.41774
2.79 -0.406925
2.8 -0.394825
2.81 -0.383061
2.82 -0.373603
2.83 -0.367604
2.84 -0.366866
2.85 -0.371829
2.86 -0.38301
2.87 -0.400555
2.88 -0.42328
2.89 -0.450843
2.9 -0.481074
2.91 -0.512492
2.92 -0.542989
2.93 -0.570833
2.94 -0.593664
2.95 -0.610693
2.96 -0.61994
2.97 -0.621437
2.98 -0.614942
2.99 -0.600694
3 -0.580433
3.01 -0.554904
3.02 -0.526789
3.03 -0.497981
3.04 -0.470936
3.05 -0.447569
3.06 -0.430503
3.07 -0.420368
3.08 -0.419184
3.09 -0.426606
3.1 -0.442613
3.11 -0.466604
3.12 -0.496473
3.13 -0.531029
3.14 -0.567352
3.15 -0.60323
3.16 -0.636082
3.17 -0.664036
3.18 -0.684477
3.19 -0.697191
3.2 -0.700487
3.21 -0.6953
3.22 -0.682243
3.23 -0.662701
3.24 -0.639247
3.25 -0.614161
3.26 -0.590494
3.27 -0.571196
3.28 -0.559066
3.29 -0.555878
3.3 -0.564573
3.31 -0.58448
3.32 -0.617186
3.33 -0.660711
3.34 -0.713659
3.35 -0.773619
3.36 -0.837033
3.37 -0.900375
3.38 -0.959905
3.39 -1.01166
3.4 -1.05227
3.41 -1.0798
3.42 -1.09071
3.43 -1.08647
3.44 -1.06542
3.45 -1.03063
3.46 -0.984279
3.47 -0.929845
3.48 -0.871984
3.49 -0.815435
3.5 -0.764657
3.51 -0.72443
3.52 -0.698387
3.53 -0.688176
3.54 -0.696854
3.55 -0.72143
3.56 -0.761578
3.57 -0.811653
3.58 -0.866331
3.59 -0.917596
3.6 -0.958117
3.61 -0.97539
3.62 -0.963236
3.63 -0.909834
3.64 -0.807064
3.65 -0.650816
3.66 -0.429243
3.67 -0.148425
3.68 0.199515
3.69 0.605719
3.7 1.06575
3.71 1.57208
3.72 2.10965
3.73 2.66816
3.74 3.22935
3.75 3.77741
3.76 4.29456
3.77 4.76734
3.78 5.17326
3.79 5.50843
3.8 5.75173
3.81 5.90258
3.82 5.95457
3.83 5.90187
3.84 5.75722
3.85 5.5113
3.86 5.18719
3.87 4.78884
3.88 4.33242
3.89 3.83425
3.9 3.30752
3.91 2.77097
3.92 2.2394
3.93 1.72704
3.94 1.24591
3.95 0.80878
3.96 0.418106
3.97 0.0876678
3.98 -0.188682
3.99 -0.406107
4 -0.568483
4.01 -0.682377
4.02 -0.749003
4.03 -0.781285
4.04 -0.78278
4.05 -0.764309
4.06 -0.732694
4.07 -0.695174
4.08 -0.657828
4.09 -0.626262
4.1 -0.603164
4.11 -0.591406
4.12 -0.591651
4.13 -0.602995
4.14 -0.625119
4.15 -0.6545
4.16 -0.689175
4.17 -0.725496
4.18 -0.760542
4.19 -0.790958
4.2 -0.81488
4.21 -0.828811
4.22 -0.83268
4.23 -0.824735
4.24 -0.804954
4.25 -0.774181
4.26 -0.732038
4.27 -0.681109
4.28 -0.621681
4.29 -0.556023
4.3 -0.485431
4.31 -0.411244
4.32 -0.334951
4.33 -0.257363
4.34 -0.179457
4.35 -0.101777
4.36 -0.0247739
4.37 0.0513033
4.38 0.126043
4.39 0.199344
4.4 0.270608
4.41 0.339451
4.42 0.405159
4.43 0.466578
4.44 0.523181
4.45 0.572749
4.46 0.614962
4.47 0.647857
4.48 0.670265
4.49 0.681695
4.5 0.679894
4.51 0.666122
4.52 0.63865
4.53 0.598925
4.54 0.547423
4.55 0.484899
4.56 0.413895
4.57 0.335104
4.58 0.25171
4.59 0.165479
4.6 0.0788887
4.61 -0.00608392
4.62 -0.0870165
4.63 -0.162869
4.64 -0.231594
4.65 -0.292848
4.66 -0.34606
4.67 -0.390807
4.68 -0.428284
4.69 -0.458048
4.7 -0.48214
4.71 -0.501175
4.72 -0.516586
4.73 -0.529681
4.74 -0.541506
4.75 -0.553179
4.76 -0.565508
4.77 -0.579004
4.78 -0.593951
4.79 -0.610447
4.8 -0.628146
4.81 -0.6468
4.82 -0.665742
4.83 -0.684397
4.84 -0.702091
4.85 -0.718337
4.86 -0.732401
4.87 -0.744236
4.88 -0.753341
4.89 -0.759917
4.9 -0.764058
4.91 -0.765982
4.92 -0.766297
4.93 -0.765308
4.94 -0.763741
4.95 -0.762078
4.96 -0.760871
4.97 -0.760492
4.98 -0.761425
4.99 -0.763712
5 -0.767649
5.01 -0.77311
5.02 -0.780041
5.03 -0.788346
5.04 -0.797705
5.05 -0.808054
5.06 -0.819044
5.07 -0.830539
5.08 -0.842339
5.09 -0.85428
5.1 -0.866192
5.11 -0.877895
5.12 -0.889097
5.13 -0.899477
5.14 -0.90857
5.15 -0.915597
5.16 -0.920033
5.17 -0.920281
5.18 -0.91572
5.19 -0.904592
5.2 -0.885416
5.21 -0.857212
5.22 -0.817195
5.23 -0.765651
5.24 -0.699879
5.25 -0.620216
5.26 -0.526126
5.27 -0.417121
5.28 -0.295469
5.29 -0.160656
5.3 -0.016568
5.31 0.134979
5.32 0.290356
5.33 0.446018
5.34 0.597409
5.35 0.741123
5.36 0.871753
5.37 0.986172
5.38 1.08071
5.39 1.15092
5.4 1.19717
5.41 1.21362
5.42 1.2037
5.43 1.16536
5.44 1.10039
5.45 1.01202
5.46 0.900708
5.47 0.772874
5.48 0.630585
5.49 0.479553
5.5 0.323872
5.51 0.168255
5.52 0.0164577
5.53 -0.126638
5.54 -0.259095
5.55 -0.377588
5.56 -0.48048
5.57 -0.567683
5.58 -0.637027
5.59 -0.691314
5.6 -0.729633
5.61 -0.754795
5.62 -0.768289
5.63 -0.771722
5.64 -0.767943
5.65 -0.757857
5.66 -0.743956
5.67 -0.727183
5.68 -0.708595
5.69 -0.688777
5.7 -0.667756
5.71 -0.645512
5.72 -0.621402
5.73 -0.594913
5.74 -0.565346
5.75 -0.531802
5.76 -0.494226
5.77 -0.451613
5.78 -0.404678
5.79 -0.353422
5.8 -0.298728
5.81 -0.241782
5.82 -0.183946
5.83 -0.126937
5.84 -0.0727993
5.85 -0.0232932
5.86 0.0197775
5.87 0.0542046
5.88 0.0796195
5.89 0.0933115
5.9 0.0962563
5.91 0.0873742
5.92 0.0671724
5.93 0.036918
5.94 -0.0033097
5.95 -0.0507778
5.96 -0.104648
5.97 -0.162502
5.98 -0.222648
5.99 -0.283227
6 -0.342757
6.01 -0.399567
6.02 -0.453043
6.03 -0.502292
6.04 -0.547092
6.05 -0.587746
6.06 -0.624171
6.07 -0.657509
6.08 -0.688147
6.09 -0.717144
6.1 -0.745217
6.11 -0.77307
6.12 -0.801172
6.13 -0.829858
6.14 -0.859044
6.15 -0.88851
6.16 -0.917708
6.17 -0.946028
6.18 -0.972432
6.19 -0.996369
6.2 -1.01668
6.21 -1.03294
6.22 -1.04469
6.23 -1.05149
6.24 -1.05398
6.25 -1.05197
6.26 -1.04682
6.27 -1.03924
6.28 -1.03053
6.29 -1.02182
6.3 -1.01439
6.31 -1.00888
6.32 -1.00608
6.33 -1.00574
6.34 -1.00729
6.35 -1.00933
6.36 -1.00994
6.37 -1.00567
6.38 -0.993688
6.39 -0.969383
6.4 -0.928096
6.41 -0.866515
6.42 -0.776856
6.43 -0.658816
6.44 -0.504843
6.45 -0.314767
6.46 -0.0865568
6.47 0.182195
6.48 0.486155
6.49 0.828078
6.5 1.19844
6.51 1.59379
6.52 2.00575
6.53 2.42559
6.54 2.84329
6.55 3.2494
6.56 3.63145
6.57 3.98049
6.58 4.28696
6.59 4.53873
6.6 4.73485
6.61 4.85946
6.62 4.91832
6.63 4.90421
6.64 4.81844
6.65 4.66714
6.66 4.44727
6.67 4.17412
6.68 3.84909
6.69 3.48578
6.7 3.09327
6.71 2.68188
6.72 2.26332
6.73 1.84814
6.74 1.44552
6.75 1.06486
6.76 0.713785
6.77 0.395918
6.78 0.120177
6.79 -0.116776
6.8 -0.309057
6.81 -0.460811
6.82 -0.573538
6.83 -0.648732
6.84 -0.69411
6.85 -0.710043
6.86 -0.705504
6.87 -0.683737
6.88 -0.650233
6.89 -0.609682
6.9 -0.565646
6.91 -0.521632
6.92 -0.480195
6.93 -0.442924
6.94 -0.410805
6.95 -0.384553
6.96 -0.363438
6.97 -0.347762
6.98 -0.33608
6.99 -0.327938
7 -0.322471
7.01 -0.318976
7.02 -0.317262
7.03 -0.316986
7.04 -0.318519
7.05 -0.322185
7.06 -0.328614
7.07 -0.338837
7.08 -0.353201
7.09 -0.37327
7.1 -0.398907
7.11 -0.430938
7.12 -0.469372
7.13 -0.5136
7.14 -0.56361
7.15 -0.617648
7.16 -0.674837
7.17 -0.733268
7.18 -0.7913
7.19 -0.846874
7.2 -0.898654
7.21 -0.944217
7.22 -0.983081
7.23 -1.0138
7.24 -1.03591
7.25 -1.04986
7.26 -1.05511
7.27 -1.05367
7.28 -1.046
7.29 -1.03417
7.3 -1.01974
7.31 -1.00455
7.32 -0.990168
7.33 -0.978343
7.34 -0.969793
7.35 -0.965359
7.36 -0.965058
7.37 -0.968195
7.38 -0.973951
7.39 -0.980405
7.4 -0.985442
7.41 -0.986576
7.42 -0.981241
7.43 -0.965981
7.44 -0.939451
7.45 -0.897099
7.46 -0.839083
7.47 -0.762832
7.48 -0.667822
7.49 -0.555218
7.5 -0.423832
7.51 -0.277879
7.52 -0.118113
7.53 0.0510835
7.54 0.226257
7.55 0.403052
7.56 0.577274
7.57 0.743438
7.58 0.898253
7.59 1.03689
7.6 1.15566
7.61 1.25302
7.62 1.32368
7.63 1.3699
7.64 1.38793
7.65 1.38011
7.66 1.34717
7.67 1.28966
7.68 1.21238
7.69 1.11535
7.7 1.00442
7.71 0.881906
7.72 0.751818
7.73 0.617823
7.74 0.483338
7.75 0.351451
7.76 0.225458
7.77 0.107512
7.78 -0.00039502
7.79 -0.0958698
7.8 -0.17917
7.81 -0.247419
7.82 -0.302218
7.83 -0.342492
7.84 -0.368713
7.85 -0.382233
7.86 -0.382386
7.87 -0.372016
7.88 -0.351094
7.89 -0.321898
7.9 -0.285848
7.91 -0.244463
7.92 -0.199956
7.93 -0.153915
7.94 -0.108441
7.95 -0.0654039
7.96 -0.0267603
7.97 0.00619417
7.98 0.0309483
7.99 0.0473547
8 0.0532559
8.01 0.048652
8.02 0.0331238
8.03 0.00606186
8.04 -0.0309068
8.05 -0.0785
8.06 -0.134153
8.07 -0.197057
8.08 -0.265274
8.09 -0.336784
8.1 -0.40977
8.11 -0.482191
8.12 -0.552106
8.13 -0.618042
8.14 -0.678774
8.15 -0.732971
8.16 -0.780875
8.17 -0.821346
8.18 -0.85566
8.19 -0.883982
8.2 -0.907376
8.21 -0.92714
8.22 -0.944151
8.23 -0.959845
8.24 -0.975007
8.25 -0.9903
8.26 -1.00589
8.27 -1.0214
8.28 -1.03604
8.29 -1.04795
8.3 -1.05543
8.31 -1.05562
8.32 -1.04534
8.33 -1.02228
8.34 -0.980953
8.35 -0.920754
8.36 -0.836239
8.37 -0.726605
8.38 -0.590082
8.39 -0.424125
8.4 -0.232072
8.41 -0.011073
8.42 0.23268
8.43 0.497481
8.44 0.778149
8.45 1.06871
8.46 1.3632
8.47 1.6545
8.48 1.93474
8.49 2.19712
8.5 2.435
8.51 2.63967
8.52 2.80957
8.53 2.93378
8.54 3.01474
8.55 3.04709
8.56 3.03041
8.57 2.96829
8.58 2.85715
8.59 2.70698
8.6 2.51755
8.61 2.29742
8.62 2.05229
8.63 1.78821
8.64 1.51357
8.65 1.23442
8.66 0.957981
8.67 0.690344
8.68 0.437291
8.69 0.20202
8.7 -0.00906689
8.71 -0.196913
8.72 -0.357094
8.73 -0.491124
8.74 -0.599372
8.75 -0.681822
8.76 -0.743181
8.77 -0.782969
8.78 -0.807
8.79 -0.817217
8.8 -0.817289
8.81 -0.810728
8.82 -0.80007
8.83 -0.788405
8.84 -0.777924
8.85 -0.770415
8.86 -0.767111
8.87 -0.7692
8.88 -0.776438
8.89 -0.789629
8.9 -0.807626
8.91 -0.830154
8.92 -0.856258
8.93 -0.884836
8.94 -0.915047
8.95 -0.945709
8.96 -0.975919
8.97 -1.00487
8.98 -1.03193
8.99 -1.05647
9 -1.07845
9.01 -1.09732
9.02 -1.11346
9.03 -1.12678
9.04 -1.13751
9.05 -1.14601
9.06 -1.15225
9.07 -1.15671
9.08 -1.15931
9.09 -1.16019
9.1 -1.15925
9.11 -1.15613
9.12 -1.15075
9.13 -1.14223
9.14 -1.13042
9.15 -1.11447
9.16 -1.09372
9.17 -1.06793
9.18 -1.03582
9.19 -0.997848
9.2 -0.953051
9.21 -0.90187
9.22 -0.844484
9.23 -0.781052
9.24 -0.712926
9.25 -0.640495
9.26 -0.565597
9.27 -0.489496
9.28 -0.414
9.29 -0.340663
9.3 -0.271832
9.31 -0.20856
9.32 -0.153224
9.33 -0.106771
9.34 -0.0703038
9.35 -0.0453581
9.36 -0.0310623
9.37 -0.0291648
9.38 -0.0376803
9.39 -0.0565873
9.4 -0.0845452
9.41 -0.119627
9.42 -0.160775
9.43 -0.205308
9.44 -0.251589
9.45 -0.297427
9.46 -0.341096
9.47 -0.38063
9.48 -0.415264
9.49 -0.443112
9.5 -0.464461
9.51 -0.478691
9.52 -0.486115
9.53 -0.487739
9.54 -0.483891
9.55 -0.476509
9.56 -0.466601
9.57 -0.455899
9.58 -0.445773
9.59 -0.437787
9.6 -0.43277
9.61 -0.432215
9.62 -0.436157
9.63 -0.445176
9.64 -0.45918
9.65 -0.47752
9.66 -0.500059
9.67 -0.525424
9.68 -0.552996
9.69 -0.581599
9.7 -0.61037
9.71 -0.638424
9.72 -0.665282
9.73 -0.690326
9.74 -0.713656
9.75 -0.735254
9.76 -0.755454
9.77 -0.774738
9.78 -0.793528
9.79 -0.812287
9.8 -0.831248
9.81 -0.850326
9.82 -0.869084
9.83 -0.886417
9.84 -0.9011
9.85 -0.910348
9.86 -0.912137
9.87 -0.902824
9.88 -0.878502
9.89 -0.836612
9.9 -0.770181
9.91 -0.678898
9.92 -0.556032
9.93 -0.400612
9.94 -0.210617
9.95 0.0174054
9.96 0.279149
9.97 0.57844
9.98 0.907686
9.99 1.26491
10 1.64394
10.01 2.03723
10.02 2.43775
10.03 2.83626
10.04 3.22315
10.05 3.58953
10.06 3.92698
10.07 4.22417
10.08 4.4787
10.09 4.67667
10.1 4.82031
10.11 4.90269
10.12 4.92246
10.13 4.88403
10.14 4.78197
10.15 4.62887
10.16 4.42395
10.17 4.17768
10.18 3.89717
10.19 3.58953
10.2 3.26564
10.21 2.93245
10.22 2.59939
10.23 2.27373
10.24 1.96264
10.25 1.67014
10.26 1.40364
10.27 1.1623
10.28 0.950848
10.29 0.767598
10.3 0.611739
10.31 0.48295
10.32 0.375765
10.33 0.289985
10.34 0.219264
10.35 0.161004
10.36 0.111135
10.37 0.0659818
10.38 0.0226836
10.39 -0.0214456
10.4 -0.0685028
10.41 -0.119688
10.42 -0.175662
10.43 -0.236905
10.44 -0.302505
10.45 -0.372302
10.46 -0.444688
10.47 -0.518609
10.48 -0.592568
10.49 -0.665323
10.5 -0.735225
10.51 -0.801573
10.52 -0.862942
10.53 -0.918867
10.54 -0.968853
10.55 -1.01213
10.56 -1.04929
10.57 -1.07935
10.58 -1.10327
10.59 -1.12077
10.6 -1.13206
10.61 -1.13773
10.62 -1.13721
10.63 -1.13152
10.64 -1.12019
10.65 -1.10376
10.66 -1.08239
10.67 -1.05602
10.68 -1.02549
10.69 -0.99058
10.7 -0.952362
10.71 -0.911232
10.72 -0.86804
10.73 -0.823735
10.74 -0.779315
10.75 -0.735832
10.76 -0.69455
10.77 -0.6565
10.78 -0.622667
10.79 -0.594421
10.8 -0.571891
10.81 -0.55671
10.82 -0.548408
10.83 -0.547659
10.84 -0.554426
10.85 -0.567973
10.86 -0.588694
10.87 -0.614936
10.88 -0.646515
10.89 -0.682074
10.9 -0.720636
10.91 -0.76119
10.92 -0.802532
10.93 -0.843648
10.94 -0.88362
10.95 -0.921573
10.96 -0.956748
10.97 -0.988837
10.98 -1.01695
10.99 -1.04143
11 -1.06171
11.01 -1.07813
11.02 -1.09085
11.03 -1.09995
11.04 -1.10619
11.05 -1.1096
11.06 -1.11108
11.07 -1.11101
11.08 -1.11004
11.09 -1.10875
11.1 -1.10772
11.11 -1.10739
11.12 -1.10828
11.13 -1.11063
11.14 -1.11458
11.15 -1.12022
11.16 -1.12713
11.17 -1.13501
11.18 -1.14297
11.19 -1.15003
11.2 -1.15477
11.21 -1.15591
11.22 -1.15087
11.23 -1.13856
11.24 -1.11586
11.25 -1.08108
11.26 -1.03222
11.27 -0.96599
11.28 -0.882694
11.29 -0.778022
11.3 -0.653617
11.31 -0.507786
11.32 -0.340814
11.33 -0.155041
11.34 0.0501656
11.35 0.269638
11.36 0.501763
11.37 0.741582
11.38 0.984859
11.39 1.22625
11.4 1.46115
11.41 1.68258
11.42 1.88687
11.43 2.06806
11.44 2.22119
11.45 2.34473
11.46 2.43096
11.47 2.48311
11.48 2.49593
11.49 2.47188
11.5 2.4121
11.51 2.31648
11.52 2.19187
11.53 2.038
11.54 1.86301
11.55 1.67034
11.56 1.46573
11.57 1.25479
11.58 1.04262
11.59 0.834038
11.6 0.633922
11.61 0.445626
11.62 0.271822
11.63 0.115883
11.64 -0.0230671
11.65 -0.141894
11.66 -0.243427
11.67 -0.327578
11.68 -0.396123
11.69 -0.452041
11.7 -0.496291
11.71 -0.532958
11.72 -0.563703
11.73 -0.591389
11.74 -0.617975
11.75 -0.645303
11.76 -0.674432
11.77 -0.70646
11.78 -0.741231
11.79 -0.778605
11.8 -0.8177
11.81 -0.857279
11.82 -0.895575
11.83 -0.930979
11.84 -0.961074
11.85 -0.984
11.86 -0.997912
11.87 -1.00007
11.88 -0.990314
11.89 -0.965314
11.9 -0.92598
11.91 -0.870908
11.92 -0.80002
11.93 -0.714816
11.94 -0.614286
11.95 -0.501899
11.96 -0.378029
11.97 -0.245631
11.98 -0.107016
11.99 0.0352436
12 0.178137
12.01 0.318537
12.02 0.453808
12.03 0.580912
12.04 0.696947
12.05 0.800548
12.06 0.887563
12.07 0.958739
12.08 1.01091
12.09 1.04446
12.1 1.05928
12.11 1.05432
12.12 1.03256
12.13 0.992725
12.14 0.938666
12.15 0.871422
12.16 0.793457
12.17 0.70777
12.18 0.616215
12.19 0.522095
12.2 0.427614
12.21 0.335173
12.22 0.246587
12.23 0.16394
12.24 0.0876495
12.25 0.0195314
12.26 -0.0411139
12.27 -0.0939767
12.28 -0.139659
12.29 -0.179509
12.3 -0.214069
12.31 -0.245431
12.32 -0.274718
12.33 -0.303592
12.34 -0.333297
12.35 -0.365148
12.36 -0.399648
12.37 -0.437704
12.38 -0.478919
12.39 -0.523102
12.4 -0.569361
