# xPDFsuite Configuration #
[PDF]
wavelength = 0.1432
dataformat = twotheta
inputfile = 1_1Pd_CeO2_cycle-00154.chi
backgroundfile = background-00000.chi
mode = xray
bgscale = 1.007
composition = CeO2
outputtype = gr
qmaxinst = 28.8974762299
qmin = 0.5
qmax = 27.9
rmax = 50.0
rmin = 0.0
rstep = 0.01
rpoly = 1.8657

[Misc]
inputdir = G:/SankarDec16/1Pd/Chi
savedir = D:/DATA/APS_CeO2/1Pd
backgroundfilefull = G:/SankarDec16/Background/background-00000.chi

#### start data
#S 1
#L r($\AA$)  G($\AA^{-2}$)
0 0
0.01 -0.00624787
0.02 -0.0120251
0.03 -0.0168471
0.04 -0.0203489
0.05 -0.0223274
0.06 -0.0224559
0.07 -0.0209519
0.08 -0.0177103
0.09 -0.0131462
0.1 -0.00754652
0.11 -0.00135086
0.12 0.00496133
0.13 0.0108523
0.14 0.0159408
0.15 0.0197603
0.16 0.0220373
0.17 0.0226626
0.18 0.0214134
0.19 0.0186093
0.2 0.0142627
0.21 0.0088574
0.22 0.00275077
0.23 -0.00356367
0.24 -0.0096345
0.25 -0.0148823
0.26 -0.0190333
0.27 -0.0216612
0.28 -0.0225972
0.29 -0.0218314
0.3 -0.0192555
0.31 -0.0152764
0.32 -0.0100233
0.33 -0.00402651
0.34 0.00230347
0.35 0.00844211
0.36 0.0139877
0.37 0.0183467
0.38 0.0213657
0.39 0.0226794
0.4 0.0222319
0.41 0.0201132
0.42 0.0163352
0.43 0.0113731
0.44 0.00546712
0.45 -0.000831091
0.46 -0.00707725
0.47 -0.0127404
0.48 -0.017488
0.49 -0.0207407
0.5 -0.0224732
0.51 -0.0223988
0.52 -0.0205774
0.53 -0.0171955
0.54 -0.0123851
0.55 -0.00666716
0.56 -0.000382031
0.57 0.00592309
0.58 0.0117916
0.59 0.016711
0.6 0.0204342
0.61 0.0224239
0.62 0.0227845
0.63 0.0213222
0.64 0.0182105
0.65 0.0137238
0.66 0.0081088
0.67 0.00190783
0.68 -0.00445462
0.69 -0.0104614
0.7 -0.0156654
0.71 -0.0195966
0.72 -0.0221057
0.73 -0.0227225
0.74 -0.0216763
0.75 -0.0188754
0.76 -0.0145985
0.77 -0.00919431
0.78 -0.00301189
0.79 0.0034113
0.8 0.00958848
0.81 0.0150575
0.82 0.0194032
0.83 0.0222215
0.84 0.0234675
0.85 0.0227621
0.86 0.0204466
0.87 0.0165343
0.88 0.0113929
0.89 0.00542468
0.9 -0.000941975
0.91 -0.00720595
0.92 -0.0128527
0.93 -0.0175049
0.94 -0.0208114
0.95 -0.0224681
0.96 -0.0225426
0.97 -0.0207905
0.98 -0.0176473
0.99 -0.01325
1 -0.00804333
1.01 -0.00246427
1.02 0.00298649
1.03 0.00788815
1.04 0.0117182
1.05 0.014229
1.06 0.0151693
1.07 0.0143807
1.08 0.0120767
1.09 0.00821114
1.1 0.00333525
1.11 -0.00223125
1.12 -0.00792685
1.13 -0.0132512
1.14 -0.0175526
1.15 -0.0204993
1.16 -0.0214692
1.17 -0.020348
1.18 -0.0169414
1.19 -0.0111898
1.2 -0.00349051
1.21 0.0061
1.22 0.0168189
1.23 0.028192
1.24 0.0394799
1.25 0.0500447
1.26 0.0590277
1.27 0.0660424
1.28 0.0702547
1.29 0.0715186
1.3 0.0695328
1.31 0.0641217
1.32 0.0557386
1.33 0.0442105
1.34 0.0304579
1.35 0.0148313
1.36 -0.00189009
1.37 -0.0190011
1.38 -0.0357073
1.39 -0.0514012
1.4 -0.065269
1.41 -0.0769288
1.42 -0.0859338
1.43 -0.0918914
1.44 -0.0949948
1.45 -0.0947682
1.46 -0.0918561
1.47 -0.0862459
1.48 -0.0783892
1.49 -0.0687444
1.5 -0.0576191
1.51 -0.0456196
1.52 -0.0330785
1.53 -0.020449
1.54 -0.00805278
1.55 0.00378128
1.56 0.0149009
1.57 0.0249735
1.58 0.0340209
1.59 0.041842
1.6 0.0483891
1.61 0.0536545
1.62 0.0574353
1.63 0.0598688
1.64 0.0607086
1.65 0.0600448
1.66 0.0577951
1.67 0.0538753
1.68 0.0484591
1.69 0.0413433
1.7 0.0328817
1.71 0.0231
1.72 0.0122771
1.73 0.000713411
1.74 -0.0112892
1.75 -0.0233237
1.76 -0.0349783
1.77 -0.0458874
1.78 -0.0556937
1.79 -0.0640219
1.8 -0.0708216
1.81 -0.0756876
1.82 -0.0789012
1.83 -0.0804128
1.84 -0.0805207
1.85 -0.07959
1.86 -0.0779906
1.87 -0.0762602
1.88 -0.0749135
1.89 -0.0744167
1.9 -0.0751962
1.91 -0.0776694
1.92 -0.0818514
1.93 -0.0881001
1.94 -0.0959943
1.95 -0.105412
1.96 -0.11583
1.97 -0.126671
1.98 -0.13719
1.99 -0.146714
2 -0.154279
2.01 -0.159291
2.02 -0.161055
2.03 -0.158851
2.04 -0.152741
2.05 -0.141829
2.06 -0.126836
2.07 -0.107564
2.08 -0.0845416
2.09 -0.0584017
2.1 -0.0295175
2.11 0.00112107
2.12 0.033043
2.13 0.0655005
2.14 0.0980312
2.15 0.13024
2.16 0.161989
2.17 0.193196
2.18 0.224109
2.19 0.255019
2.2 0.286382
2.21 0.318617
2.22 0.352344
2.23 0.387725
2.24 0.425223
2.25 0.46465
2.26 0.505807
2.27 0.548137
2.28 0.590747
2.29 0.632344
2.3 0.671668
2.31 0.706903
2.32 0.7363
2.33 0.758513
2.34 0.77088
2.35 0.773328
2.36 0.763317
2.37 0.741231
2.38 0.706567
2.39 0.659192
2.4 0.60117
2.41 0.532283
2.42 0.456006
2.43 0.373884
2.44 0.288862
2.45 0.203569
2.46 0.121117
2.47 0.0435993
2.48 -0.0258438
2.49 -0.0859562
2.5 -0.135208
2.51 -0.17231
2.52 -0.198367
2.53 -0.21206
2.54 -0.216306
2.55 -0.211809
2.56 -0.201002
2.57 -0.18627
2.58 -0.169957
2.59 -0.154517
2.6 -0.142385
2.61 -0.135175
2.62 -0.134306
2.63 -0.140962
2.64 -0.154606
2.65 -0.176048
2.66 -0.203254
2.67 -0.235423
2.68 -0.270557
2.69 -0.306741
2.7 -0.341779
2.71 -0.373988
2.72 -0.401176
2.73 -0.4224
2.74 -0.4367
2.75 -0.443431
2.76 -0.443567
2.77 -0.436868
2.78 -0.425592
2.79 -0.410939
2.8 -0.395067
2.81 -0.37989
2.82 -0.367755
2.83 -0.359948
2.84 -0.358577
2.85 -0.364076
2.86 -0.376991
2.87 -0.397417
2.88 -0.42389
2.89 -0.455924
2.9 -0.490928
2.91 -0.527095
2.92 -0.561916
2.93 -0.593343
2.94 -0.61856
2.95 -0.636681
2.96 -0.645353
2.97 -0.644658
2.98 -0.634331
2.99 -0.614676
3 -0.587794
3.01 -0.55458
3.02 -0.518256
3.03 -0.481093
3.04 -0.446046
3.05 -0.415432
3.06 -0.392439
3.07 -0.377869
3.08 -0.374238
3.09 -0.381213
3.1 -0.398883
3.11 -0.426676
3.12 -0.462122
3.13 -0.504025
3.14 -0.548855
3.15 -0.59409
3.16 -0.636629
3.17 -0.674148
3.18 -0.703492
3.19 -0.724136
3.2 -0.733886
3.21 -0.733528
3.22 -0.723481
3.23 -0.704983
3.24 -0.680847
3.25 -0.653222
3.26 -0.625651
3.27 -0.601249
3.28 -0.583211
3.29 -0.573675
3.3 -0.575947
3.31 -0.589677
3.32 -0.616788
3.33 -0.655479
3.34 -0.704512
3.35 -0.761594
3.36 -0.823055
3.37 -0.885436
3.38 -0.944722
3.39 -0.996844
3.4 -1.03819
3.41 -1.06664
3.42 -1.07844
3.43 -1.07491
3.44 -1.0543
3.45 -1.01961
3.46 -0.973043
3.47 -0.918144
3.48 -0.859703
3.49 -0.802628
3.5 -0.751559
3.51 -0.711486
3.52 -0.686223
3.53 -0.677521
3.54 -0.688623
3.55 -0.716437
3.56 -0.760694
3.57 -0.815535
3.58 -0.875451
3.59 -0.932142
3.6 -0.977962
3.61 -0.999979
3.62 -0.991732
3.63 -0.940987
3.64 -0.839333
3.65 -0.682524
3.66 -0.458373
3.67 -0.173201
3.68 0.181009
3.69 0.595014
3.7 1.0641
3.71 1.58033
3.72 2.1281
3.73 2.69655
3.74 3.2669
3.75 3.82272
3.76 4.34576
3.77 4.82225
3.78 5.22915
3.79 5.56277
3.8 5.80167
3.81 5.94565
3.82 5.98854
3.83 5.92491
3.84 5.76816
3.85 5.50952
3.86 5.17282
3.87 4.76268
3.88 4.29596
3.89 3.78941
3.9 3.25698
3.91 2.71736
3.92 2.18586
3.93 1.67643
3.94 1.20099
3.95 0.772058
3.96 0.391396
3.97 0.0724241
3.98 -0.19187
3.99 -0.397277
4 -0.548417
4.01 -0.652402
4.02 -0.71123
4.03 -0.737954
4.04 -0.73673
4.05 -0.718269
4.06 -0.689404
4.07 -0.657268
4.08 -0.627349
4.09 -0.605054
4.1 -0.592242
4.11 -0.591264
4.12 -0.602077
4.13 -0.623221
4.14 -0.65365
4.15 -0.689599
4.16 -0.728512
4.17 -0.766726
4.18 -0.801225
4.19 -0.828649
4.2 -0.847598
4.21 -0.854643
4.22 -0.850436
4.23 -0.833621
4.24 -0.804784
4.25 -0.765275
4.26 -0.715325
4.27 -0.65781
4.28 -0.593539
4.29 -0.524873
4.3 -0.453241
4.31 -0.380053
4.32 -0.306462
4.33 -0.233292
4.34 -0.160949
4.35 -0.0896971
4.36 -0.0195107
4.37 0.0497718
4.38 0.118207
4.39 0.18597
4.4 0.252872
4.41 0.318646
4.42 0.38271
4.43 0.444002
4.44 0.501772
4.45 0.553849
4.46 0.599508
4.47 0.636609
4.48 0.663652
4.49 0.679855
4.5 0.682658
4.51 0.673105
4.52 0.649203
4.53 0.6123
4.54 0.562778
4.55 0.50133
4.56 0.430623
4.57 0.351314
4.58 0.266827
4.59 0.179019
4.6 0.0905502
4.61 0.00355148
4.62 -0.0794139
4.63 -0.157199
4.64 -0.227661
4.65 -0.290427
4.66 -0.344916
4.67 -0.390721
4.68 -0.429104
4.69 -0.459672
4.7 -0.484549
4.71 -0.504414
4.72 -0.520756
4.73 -0.534903
4.74 -0.547923
4.75 -0.560886
4.76 -0.574556
4.77 -0.589357
4.78 -0.605481
4.79 -0.622901
4.8 -0.641206
4.81 -0.659992
4.82 -0.678594
4.83 -0.696363
4.84 -0.712646
4.85 -0.727026
4.86 -0.738822
4.87 -0.748162
4.88 -0.754685
4.89 -0.758784
4.9 -0.760732
4.91 -0.760955
4.92 -0.760148
4.93 -0.758842
4.94 -0.757715
4.95 -0.757322
4.96 -0.758136
4.97 -0.760386
4.98 -0.764427
4.99 -0.770025
5 -0.777235
5.01 -0.785649
5.02 -0.794958
5.03 -0.804761
5.04 -0.81465
5.05 -0.824234
5.06 -0.833279
5.07 -0.841564
5.08 -0.849022
5.09 -0.855717
5.1 -0.861669
5.11 -0.867103
5.12 -0.87207
5.13 -0.876646
5.14 -0.880735
5.15 -0.883983
5.16 -0.886004
5.17 -0.885676
5.18 -0.882244
5.19 -0.874114
5.2 -0.859671
5.21 -0.837666
5.22 -0.805153
5.23 -0.761886
5.24 -0.704808
5.25 -0.633736
5.26 -0.547688
5.27 -0.445652
5.28 -0.329656
5.29 -0.198609
5.3 -0.0564504
5.31 0.0952582
5.32 0.252826
5.33 0.412476
5.34 0.56958
5.35 0.720173
5.36 0.85856
5.37 0.981057
5.38 1.08354
5.39 1.16104
5.4 1.21362
5.41 1.23485
5.42 1.22812
5.43 1.1911
5.44 1.12556
5.45 1.0349
5.46 0.9196
5.47 0.786564
5.48 0.638085
5.49 0.480385
5.5 0.317963
5.51 0.156014
5.52 -0.00138714
5.53 -0.148846
5.54 -0.284331
5.55 -0.404239
5.56 -0.506884
5.57 -0.592297
5.58 -0.658274
5.59 -0.708038
5.6 -0.740829
5.61 -0.759892
5.62 -0.767049
5.63 -0.764301
5.64 -0.754784
5.65 -0.739813
5.66 -0.721989
5.67 -0.702488
5.68 -0.682425
5.69 -0.662311
5.7 -0.642218
5.71 -0.621818
5.72 -0.600377
5.73 -0.57707
5.74 -0.550973
5.75 -0.52093
5.76 -0.486685
5.77 -0.447006
5.78 -0.402535
5.79 -0.353172
5.8 -0.299797
5.81 -0.243672
5.82 -0.186208
5.83 -0.12931
5.84 -0.0751473
5.85 -0.0256586
5.86 0.0172134
5.87 0.0511161
5.88 0.0756408
5.89 0.0879778
5.9 0.0891875
5.91 0.0782302
5.92 0.0557509
5.93 0.0231736
5.94 -0.0192134
5.95 -0.0685107
5.96 -0.123637
5.97 -0.182042
5.98 -0.241906
5.99 -0.301241
6 -0.358656
6.01 -0.412395
6.02 -0.462095
6.03 -0.506982
6.04 -0.547095
6.05 -0.582997
6.06 -0.614928
6.07 -0.644265
6.08 -0.671735
6.09 -0.698562
6.1 -0.725629
6.11 -0.753801
6.12 -0.783416
6.13 -0.814926
6.14 -0.847913
6.15 -0.882017
6.16 -0.916371
6.17 -0.950041
6.18 -0.981621
6.19 -1.01026
6.2 -1.03441
6.21 -1.05345
6.22 -1.0667
6.23 -1.07354
6.24 -1.07474
6.25 -1.06996
6.26 -1.06091
6.27 -1.04844
6.28 -1.03418
6.29 -1.0196
6.3 -1.00637
6.31 -0.995455
6.32 -0.988036
6.33 -0.984116
6.34 -0.983343
6.35 -0.984537
6.36 -0.985655
6.37 -0.983445
6.38 -0.974726
6.39 -0.954783
6.4 -0.918644
6.41 -0.862664
6.42 -0.778717
6.43 -0.666155
6.44 -0.517053
6.45 -0.330989
6.46 -0.10571
6.47 0.161425
6.48 0.46501
6.49 0.807996
6.5 1.18057
6.51 1.57923
6.52 1.99534
6.53 2.41987
6.54 2.84256
6.55 3.25363
6.56 3.64033
6.57 3.99345
6.58 4.30325
6.59 4.5574
6.6 4.75499
6.61 4.87998
6.62 4.93833
6.63 4.92285
6.64 4.83502
6.65 4.68118
6.66 4.45846
6.67 4.18236
6.68 3.85447
6.69 3.48855
6.7 3.09379
6.71 2.68063
6.72 2.26075
6.73 1.84477
6.74 1.44174
6.75 1.06103
6.76 0.710126
6.77 0.392555
6.78 0.117114
6.79 -0.119633
6.8 -0.311895
6.81 -0.463857
6.82 -0.577039
6.83 -0.65293
6.84 -0.69918
6.85 -0.716103
6.86 -0.712563
6.87 -0.691702
6.88 -0.658899
6.89 -0.618771
6.9 -0.574758
6.91 -0.530374
6.92 -0.488106
6.93 -0.449598
6.94 -0.415879
6.95 -0.387738
6.96 -0.364572
6.97 -0.346795
6.98 -0.333096
6.99 -0.323147
7 -0.3162
7.01 -0.311606
7.02 -0.309284
7.03 -0.308838
7.04 -0.310673
7.05 -0.315013
7.06 -0.322409
7.07 -0.333776
7.08 -0.349326
7.09 -0.37048
7.1 -0.39699
7.11 -0.429566
7.12 -0.468137
7.13 -0.512086
7.14 -0.561353
7.15 -0.614296
7.16 -0.670081
7.17 -0.726956
7.18 -0.783418
7.19 -0.837591
7.2 -0.88827
7.21 -0.933249
7.22 -0.972104
7.23 -1.00351
7.24 -1.02704
7.25 -1.04309
7.26 -1.05111
7.27 -1.05291
7.28 -1.04881
7.29 -1.04065
7.3 -1.02979
7.31 -1.01776
7.32 -1.00601
7.33 -0.995953
7.34 -0.98829
7.35 -0.983701
7.36 -0.982197
7.37 -0.983186
7.38 -0.985876
7.39 -0.98865
7.4 -0.98957
7.41 -0.986481
7.42 -0.977099
7.43 -0.95832
7.44 -0.928994
7.45 -0.884957
7.46 -0.826392
7.47 -0.750907
7.48 -0.657975
7.49 -0.548607
7.5 -0.421564
7.51 -0.280665
7.52 -0.126419
7.53 0.0372162
7.54 0.207157
7.55 0.379507
7.56 0.55032
7.57 0.714635
7.58 0.869188
7.59 1.00942
7.6 1.13165
7.61 1.23416
7.62 1.31166
7.63 1.36591
7.64 1.39292
7.65 1.39447
7.66 1.37086
7.67 1.32209
7.68 1.25257
7.69 1.16168
7.7 1.05515
7.71 0.934873
7.72 0.804739
7.73 0.668519
7.74 0.529461
7.75 0.391179
7.76 0.257064
7.77 0.129824
7.78 0.0118742
7.79 -0.0938738
7.8 -0.187196
7.81 -0.264637
7.82 -0.327484
7.83 -0.374232
7.84 -0.405097
7.85 -0.421401
7.86 -0.4222
7.87 -0.410699
7.88 -0.386826
7.89 -0.353267
7.9 -0.31174
7.91 -0.264118
7.92 -0.213052
7.93 -0.160512
7.94 -0.108948
7.95 -0.0605565
7.96 -0.0175475
7.97 0.0186954
7.98 0.0454313
7.99 0.0626957
8 0.0682712
8.01 0.0623968
8.02 0.0448294
8.03 0.0151704
8.04 -0.0246738
8.05 -0.0752013
8.06 -0.133627
8.07 -0.19896
8.08 -0.269129
8.09 -0.342075
8.1 -0.415897
8.11 -0.488672
8.12 -0.558484
8.13 -0.624019
8.14 -0.68418
8.15 -0.737796
8.16 -0.785236
8.17 -0.825514
8.18 -0.859957
8.19 -0.888797
8.2 -0.913091
8.21 -0.934072
8.22 -0.952548
8.23 -0.9698
8.24 -0.986459
8.25 -1.00302
8.26 -1.01948
8.27 -1.0353
8.28 -1.0496
8.29 -1.06036
8.3 -1.06595
8.31 -1.06348
8.32 -1.04986
8.33 -1.02296
8.34 -0.977423
8.35 -0.912904
8.36 -0.824194
8.37 -0.710733
8.38 -0.57097
8.39 -0.402625
8.4 -0.20909
8.41 0.0122137
8.42 0.255201
8.43 0.518103
8.44 0.795836
8.45 1.08262
8.46 1.37261
8.47 1.65901
8.48 1.93416
8.49 2.19157
8.5 2.42484
8.51 2.62554
8.52 2.79222
8.53 2.91425
8.54 2.99402
8.55 3.02628
8.56 3.01054
8.57 2.95025
8.58 2.84179
8.59 2.69483
8.6 2.50901
8.61 2.29264
8.62 2.05119
8.63 1.79051
8.64 1.51887
8.65 1.24211
8.66 0.96746
8.67 0.700944
8.68 0.448377
8.69 0.213063
8.7 0.0014566
8.71 -0.18719
8.72 -0.348334
8.73 -0.483324
8.74 -0.5924
8.75 -0.675413
8.76 -0.73703
8.77 -0.776677
8.78 -0.800229
8.79 -0.809653
8.8 -0.808721
8.81 -0.80107
8.82 -0.789394
8.83 -0.776925
8.84 -0.766044
8.85 -0.758657
8.86 -0.756108
8.87 -0.759704
8.88 -0.769143
8.89 -0.785314
8.9 -0.806887
8.91 -0.833504
8.92 -0.864011
8.93 -0.897096
8.94 -0.931656
8.95 -0.966292
8.96 -0.999809
8.97 -1.03121
8.98 -1.0597
8.99 -1.08442
9 -1.10543
9.01 -1.12195
9.02 -1.13462
9.03 -1.14339
9.04 -1.14871
9.05 -1.15123
9.06 -1.15115
9.07 -1.14933
9.08 -1.146
9.09 -1.14161
9.1 -1.13634
9.11 -1.13015
9.12 -1.12299
9.13 -1.11431
9.14 -1.10379
9.15 -1.09064
9.16 -1.07407
9.17 -1.05356
9.18 -1.02767
9.19 -0.996455
9.2 -0.95864
9.21 -0.914273
9.22 -0.863197
9.23 -0.805159
9.24 -0.741341
9.25 -0.671689
9.26 -0.598064
9.27 -0.521531
9.28 -0.443903
9.29 -0.366914
9.3 -0.292896
9.31 -0.223344
9.32 -0.160812
9.33 -0.106683
9.34 -0.0624181
9.35 -0.0299899
9.36 -0.00884579
9.37 -0.00123864
9.38 -0.00534929
9.39 -0.0214888
9.4 -0.0484895
9.41 -0.0843825
9.42 -0.12833
9.43 -0.177271
9.44 -0.229563
9.45 -0.282609
9.46 -0.33436
9.47 -0.382455
9.48 -0.425683
9.49 -0.461673
9.5 -0.490341
9.51 -0.510631
9.52 -0.522504
9.53 -0.526837
9.54 -0.523541
9.55 -0.514794
9.56 -0.501416
9.57 -0.485447
9.58 -0.468493
9.59 -0.452406
9.6 -0.438536
9.61 -0.428783
9.62 -0.423722
9.63 -0.424427
9.64 -0.431314
9.65 -0.444033
9.66 -0.463038
9.67 -0.486898
9.68 -0.515374
9.69 -0.547132
9.7 -0.581199
9.71 -0.616551
9.72 -0.652163
9.73 -0.68715
9.74 -0.720938
9.75 -0.752998
9.76 -0.783039
9.77 -0.811077
9.78 -0.836803
9.79 -0.860523
9.8 -0.88189
9.81 -0.900786
9.82 -0.916712
9.83 -0.928491
9.84 -0.935404
9.85 -0.934708
9.86 -0.925131
9.87 -0.903467
9.88 -0.866485
9.89 -0.812229
9.9 -0.734488
9.91 -0.633368
9.92 -0.50284
9.93 -0.342205
9.94 -0.149692
9.95 0.0778414
9.96 0.336456
9.97 0.629759
9.98 0.950853
9.99 1.29805
10 1.66577
10.01 2.04713
10.02 2.43573
10.03 2.82296
10.04 3.19991
10.05 3.55814
10.06 3.88962
10.07 4.18347
10.08 4.43715
10.09 4.63711
10.1 4.78508
10.11 4.87399
10.12 4.90202
10.13 4.873
10.14 4.78099
10.15 4.63789
10.16 4.44233
10.17 4.20421
10.18 3.93021
10.19 3.62691
10.2 3.30518
10.21 2.97154
10.22 2.63576
10.23 2.30512
10.24 1.98715
10.25 1.68634
10.26 1.41049
10.27 1.15943
10.28 0.938401
10.29 0.74631
10.3 0.582804
10.31 0.448121
10.32 0.336894
10.33 0.24945
10.34 0.179223
10.35 0.123713
10.36 0.0786477
10.37 0.0399539
10.38 0.00455805
10.39 -0.0308622
10.4 -0.0688124
10.41 -0.111048
10.42 -0.158685
10.43 -0.212733
10.44 -0.272489
10.45 -0.338318
10.46 -0.408551
10.47 -0.482316
10.48 -0.558058
10.49 -0.634271
10.5 -0.709254
10.51 -0.781771
10.52 -0.850148
10.53 -0.913443
10.54 -0.970779
10.55 -1.02095
10.56 -1.06429
10.57 -1.09936
10.58 -1.12707
10.59 -1.14692
10.6 -1.15907
10.61 -1.16425
10.62 -1.16184
10.63 -1.15322
10.64 -1.13804
10.65 -1.11718
10.66 -1.09108
10.67 -1.05999
10.68 -1.02497
10.69 -0.986115
10.7 -0.944614
10.71 -0.901037
10.72 -0.856313
10.73 -0.811343
10.74 -0.767192
10.75 -0.724692
10.76 -0.685051
10.77 -0.649081
10.78 -0.617595
10.79 -0.591766
10.8 -0.571548
10.81 -0.558376
10.82 -0.551685
10.83 -0.552025
10.84 -0.5593
10.85 -0.5728
10.86 -0.592873
10.87 -0.618014
10.88 -0.648083
10.89 -0.681882
10.9 -0.71856
10.91 -0.757263
10.92 -0.796915
10.93 -0.836674
10.94 -0.875692
10.95 -0.913205
10.96 -0.948516
10.97 -0.981299
10.98 -1.01073
10.99 -1.03702
11 -1.05959
11.01 -1.07864
11.02 -1.09423
11.03 -1.10629
11.04 -1.11545
11.05 -1.12159
11.06 -1.12548
11.07 -1.1274
11.08 -1.12786
11.09 -1.12744
11.1 -1.12657
11.11 -1.1258
11.12 -1.12556
11.13 -1.1262
11.14 -1.12793
11.15 -1.1309
11.16 -1.13486
11.17 -1.13958
11.18 -1.14433
11.19 -1.14827
11.2 -1.1501
11.21 -1.14865
11.22 -1.14145
11.23 -1.12744
11.24 -1.1036
11.25 -1.06823
11.26 -1.01928
11.27 -0.953489
11.28 -0.871023
11.29 -0.76754
11.3 -0.644537
11.31 -0.500228
11.32 -0.334773
11.33 -0.150415
11.34 0.0536008
11.35 0.27215
11.36 0.503704
11.37 0.743307
11.38 0.986716
11.39 1.22856
11.4 1.46416
11.41 1.68646
11.42 1.89165
11.43 2.07368
11.44 2.22745
11.45 2.35133
11.46 2.43747
11.47 2.48908
11.48 2.50083
11.49 2.47519
11.5 2.41336
11.51 2.31528
11.52 2.18796
11.53 2.03124
11.54 1.85347
11.55 1.65826
11.56 1.45154
11.57 1.23909
11.58 1.02621
11.59 0.817752
11.6 0.618734
11.61 0.432464
11.62 0.261564
11.63 0.109344
11.64 -0.0253197
11.65 -0.139441
11.66 -0.236159
11.67 -0.315647
11.68 -0.379995
11.69 -0.432398
11.7 -0.474196
11.71 -0.509517
11.72 -0.540301
11.73 -0.569397
11.74 -0.598745
11.75 -0.630176
11.76 -0.664438
11.77 -0.702512
11.78 -0.743822
11.79 -0.78792
11.8 -0.833515
11.81 -0.879045
11.82 -0.922262
11.83 -0.961404
11.84 -0.993662
11.85 -1.0171
11.86 -1.02983
11.87 -1.02901
11.88 -1.01481
11.89 -0.98393
11.9 -0.93775
11.91 -0.875169
11.92 -0.796556
11.93 -0.703814
11.94 -0.596443
11.95 -0.478184
11.96 -0.349861
11.97 -0.214598
11.98 -0.0748365
11.99 0.0666814
12 0.20722
12.01 0.343587
12.02 0.473619
12.03 0.594532
12.04 0.703854
12.05 0.800643
12.06 0.881228
12.07 0.946687
12.08 0.994304
12.09 1.02468
12.1 1.03785
12.11 1.033
12.12 1.01284
12.13 0.976206
12.14 0.926504
12.15 0.864537
12.16 0.792353
12.17 0.712541
12.18 0.626476
12.19 0.537129
12.2 0.446254
12.21 0.356023
12.22 0.268084
12.23 0.184312
12.24 0.105348
12.25 0.032917
12.26 -0.0332436
12.27 -0.092587
12.28 -0.145292
12.29 -0.192279
12.3 -0.233596
12.31 -0.270975
12.32 -0.305057
12.33 -0.337242
12.34 -0.368569
12.35 -0.400089
12.36 -0.432509
12.37 -0.466566
12.38 -0.502295
12.39 -0.539689
12.4 -0.578247
