# xPDFsuite Configuration #
[PDF]
wavelength = 0.1432
dataformat = twotheta
inputfile = 1_1Pd_CeO2_cycle-00061.chi
backgroundfile = background-00000.chi
mode = xray
bgscale = 1.007
composition = CeO2
outputtype = gr
qmaxinst = 28.8974762299
qmin = 0.5
qmax = 27.9
rmax = 50.0
rmin = 0.0
rstep = 0.01
rpoly = 1.8657

[Misc]
inputdir = G:/SankarDec16/1Pd/Chi
savedir = D:/DATA/APS_CeO2/1Pd
backgroundfilefull = G:/SankarDec16/Background/background-00000.chi

#### start data
#S 1
#L r($\AA$)  G($\AA^{-2}$)
0 0
0.01 -0.00610895
0.02 -0.0117563
0.03 -0.016467
0.04 -0.0198834
0.05 -0.0218068
0.06 -0.0219179
0.07 -0.0204308
0.08 -0.0172442
0.09 -0.0127661
0.1 -0.00727922
0.11 -0.00121591
0.12 0.00495402
0.13 0.010702
0.14 0.0156564
0.15 0.0193605
0.16 0.021549
0.17 0.0221173
0.18 0.0208509
0.19 0.018066
0.2 0.0137792
0.21 0.00846687
0.22 0.00248209
0.23 -0.00368943
0.24 -0.00960671
0.25 -0.0147005
0.26 -0.0187073
0.27 -0.021212
0.28 -0.0220545
0.29 -0.0212303
0.3 -0.01864
0.31 -0.0146868
0.32 -0.00950436
0.33 -0.00361449
0.34 0.00257739
0.35 0.00855578
0.36 0.0139307
0.37 0.0181205
0.38 0.0209832
0.39 0.022166
0.4 0.0216225
0.41 0.0194486
0.42 0.0156657
0.43 0.010744
0.44 0.00492794
0.45 -0.00124086
0.46 -0.00732485
0.47 -0.0128041
0.48 -0.0173593
0.49 -0.0204256
0.5 -0.0219898
0.51 -0.0217797
0.52 -0.0198653
0.53 -0.0164384
0.54 -0.0116409
0.55 -0.00598696
0.56 0.000179976
0.57 0.00632533
0.58 0.0120013
0.59 0.016709
0.6 0.0202167
0.61 0.0220044
0.62 0.0221891
0.63 0.0205931
0.64 0.0173999
0.65 0.0128884
0.66 0.00731463
0.67 0.001211
0.68 -0.00499667
0.69 -0.0108072
0.7 -0.0157851
0.71 -0.0194774
0.72 -0.0217517
0.73 -0.0221587
0.74 -0.0209402
0.75 -0.0180217
0.76 -0.013691
0.77 -0.00829957
0.78 -0.00220388
0.79 0.0040725
0.8 0.0100449
0.81 0.0152714
0.82 0.0193525
0.83 0.0219058
0.84 0.022905
0.85 0.0219977
0.86 0.0195362
0.87 0.0155537
0.88 0.010426
0.89 0.00455599
0.9 -0.00162142
0.91 -0.00762433
0.92 -0.012943
0.93 -0.0172259
0.94 -0.0201421
0.95 -0.0214146
0.96 -0.0211334
0.97 -0.0190883
0.98 -0.0157274
0.99 -0.0112137
1 -0.00600358
1.01 -0.000536798
1.02 0.00467196
1.03 0.00922288
1.04 0.0125896
1.05 0.014551
1.06 0.0148721
1.07 0.0134168
1.08 0.0104247
1.09 0.00587378
1.1 0.000337612
1.11 -0.00584075
1.12 -0.0120813
1.13 -0.017872
1.14 -0.0225382
1.15 -0.0257515
1.16 -0.0268677
1.17 -0.0257767
1.18 -0.022275
1.19 -0.0162922
1.2 -0.00823339
1.21 0.00187512
1.22 0.0132538
1.23 0.0254493
1.24 0.0377232
1.25 0.0494334
1.26 0.0597363
1.27 0.0682151
1.28 0.074039
1.29 0.0770216
1.3 0.0768304
1.31 0.0732402
1.32 0.0666496
1.33 0.0568022
1.34 0.0445602
1.35 0.0301772
1.36 0.0143524
1.37 -0.00226787
1.38 -0.0190131
1.39 -0.0352621
1.4 -0.0503153
1.41 -0.0637512
1.42 -0.075132
1.43 -0.0840461
1.44 -0.0905707
1.45 -0.094202
1.46 -0.0954001
1.47 -0.0940366
1.48 -0.0903867
1.49 -0.0847551
1.5 -0.0772326
1.51 -0.0683224
1.52 -0.058126
1.53 -0.0470334
1.54 -0.0352534
1.55 -0.0230162
1.56 -0.0105606
1.57 0.00191184
1.58 0.0141938
1.59 0.0260553
1.6 0.0372632
1.61 0.0476201
1.62 0.0567376
1.63 0.0645196
1.64 0.070491
1.65 0.074547
1.66 0.0764167
1.67 0.0758171
1.68 0.072892
1.69 0.0672015
1.7 0.0592238
1.71 0.0489034
1.72 0.0366092
1.73 0.022767
1.74 0.00774055
1.75 -0.00782026
1.76 -0.0233892
1.77 -0.0383798
1.78 -0.0522726
1.79 -0.0645106
1.8 -0.0749323
1.81 -0.0829486
1.82 -0.0888269
1.83 -0.09242
1.84 -0.0940238
1.85 -0.0940395
1.86 -0.0928242
1.87 -0.0910464
1.88 -0.0892439
1.89 -0.0880073
1.9 -0.0878358
1.91 -0.0892268
1.92 -0.0922687
1.93 -0.0973687
1.94 -0.104139
1.95 -0.112475
1.96 -0.121847
1.97 -0.13166
1.98 -0.141141
1.99 -0.149587
2 -0.155995
2.01 -0.15975
2.02 -0.160144
2.03 -0.156455
2.04 -0.148773
2.05 -0.136234
2.06 -0.119625
2.07 -0.0988221
2.08 -0.0744413
2.09 -0.0471901
2.1 -0.0175688
2.11 0.0134071
2.12 0.0451451
2.13 0.0769028
2.14 0.108193
2.15 0.138619
2.16 0.168145
2.17 0.196702
2.18 0.224713
2.19 0.25257
2.2 0.280895
2.21 0.310242
2.22 0.34142
2.23 0.374676
2.24 0.41065
2.25 0.449189
2.26 0.490153
2.27 0.53302
2.28 0.576792
2.29 0.6202
2.3 0.661776
2.31 0.69961
2.32 0.731771
2.33 0.756749
2.34 0.771692
2.35 0.776401
2.36 0.768155
2.37 0.747275
2.38 0.713188
2.39 0.665715
2.4 0.607013
2.41 0.536842
2.42 0.458874
2.43 0.374753
2.44 0.287602
2.45 0.200211
2.46 0.115885
2.47 0.0368332
2.48 -0.0336279
2.49 -0.0941943
2.5 -0.143279
2.51 -0.179567
2.52 -0.204272
2.53 -0.21609
2.54 -0.218146
2.55 -0.211272
2.56 -0.198104
2.57 -0.181199
2.58 -0.163127
2.59 -0.14644
2.6 -0.133779
2.61 -0.126781
2.62 -0.126916
2.63 -0.135375
2.64 -0.151473
2.65 -0.175983
2.66 -0.206609
2.67 -0.242376
2.68 -0.281033
2.69 -0.320447
2.7 -0.358122
2.71 -0.392254
2.72 -0.420368
2.73 -0.441477
2.74 -0.454534
2.75 -0.458842
2.76 -0.455547
2.77 -0.444382
2.78 -0.427934
2.79 -0.407564
2.8 -0.385727
2.81 -0.36461
2.82 -0.34689
2.83 -0.334072
2.84 -0.328602
2.85 -0.33105
2.86 -0.342133
2.87 -0.362095
2.88 -0.389361
2.89 -0.423608
2.9 -0.461936
2.91 -0.502482
2.92 -0.542482
2.93 -0.57963
2.94 -0.610864
2.95 -0.635002
2.96 -0.649409
2.97 -0.653941
2.98 -0.648122
2.99 -0.632045
3 -0.607802
3.01 -0.576058
3.02 -0.540199
3.03 -0.502449
3.04 -0.465889
3.05 -0.432996
3.06 -0.407057
3.07 -0.389129
3.08 -0.381871
3.09 -0.385163
3.1 -0.399252
3.11 -0.423738
3.12 -0.456233
3.13 -0.495705
3.14 -0.538606
3.15 -0.582484
3.16 -0.624215
3.17 -0.661421
3.18 -0.690938
3.19 -0.712111
3.2 -0.722706
3.21 -0.723394
3.22 -0.714522
3.23 -0.69725
3.24 -0.674326
3.25 -0.647841
3.26 -0.621312
3.27 -0.597829
3.28 -0.58058
3.29 -0.571717
3.3 -0.574549
3.31 -0.588763
3.32 -0.6163
3.33 -0.655391
3.34 -0.70482
3.35 -0.762316
3.36 -0.824221
3.37 -0.88709
3.38 -0.9469
3.39 -0.999578
3.4 -1.0415
3.41 -1.07051
3.42 -1.08286
3.43 -1.07983
3.44 -1.05962
3.45 -1.02523
3.46 -0.978829
3.47 -0.923933
3.48 -0.86533
3.49 -0.807888
3.5 -0.75627
3.51 -0.715451
3.52 -0.689258
3.53 -0.679467
3.54 -0.689335
3.55 -0.715824
3.56 -0.758699
3.57 -0.812162
3.58 -0.870762
3.59 -0.926276
3.6 -0.971106
3.61 -0.99243
3.62 -0.98381
3.63 -0.933099
3.64 -0.831928
3.65 -0.676056
3.66 -0.453362
3.67 -0.170087
3.68 0.181768
3.69 0.593064
3.7 1.05917
3.71 1.57225
3.72 2.11687
3.73 2.68231
3.74 3.24994
3.75 3.80352
3.76 4.32494
3.77 4.80053
3.78 5.20745
3.79 5.54196
3.8 5.78275
3.81 5.92952
3.82 5.97604
3.83 5.91679
3.84 5.76494
3.85 5.51155
3.86 5.18017
3.87 4.77517
3.88 4.31312
3.89 3.81057
3.9 3.28112
3.91 2.74342
3.92 2.21251
3.93 1.70237
3.94 1.2249
3.95 0.792643
3.96 0.407632
3.97 0.0833616
3.98 -0.186771
3.99 -0.398295
4 -0.555453
4.01 -0.665044
4.02 -0.728639
4.03 -0.759118
4.04 -0.760248
4.05 -0.742677
4.06 -0.713129
4.07 -0.678666
4.08 -0.645034
4.09 -0.617616
4.1 -0.598736
4.11 -0.590988
4.12 -0.594753
4.13 -0.608959
4.14 -0.633038
4.15 -0.663514
4.16 -0.698305
4.17 -0.733919
4.18 -0.767543
4.19 -0.795996
4.2 -0.817668
4.21 -0.829283
4.22 -0.831011
4.23 -0.821321
4.24 -0.800373
4.25 -0.769093
4.26 -0.727248
4.27 -0.677314
4.28 -0.619597
4.29 -0.556175
4.3 -0.488187
4.31 -0.416757
4.32 -0.343152
4.33 -0.267915
4.34 -0.191862
4.35 -0.115322
4.36 -0.0386223
4.37 0.038012
4.38 0.114279
4.39 0.189897
4.4 0.264252
4.41 0.336722
4.42 0.40641
4.43 0.471923
4.44 0.532508
4.45 0.585666
4.46 0.630931
4.47 0.666129
4.48 0.689981
4.49 0.701982
4.5 0.699775
4.51 0.684802
4.52 0.655338
4.53 0.613052
4.54 0.558574
4.55 0.492859
4.56 0.418645
4.57 0.336829
4.58 0.250723
4.59 0.162237
4.6 0.0739234
4.61 -0.0122387
4.62 -0.0937807
4.63 -0.169792
4.64 -0.238258
4.65 -0.298989
4.66 -0.351524
4.67 -0.395573
4.68 -0.432433
4.69 -0.461779
4.7 -0.485681
4.71 -0.504796
4.72 -0.520539
4.73 -0.534159
4.74 -0.546636
4.75 -0.558976
4.76 -0.571869
4.77 -0.58572
4.78 -0.600713
4.79 -0.616847
4.8 -0.633777
4.81 -0.65118
4.82 -0.668493
4.83 -0.685185
4.84 -0.700714
4.85 -0.714737
4.86 -0.726703
4.87 -0.736713
4.88 -0.744476
4.89 -0.750304
4.9 -0.754403
4.91 -0.757095
4.92 -0.758913
4.93 -0.760229
4.94 -0.76155
4.95 -0.763252
4.96 -0.765654
4.97 -0.768901
4.98 -0.77319
4.99 -0.778358
5 -0.784395
5.01 -0.791034
5.02 -0.798071
5.03 -0.805268
5.04 -0.812428
5.05 -0.819378
5.06 -0.826082
5.07 -0.832532
5.08 -0.838828
5.09 -0.845107
5.1 -0.85155
5.11 -0.858261
5.12 -0.865327
5.13 -0.87263
5.14 -0.879914
5.15 -0.886606
5.16 -0.892071
5.17 -0.894901
5.18 -0.894137
5.19 -0.887936
5.2 -0.874515
5.21 -0.852571
5.22 -0.818997
5.23 -0.773728
5.24 -0.713696
5.25 -0.638977
5.26 -0.548793
5.27 -0.442411
5.28 -0.322141
5.29 -0.187238
5.3 -0.0418498
5.31 0.112184
5.32 0.271006
5.33 0.430804
5.34 0.586798
5.35 0.735255
5.36 0.870498
5.37 0.989151
5.38 1.08734
5.39 1.16041
5.4 1.20872
5.41 1.22624
5.42 1.21657
5.43 1.17764
5.44 1.11139
5.45 1.0212
5.46 0.907681
5.47 0.777451
5.48 0.632727
5.49 0.479377
5.5 0.321606
5.51 0.164229
5.52 0.0110092
5.53 -0.133102
5.54 -0.266244
5.55 -0.385107
5.56 -0.488125
5.57 -0.575282
5.58 -0.644461
5.59 -0.698526
5.6 -0.736591
5.61 -0.761478
5.62 -0.774658
5.63 -0.777692
5.64 -0.773382
5.65 -0.762535
5.66 -0.747602
5.67 -0.729442
5.68 -0.70907
5.69 -0.687078
5.7 -0.663468
5.71 -0.638334
5.72 -0.611104
5.73 -0.58143
5.74 -0.548779
5.75 -0.512478
5.76 -0.472625
5.77 -0.428524
5.78 -0.380963
5.79 -0.330154
5.8 -0.27706
5.81 -0.222833
5.82 -0.16892
5.83 -0.116767
5.84 -0.0683404
5.85 -0.02507
5.86 0.0115191
5.87 0.0395832
5.88 0.0590579
5.89 0.0676904
5.9 0.0666431
5.91 0.0551738
5.92 0.0339627
5.93 0.00427856
5.94 -0.0336119
5.95 -0.077313
5.96 -0.126012
5.97 -0.1777
5.98 -0.231013
5.99 -0.284507
6 -0.337116
6.01 -0.387674
6.02 -0.435864
6.03 -0.481193
6.04 -0.523681
6.05 -0.56368
6.06 -0.601348
6.07 -0.637496
6.08 -0.672513
6.09 -0.707033
6.1 -0.74144
6.11 -0.776003
6.12 -0.810745
6.13 -0.845479
6.14 -0.87979
6.15 -0.913041
6.16 -0.944422
6.17 -0.973263
6.18 -0.998279
6.19 -1.01925
6.2 -1.03502
6.21 -1.0456
6.22 -1.05087
6.23 -1.05082
6.24 -1.04656
6.25 -1.03841
6.26 -1.02806
6.27 -1.01664
6.28 -1.00567
6.29 -0.996342
6.3 -0.990144
6.31 -0.987381
6.32 -0.988786
6.33 -0.993679
6.34 -1.00113
6.35 -1.00929
6.36 -1.01577
6.37 -1.01662
6.38 -1.00871
6.39 -0.987045
6.4 -0.946753
6.41 -0.88453
6.42 -0.792425
6.43 -0.670531
6.44 -0.511392
6.45 -0.315323
6.46 -0.0806926
6.47 0.194403
6.48 0.504202
6.49 0.850868
6.5 1.22464
6.51 1.62166
6.52 2.03339
6.53 2.45114
6.54 2.86474
6.55 3.26521
6.56 3.64023
6.57 3.98136
6.58 4.2795
6.59 4.52308
6.6 4.71161
6.61 4.82987
6.62 4.88387
6.63 4.86681
6.64 4.78022
6.65 4.63016
6.66 4.41379
6.67 4.1459
6.68 3.82778
6.69 3.47249
6.7 3.08867
6.71 2.68608
6.72 2.27597
6.73 1.86825
6.74 1.47184
6.75 1.09568
6.76 0.747189
6.77 0.430001
6.78 0.15282
6.79 -0.0872704
6.8 -0.284342
6.81 -0.442057
6.82 -0.561554
6.83 -0.643884
6.84 -0.696331
6.85 -0.718791
6.86 -0.71996
6.87 -0.702748
6.88 -0.672462
6.89 -0.633791
6.9 -0.590152
6.91 -0.54536
6.92 -0.50202
6.93 -0.46207
6.94 -0.426761
6.95 -0.397118
6.96 -0.37269
6.97 -0.354074
6.98 -0.339962
6.99 -0.330054
7 -0.323516
7.01 -0.319565
7.02 -0.317953
7.03 -0.31809
7.04 -0.320154
7.05 -0.324206
7.06 -0.330651
7.07 -0.340264
7.08 -0.353314
7.09 -0.371147
7.1 -0.393742
7.11 -0.421944
7.12 -0.455951
7.13 -0.495416
7.14 -0.54064
7.15 -0.59021
7.16 -0.643673
7.17 -0.699439
7.18 -0.756171
7.19 -0.812159
7.2 -0.866023
7.21 -0.915664
7.22 -0.960255
7.23 -0.998284
7.24 -1.02894
7.25 -1.05221
7.26 -1.06712
7.27 -1.07511
7.28 -1.07604
7.29 -1.0715
7.3 -1.06261
7.31 -1.05069
7.32 -1.03733
7.33 -1.02377
7.34 -1.01113
7.35 -1.00026
7.36 -0.991557
7.37 -0.984854
7.38 -0.979786
7.39 -0.975156
7.4 -0.969493
7.41 -0.960942
7.42 -0.947492
7.43 -0.92632
7.44 -0.896176
7.45 -0.853133
7.46 -0.797014
7.47 -0.725343
7.48 -0.637273
7.49 -0.533454
7.5 -0.412324
7.51 -0.277308
7.52 -0.12855
7.53 0.0302745
7.54 0.196312
7.55 0.365903
7.56 0.535051
7.57 0.698974
7.58 0.854156
7.59 0.995963
7.6 1.12048
7.61 1.22572
7.62 1.30613
7.63 1.3632
7.64 1.39267
7.65 1.39612
7.66 1.3737
7.67 1.32525
7.68 1.25528
7.69 1.16303
7.7 1.05448
7.71 0.931601
7.72 0.7985
7.73 0.659162
7.74 0.517068
7.75 0.376027
7.76 0.239668
7.77 0.110826
7.78 -0.00796931
7.79 -0.113688
7.8 -0.206185
7.81 -0.281912
7.82 -0.342351
7.83 -0.386052
7.84 -0.413388
7.85 -0.425851
7.86 -0.422637
7.87 -0.407123
7.88 -0.379384
7.89 -0.342219
7.9 -0.297441
7.91 -0.247026
7.92 -0.19362
7.93 -0.139302
7.94 -0.086458
7.95 -0.0373309
7.96 0.00587809
7.97 0.0418181
7.98 0.0676829
7.99 0.083581
8 0.0872246
8.01 0.0788863
8.02 0.0583169
8.03 0.0250972
8.04 -0.0187814
8.05 -0.0738363
8.06 -0.137134
8.07 -0.207597
8.08 -0.282982
8.09 -0.361058
8.1 -0.439661
8.11 -0.51669
8.12 -0.589907
8.13 -0.657806
8.14 -0.719083
8.15 -0.772293
8.16 -0.817862
8.17 -0.854507
8.18 -0.88382
8.19 -0.906033
8.2 -0.922448
8.21 -0.934638
8.22 -0.943718
8.23 -0.951461
8.24 -0.958969
8.25 -0.96721
8.26 -0.976625
8.27 -0.9872
8.28 -0.998191
8.29 -1.00817
8.3 -1.01529
8.31 -1.01686
8.32 -1.00962
8.33 -0.991049
8.34 -0.955612
8.35 -0.902261
8.36 -0.825335
8.37 -0.723593
8.38 -0.59491
8.39 -0.436308
8.4 -0.250854
8.41 -0.0352185
8.42 0.204497
8.43 0.466854
8.44 0.746748
8.45 1.03809
8.46 1.33501
8.47 1.62995
8.48 1.91494
8.49 2.18272
8.5 2.42632
8.51 2.63661
8.52 2.81169
8.53 2.94018
8.54 3.02436
8.55 3.0586
8.56 3.04238
8.57 2.97935
8.58 2.86588
8.59 2.71232
8.6 2.51862
8.61 2.29376
8.62 2.04379
8.63 1.77521
8.64 1.49674
8.65 1.21492
8.66 0.937098
8.67 0.669652
8.68 0.418443
8.69 0.186549
8.7 -0.0195887
8.71 -0.201366
8.72 -0.35457
8.73 -0.481213
8.74 -0.582086
8.75 -0.657705
8.76 -0.713132
8.77 -0.748487
8.78 -0.769719
8.79 -0.779116
8.8 -0.780455
8.81 -0.777107
8.82 -0.771701
8.83 -0.766796
8.84 -0.764389
8.85 -0.765704
8.86 -0.771507
8.87 -0.782414
8.88 -0.797744
8.89 -0.817663
8.9 -0.840808
8.91 -0.866507
8.92 -0.893635
8.93 -0.921188
8.94 -0.948159
8.95 -0.973883
8.96 -0.997587
8.97 -1.01901
8.98 -1.03798
8.99 -1.05438
9 -1.06865
9.01 -1.08082
9.02 -1.09154
9.03 -1.10111
9.04 -1.10996
9.05 -1.1184
9.06 -1.12657
9.07 -1.13454
9.08 -1.1421
9.09 -1.14894
9.1 -1.15457
9.11 -1.15816
9.12 -1.15922
9.13 -1.15638
9.14 -1.14922
9.15 -1.13659
9.16 -1.11764
9.17 -1.09218
9.18 -1.05877
9.19 -1.01826
9.2 -0.96976
9.21 -0.914113
9.22 -0.851819
9.23 -0.783414
9.24 -0.71058
9.25 -0.634101
9.26 -0.555987
9.27 -0.477736
9.28 -0.401255
9.29 -0.328026
9.3 -0.260445
9.31 -0.199246
9.32 -0.146673
9.33 -0.103335
9.34 -0.0700587
9.35 -0.0480527
9.36 -0.036227
9.37 -0.0360037
9.38 -0.0453392
9.39 -0.0640689
9.4 -0.0908547
9.41 -0.123902
9.42 -0.162212
9.43 -0.203419
9.44 -0.246092
9.45 -0.288355
9.46 -0.328748
9.47 -0.365615
9.48 -0.39833
9.49 -0.425306
9.5 -0.446791
9.51 -0.462248
9.52 -0.471915
9.53 -0.476607
9.54 -0.476533
9.55 -0.473294
9.56 -0.467658
9.57 -0.461049
9.58 -0.454586
9.59 -0.449541
9.6 -0.446658
9.61 -0.447173
9.62 -0.451216
9.63 -0.459334
9.64 -0.47156
9.65 -0.48746
9.66 -0.507066
9.67 -0.529319
9.68 -0.553854
9.69 -0.579761
9.7 -0.60639
9.71 -0.63309
9.72 -0.659399
9.73 -0.684878
9.74 -0.709464
9.75 -0.733093
9.76 -0.755909
9.77 -0.778151
9.78 -0.79999
9.79 -0.821616
9.8 -0.842967
9.81 -0.863748
9.82 -0.883348
9.83 -0.90048
9.84 -0.913995
9.85 -0.921001
9.86 -0.919734
9.87 -0.906682
9.88 -0.878218
9.89 -0.832078
9.9 -0.761634
9.91 -0.666841
9.92 -0.541318
9.93 -0.384279
9.94 -0.193853
9.95 0.0332512
9.96 0.292896
9.97 0.588839
9.98 0.913853
9.99 1.26617
10 1.63998
10.01 2.0281
10.02 2.42395
10.03 2.81857
10.04 3.20278
10.05 3.56787
10.06 3.90558
10.07 4.20476
10.08 4.46277
10.09 4.66578
10.1 4.81556
10.11 4.90493
10.12 4.9321
10.13 4.90104
10.14 4.80579
10.15 4.6586
10.16 4.45817
10.17 4.21473
10.18 3.93519
10.19 3.62641
10.2 3.29951
10.21 2.9613
10.22 2.62169
10.23 2.28818
10.24 1.9684
10.25 1.66685
10.26 1.39145
10.27 1.1418
10.28 0.923137
10.29 0.734121
10.3 0.574203
10.31 0.443382
10.32 0.33603
10.33 0.252195
10.34 0.185109
10.35 0.132046
10.36 0.0885644
10.37 0.0505559
10.38 0.0147766
10.39 -0.021923
10.4 -0.0620682
10.41 -0.107201
10.42 -0.158254
10.43 -0.216011
10.44 -0.279504
10.45 -0.348813
10.46 -0.422047
10.47 -0.498089
10.48 -0.575187
10.49 -0.65178
10.5 -0.72596
10.51 -0.796659
10.52 -0.862152
10.53 -0.921711
10.54 -0.974638
10.55 -1.01995
10.56 -1.05827
10.57 -1.08846
10.58 -1.11169
10.59 -1.12773
10.6 -1.13699
10.61 -1.14028
10.62 -1.13724
10.63 -1.12915
10.64 -1.11573
10.65 -1.0977
10.66 -1.07535
10.67 -1.04874
10.68 -1.01865
10.69 -0.98491
10.7 -0.948417
10.71 -0.909471
10.72 -0.868736
10.73 -0.826967
10.74 -0.784946
10.75 -0.74356
10.76 -0.703861
10.77 -0.666768
10.78 -0.63318
10.79 -0.604362
10.8 -0.580537
10.81 -0.56328
10.82 -0.552313
10.83 -0.5484
10.84 -0.551681
10.85 -0.561603
10.86 -0.578754
10.87 -0.601647
10.88 -0.630294
10.89 -0.66346
10.9 -0.700265
10.91 -0.739824
10.92 -0.780878
10.93 -0.822522
10.94 -0.863694
10.95 -0.903494
10.96 -0.94106
10.97 -0.975942
10.98 -1.00716
10.99 -1.03488
11 -1.05845
11.01 -1.07805
11.02 -1.09376
11.03 -1.10553
11.04 -1.11411
11.05 -1.11942
11.06 -1.12237
11.07 -1.12333
11.08 -1.12292
11.09 -1.12178
11.1 -1.12047
11.11 -1.11954
11.12 -1.11949
11.13 -1.12065
11.14 -1.12321
11.15 -1.1273
11.16 -1.13259
11.17 -1.1388
11.18 -1.14512
11.19 -1.1506
11.2 -1.15388
11.21 -1.15372
11.22 -1.14758
11.23 -1.13438
11.24 -1.11104
11.25 -1.07587
11.26 -1.02684
11.27 -0.960682
11.28 -0.877641
11.29 -0.773399
11.3 -0.649535
11.31 -0.504321
11.32 -0.337991
11.33 -0.152845
11.34 0.0517939
11.35 0.270776
11.36 0.50251
11.37 0.742031
11.38 0.98509
11.39 1.22631
11.4 1.46105
11.41 1.68228
11.42 1.88626
11.43 2.06698
11.44 2.21945
11.45 2.3421
11.46 2.42717
11.47 2.47795
11.48 2.48917
11.49 2.46339
11.5 2.40181
11.51 2.30446
11.52 2.17829
11.53 2.02318
11.54 1.84738
11.55 1.65445
11.56 1.45025
11.57 1.2404
11.58 1.03011
11.59 0.824085
11.6 0.627196
11.61 0.442636
11.62 0.272925
11.63 0.121242
11.64 -0.0135131
11.65 -0.128471
11.66 -0.226656
11.67 -0.308214
11.68 -0.375116
11.69 -0.430388
11.7 -0.475206
11.71 -0.513483
11.72 -0.546928
11.73 -0.578188
11.74 -0.609022
11.75 -0.641032
11.76 -0.674957
11.77 -0.711569
11.78 -0.750431
11.79 -0.791102
11.8 -0.832446
11.81 -0.873151
11.82 -0.911196
11.83 -0.945173
11.84 -0.972626
11.85 -0.99197
11.86 -1.00162
11.87 -0.999149
11.88 -0.984791
11.89 -0.955646
11.9 -0.912943
11.91 -0.855649
11.92 -0.783972
11.93 -0.699465
11.94 -0.601397
11.95 -0.492928
11.96 -0.374417
11.97 -0.248413
11.98 -0.11685
11.99 0.0181945
12 0.154209
12.01 0.288713
12.02 0.419471
12.03 0.543965
12.04 0.659681
12.05 0.765291
12.06 0.857062
12.07 0.93526
12.08 0.996728
12.09 1.04126
12.1 1.06822
12.11 1.07591
12.12 1.06655
12.13 1.03801
12.14 0.993514
12.15 0.933359
12.16 0.859403
12.17 0.774509
12.18 0.679837
12.19 0.579252
12.2 0.474781
12.21 0.369495
12.22 0.265802
12.23 0.166494
12.24 0.0729731
12.25 -0.0119881
12.26 -0.0881824
12.27 -0.154365
12.28 -0.210285
12.29 -0.256958
12.3 -0.293962
12.31 -0.323842
12.32 -0.347318
12.33 -0.366644
12.34 -0.383588
12.35 -0.400059
12.36 -0.417668
12.37 -0.438173
12.38 -0.462282
12.39 -0.490783
12.4 -0.523772
12.41 -0.56051
