# xPDFsuite Configuration #
[PDF]
wavelength = 0.1432
dataformat = twotheta
inputfile = 1_1Pd_CeO2_cycle-00394.chi
backgroundfile = background-00000.chi
mode = xray
bgscale = 1.007
composition = CeO2
outputtype = gr
qmaxinst = 28.8974762299
qmin = 0.5
qmax = 27.9
rmax = 50.0
rmin = 0.0
rstep = 0.01
rpoly = 1.8657

[Misc]
inputdir = G:/SankarDec16/1Pd/Chi
savedir = D:/DATA/APS_CeO2/1Pd
backgroundfilefull = G:/SankarDec16/Background/background-00000.chi

#### start data
#S 1
#L r($\AA$)  G($\AA^{-2}$)
0 0
0.01 -0.00673898
0.02 -0.0129706
0.03 -0.0181725
0.04 -0.021951
0.05 -0.0240872
0.06 -0.0242287
0.07 -0.0226098
0.08 -0.019117
0.09 -0.0141972
0.1 -0.00815978
0.11 -0.00147828
0.12 0.00533039
0.13 0.0116868
0.14 0.0171795
0.15 0.0213054
0.16 0.0237693
0.17 0.0244528
0.18 0.0231151
0.19 0.0201001
0.2 0.0154202
0.21 0.00959652
0.22 0.00301384
0.23 -0.00379632
0.24 -0.0103471
0.25 -0.0160141
0.26 -0.0205014
0.27 -0.0233489
0.28 -0.0243737
0.29 -0.0235638
0.3 -0.0208015
0.31 -0.0165243
0.32 -0.0108701
0.33 -0.00440983
0.34 0.00241459
0.35 0.00903825
0.36 0.0150274
0.37 0.0197427
0.38 0.0230169
0.39 0.0244555
0.4 0.0239963
0.41 0.0217351
0.42 0.0176825
0.43 0.0123496
0.44 0.00599327
0.45 -0.00079227
0.46 -0.00752892
0.47 -0.0136447
0.48 -0.01878
0.49 -0.0223103
0.5 -0.0242059
0.51 -0.0241563
0.52 -0.0222237
0.53 -0.0186069
0.54 -0.0134456
0.55 -0.00730007
0.56 -0.000534584
0.57 0.00626132
0.58 0.0125961
0.59 0.0179175
0.6 0.0219572
0.61 0.0241357
0.62 0.024562
0.63 0.0230253
0.64 0.0197093
0.65 0.014907
0.66 0.0088811
0.67 0.00221473
0.68 -0.00463763
0.69 -0.0111186
0.7 -0.0167465
0.71 -0.0210148
0.72 -0.0237596
0.73 -0.0244734
0.74 -0.0233992
0.75 -0.0204351
0.76 -0.0158778
0.77 -0.0101001
0.78 -0.00347371
0.79 0.00342322
0.8 0.0100698
0.81 0.0159679
0.82 0.020671
0.83 0.0237435
0.84 0.0251349
0.85 0.0244365
0.86 0.0220123
0.87 0.0178755
0.88 0.0124198
0.89 0.00607698
0.9 -0.000692508
0.91 -0.00734965
0.92 -0.0133398
0.93 -0.0182563
0.94 -0.0217199
0.95 -0.0234022
0.96 -0.0233758
0.97 -0.0213774
0.98 -0.0178781
0.99 -0.0130286
1 -0.00731347
1.01 -0.00120987
1.02 0.00473049
1.03 0.0100464
1.04 0.0141558
1.05 0.0167811
1.06 0.0176351
1.07 0.0165271
1.08 0.0136847
1.09 0.00902721
1.1 0.00316128
1.11 -0.00358279
1.12 -0.0105913
1.13 -0.01731
1.14 -0.023026
1.15 -0.0273429
1.16 -0.0295605
1.17 -0.0295077
1.18 -0.0269269
1.19 -0.0216905
1.2 -0.0141875
1.21 -0.00438199
1.22 0.00691989
1.23 0.0192854
1.24 0.0319525
1.25 0.0442471
1.26 0.0553066
1.27 0.0646547
1.28 0.0714313
1.29 0.0753997
1.3 0.076193
1.31 0.0735513
1.32 0.067856
1.33 0.058825
1.34 0.0473271
1.35 0.0336119
1.36 0.018391
1.37 0.0023262
1.38 -0.0138991
1.39 -0.0296451
1.4 -0.0442024
1.41 -0.0571427
1.42 -0.0680297
1.43 -0.0764628
1.44 -0.0825337
1.45 -0.0857723
1.46 -0.08666
1.47 -0.0851096
1.48 -0.0814288
1.49 -0.0759439
1.5 -0.068791
1.51 -0.0604579
1.52 -0.0510763
1.53 -0.0410022
1.54 -0.0304253
1.55 -0.0195388
1.56 -0.00852116
1.57 0.00247955
1.58 0.0133246
1.59 0.0238508
1.6 0.0338866
1.61 0.0432739
1.62 0.0516883
1.63 0.0590174
1.64 0.0648204
1.65 0.0689448
1.66 0.0710878
1.67 0.0709093
1.68 0.0684739
1.69 0.0632612
1.7 0.0556695
1.71 0.0455576
1.72 0.0332281
1.73 0.0190719
1.74 0.00339399
1.75 -0.0131102
1.76 -0.0299207
1.77 -0.0463602
1.78 -0.0618306
1.79 -0.0756556
1.8 -0.0875587
1.81 -0.0967758
1.82 -0.103484
1.83 -0.107378
1.84 -0.108663
1.85 -0.1077
1.86 -0.104741
1.87 -0.100564
1.88 -0.0956832
1.89 -0.0908593
1.9 -0.0867197
1.91 -0.0839526
1.92 -0.0828549
1.93 -0.0840964
1.94 -0.0874715
1.95 -0.0931281
1.96 -0.100714
1.97 -0.109729
1.98 -0.119606
1.99 -0.129513
2 -0.138553
2.01 -0.145894
2.02 -0.150692
2.03 -0.152003
2.04 -0.149619
2.05 -0.142382
2.06 -0.130769
2.07 -0.114332
2.08 -0.0934053
2.09 -0.0685233
2.1 -0.0398729
2.11 -0.00855817
2.12 0.025025
2.13 0.0599275
2.14 0.0955514
2.15 0.131293
2.16 0.166756
2.17 0.201589
2.18 0.235803
2.19 0.269417
2.2 0.302685
2.21 0.335907
2.22 0.369486
2.23 0.403693
2.24 0.438874
2.25 0.475041
2.26 0.512112
2.27 0.549724
2.28 0.587262
2.29 0.623675
2.3 0.657986
2.31 0.688653
2.32 0.714165
2.33 0.733325
2.34 0.743727
2.35 0.745231
2.36 0.735457
2.37 0.714631
2.38 0.682175
2.39 0.637812
2.4 0.583343
2.41 0.51838
2.42 0.446102
2.43 0.367833
2.44 0.286288
2.45 0.203946
2.46 0.123712
2.47 0.0477008
2.48 -0.0210641
2.49 -0.0812076
2.5 -0.131124
2.51 -0.169383
2.52 -0.196878
2.53 -0.2121
2.54 -0.217741
2.55 -0.214297
2.56 -0.20402
2.57 -0.189196
2.58 -0.172006
2.59 -0.154988
2.6 -0.140528
2.61 -0.130416
2.62 -0.126217
2.63 -0.129332
2.64 -0.139468
2.65 -0.157745
2.66 -0.182338
2.67 -0.212735
2.68 -0.247135
2.69 -0.28371
2.7 -0.320475
2.71 -0.35557
2.72 -0.386867
2.73 -0.41314
2.74 -0.433222
2.75 -0.446154
2.76 -0.452551
2.77 -0.45175
2.78 -0.445687
2.79 -0.435145
2.8 -0.421978
2.81 -0.407937
2.82 -0.395017
2.83 -0.384702
2.84 -0.378922
2.85 -0.378442
2.86 -0.384023
2.87 -0.396098
2.88 -0.413689
2.89 -0.436762
2.9 -0.463234
2.91 -0.491815
2.92 -0.52046
2.93 -0.547414
2.94 -0.57039
2.95 -0.588388
2.96 -0.59941
2.97 -0.603254
2.98 -0.599522
2.99 -0.588257
3 -0.571005
3.01 -0.548312
3.02 -0.522729
3.03 -0.496001
3.04 -0.470499
3.05 -0.448123
3.06 -0.431432
3.07 -0.421176
3.08 -0.419393
3.09 -0.425896
3.1 -0.440788
3.11 -0.463626
3.12 -0.492449
3.13 -0.526256
3.14 -0.562213
3.15 -0.598246
3.16 -0.631837
3.17 -0.661117
3.18 -0.683519
3.19 -0.69869
3.2 -0.704901
3.21 -0.702904
3.22 -0.693158
3.23 -0.676842
3.24 -0.656361
3.25 -0.633729
3.26 -0.611892
3.27 -0.593596
3.28 -0.581539
3.29 -0.577476
3.3 -0.584235
3.31 -0.601329
3.32 -0.630344
3.33 -0.669545
3.34 -0.717726
3.35 -0.772738
3.36 -0.831292
3.37 -0.890203
3.38 -0.94595
3.39 -0.994881
3.4 -1.03382
3.41 -1.06093
3.42 -1.0729
3.43 -1.07101
3.44 -1.05368
3.45 -1.02367
3.46 -0.982953
3.47 -0.934669
3.48 -0.883072
3.49 -0.832435
3.5 -0.786831
3.51 -0.750551
3.52 -0.726835
3.53 -0.717107
3.54 -0.723946
3.55 -0.744543
3.56 -0.778286
3.57 -0.819875
3.58 -0.864199
3.59 -0.903612
3.6 -0.931405
3.61 -0.935632
3.62 -0.910846
3.63 -0.845974
3.64 -0.733651
3.65 -0.570299
3.66 -0.345038
3.67 -0.0639563
3.68 0.280016
3.69 0.678224
3.7 1.12619
3.71 1.61648
3.72 2.13487
3.73 2.67125
3.74 3.20858
3.75 3.73181
3.76 4.22433
3.77 4.67361
3.78 5.05856
3.79 5.37588
3.8 5.60583
3.81 5.7482
3.82 5.79718
3.83 5.74752
3.84 5.61138
3.85 5.38013
3.86 5.07551
3.87 4.70124
3.88 4.27241
3.89 3.80422
3.9 3.30879
3.91 2.80353
3.92 2.30197
3.93 1.81723
3.94 1.36031
3.95 0.942853
3.96 0.567183
3.97 0.245781
3.98 -0.0268295
3.99 -0.246227
4 -0.415829
4.01 -0.541469
4.02 -0.624065
4.03 -0.675167
4.04 -0.697699
4.05 -0.70125
4.06 -0.69172
4.07 -0.6753
4.08 -0.657412
4.09 -0.64258
4.1 -0.633352
4.11 -0.632001
4.12 -0.639096
4.13 -0.653927
4.14 -0.676016
4.15 -0.702635
4.16 -0.731951
4.17 -0.761103
4.18 -0.787697
4.19 -0.808985
4.2 -0.82369
4.21 -0.828881
4.22 -0.824842
4.23 -0.810208
4.24 -0.785163
4.25 -0.750573
4.26 -0.706222
4.27 -0.654391
4.28 -0.595364
4.29 -0.531071
4.3 -0.462594
4.31 -0.391031
4.32 -0.317609
4.33 -0.242965
4.34 -0.167923
4.35 -0.0929401
4.36 -0.0184441
4.37 0.0552803
4.38 0.127754
4.39 0.198767
4.4 0.267594
4.41 0.333743
4.42 0.396411
4.43 0.454372
4.44 0.50714
4.45 0.552498
4.46 0.590301
4.47 0.618741
4.48 0.636898
4.49 0.64451
4.5 0.639695
4.51 0.62387
4.52 0.595696
4.53 0.556722
4.54 0.507575
4.55 0.449147
4.56 0.38376
4.57 0.312209
4.58 0.237214
4.59 0.160327
4.6 0.0835826
4.61 0.0085264
4.62 -0.0629492
4.63 -0.130188
4.64 -0.191717
4.65 -0.247471
4.66 -0.297192
4.67 -0.340767
4.68 -0.379223
4.69 -0.41243
4.7 -0.441917
4.71 -0.468196
4.72 -0.492255
4.73 -0.514918
4.74 -0.536766
4.75 -0.55836
4.76 -0.579958
4.77 -0.601638
4.78 -0.623293
4.79 -0.644613
4.8 -0.665276
4.81 -0.684637
4.82 -0.7024
4.83 -0.71799
4.84 -0.731067
4.85 -0.741548
4.86 -0.749041
4.87 -0.754033
4.88 -0.756461
4.89 -0.756951
4.9 -0.755955
4.91 -0.754055
4.92 -0.751897
4.93 -0.750108
4.94 -0.749154
4.95 -0.749509
4.96 -0.751448
4.97 -0.755008
4.98 -0.760352
4.99 -0.767087
5 -0.7751
5.01 -0.78391
5.02 -0.793155
5.03 -0.802414
5.04 -0.811373
5.05 -0.819677
5.06 -0.827259
5.07 -0.834013
5.08 -0.840029
5.09 -0.845483
5.1 -0.850547
5.11 -0.855472
5.12 -0.860403
5.13 -0.865378
5.14 -0.870266
5.15 -0.874652
5.16 -0.878018
5.17 -0.879142
5.18 -0.877128
5.19 -0.870266
5.2 -0.85684
5.21 -0.835554
5.22 -0.803394
5.23 -0.76018
5.24 -0.702879
5.25 -0.631437
5.26 -0.544996
5.27 -0.442718
5.28 -0.326766
5.29 -0.196282
5.3 -0.0552748
5.31 0.0945387
5.32 0.249414
5.33 0.40561
5.34 0.558468
5.35 0.70424
5.36 0.837338
5.37 0.954351
5.38 1.0514
5.39 1.12384
5.4 1.17194
5.41 1.1897
5.42 1.18063
5.43 1.14268
5.44 1.07774
5.45 0.989203
5.46 0.877719
5.47 0.749895
5.48 0.608038
5.49 0.458029
5.5 0.304126
5.51 0.151217
5.52 0.0030233
5.53 -0.135408
5.54 -0.262338
5.55 -0.374481
5.56 -0.4704
5.57 -0.550242
5.58 -0.612089
5.59 -0.659033
5.6 -0.690496
5.61 -0.709551
5.62 -0.717955
5.63 -0.717625
5.64 -0.711439
5.65 -0.700679
5.66 -0.68766
5.67 -0.673457
5.68 -0.659024
5.69 -0.644742
5.7 -0.63059
5.71 -0.616145
5.72 -0.6006
5.73 -0.583072
5.74 -0.562582
5.75 -0.537899
5.76 -0.508733
5.77 -0.473712
5.78 -0.433448
5.79 -0.387699
5.8 -0.337238
5.81 -0.283259
5.82 -0.22696
5.83 -0.170293
5.84 -0.115239
5.85 -0.0637984
5.86 -0.0179163
5.87 0.020032
5.88 0.0494198
5.89 0.0673792
5.9 0.0746488
5.91 0.0699778
5.92 0.0537071
5.93 0.0270056
5.94 -0.010194
5.95 -0.0551347
5.96 -0.107054
5.97 -0.163457
5.98 -0.222604
5.99 -0.282557
6 -0.341698
6.01 -0.398258
6.02 -0.451482
6.03 -0.500367
6.04 -0.544584
6.05 -0.584383
6.06 -0.619602
6.07 -0.651426
6.08 -0.680239
6.09 -0.707202
6.1 -0.733133
6.11 -0.758887
6.12 -0.785076
6.13 -0.812262
6.14 -0.840477
6.15 -0.869699
6.16 -0.899514
6.17 -0.929346
6.18 -0.958318
6.19 -0.985717
6.2 -1.01041
6.21 -1.03176
6.22 -1.0491
6.23 -1.06171
6.24 -1.06993
6.25 -1.07316
6.26 -1.07246
6.27 -1.06814
6.28 -1.06116
6.29 -1.05248
6.3 -1.04294
6.31 -1.03339
6.32 -1.02432
6.33 -1.01579
6.34 -1.00743
6.35 -0.998112
6.36 -0.986471
6.37 -0.969531
6.38 -0.945115
6.39 -0.909257
6.4 -0.857993
6.41 -0.788497
6.42 -0.693891
6.43 -0.573931
6.44 -0.421835
6.45 -0.237368
6.46 -0.0185978
6.47 0.236812
6.48 0.5242
6.49 0.846298
6.5 1.19463
6.51 1.56627
6.52 1.95377
6.53 2.34925
6.54 2.74373
6.55 3.12848
6.56 3.49212
6.57 3.82624
6.58 4.12189
6.59 4.36766
6.6 4.56232
6.61 4.69086
6.62 4.7582
6.63 4.75719
6.64 4.68859
6.65 4.55776
6.66 4.36125
6.67 4.11319
6.68 3.81433
6.69 3.47732
6.7 3.11046
6.71 2.72322
6.72 2.32685
6.73 1.93098
6.74 1.54477
6.75 1.17712
6.76 0.835535
6.77 0.523846
6.78 0.250686
6.79 0.0134149
6.8 -0.182141
6.81 -0.33952
6.82 -0.459869
6.83 -0.54432
6.84 -0.600043
6.85 -0.627144
6.86 -0.634131
6.87 -0.623979
6.88 -0.601895
6.89 -0.572392
6.9 -0.538799
6.91 -0.504593
6.92 -0.472162
6.93 -0.443094
6.94 -0.418332
6.95 -0.398514
6.96 -0.382988
6.97 -0.371886
6.98 -0.363874
6.99 -0.3584
7 -0.354583
7.01 -0.351759
7.02 -0.349608
7.03 -0.347948
7.04 -0.347068
7.05 -0.347439
7.06 -0.349776
7.07 -0.355216
7.08 -0.36433
7.09 -0.378826
7.1 -0.398826
7.11 -0.425373
7.12 -0.458719
7.13 -0.498433
7.14 -0.544796
7.15 -0.596091
7.16 -0.651674
7.17 -0.709615
7.18 -0.76829
7.19 -0.825641
7.2 -0.880109
7.21 -0.929237
7.22 -0.972222
7.23 -1.00743
7.24 -1.03411
7.25 -1.05249
7.26 -1.06172
7.27 -1.06366
7.28 -1.05851
7.29 -1.04825
7.3 -1.0344
7.31 -1.01868
7.32 -1.00285
7.33 -0.988607
7.34 -0.976955
7.35 -0.968867
7.36 -0.964608
7.37 -0.963717
7.38 -0.965641
7.39 -0.968652
7.4 -0.970901
7.41 -0.970035
7.42 -0.963622
7.43 -0.948354
7.44 -0.922807
7.45 -0.882587
7.46 -0.827645
7.47 -0.755394
7.48 -0.665167
7.49 -0.557946
7.5 -0.43243
7.51 -0.2926
7.52 -0.139057
7.53 0.0240073
7.54 0.193293
7.55 0.364631
7.56 0.533906
7.57 0.695859
7.58 0.84721
7.59 0.983286
7.6 1.10047
7.61 1.19723
7.62 1.26847
7.63 1.31633
7.64 1.33722
7.65 1.33339
7.66 1.30557
7.67 1.25434
7.68 1.1843
7.69 1.09549
7.7 0.993508
7.71 0.880529
7.72 0.760327
7.73 0.63632
7.74 0.511617
7.75 0.389052
7.76 0.271545
7.77 0.161
7.78 0.0591352
7.79 -0.0320039
7.8 -0.11267
7.81 -0.180419
7.82 -0.236635
7.83 -0.280379
7.84 -0.311999
7.85 -0.332578
7.86 -0.341375
7.87 -0.340715
7.88 -0.330323
7.89 -0.311994
7.9 -0.286756
7.91 -0.255662
7.92 -0.220627
7.93 -0.18272
7.94 -0.143938
7.95 -0.105846
7.96 -0.0702956
7.97 -0.0386707
7.98 -0.013337
7.99 0.00514688
8 0.0145723
8.01 0.0145279
8.02 0.00428973
8.03 -0.0171045
8.04 -0.0483869
8.05 -0.0906387
8.06 -0.141532
8.07 -0.200514
8.08 -0.265799
8.09 -0.335368
8.1 -0.407513
8.11 -0.479947
8.12 -0.550662
8.13 -0.617888
8.14 -0.680151
8.15 -0.735811
8.16 -0.784851
8.17 -0.825776
8.18 -0.859725
8.19 -0.886631
8.2 -0.907462
8.21 -0.923565
8.22 -0.935744
8.23 -0.945734
8.24 -0.954434
8.25 -0.962856
8.26 -0.971466
8.27 -0.980294
8.28 -0.988825
8.29 -0.995724
8.3 -0.999448
8.31 -0.997512
8.32 -0.986957
8.33 -0.965491
8.34 -0.927934
8.35 -0.873375
8.36 -0.796507
8.37 -0.696205
8.38 -0.570495
8.39 -0.416604
8.4 -0.237445
8.41 -0.0299215
8.42 0.2002
8.43 0.451537
8.44 0.719261
8.45 0.997645
8.46 1.28114
8.47 1.56269
8.48 1.8348
8.49 2.09072
8.5 2.32394
8.51 2.52597
8.52 2.6951
8.53 2.82074
8.54 2.90506
8.55 2.94284
8.56 2.93361
8.57 2.88074
8.58 2.78082
8.59 2.64339
8.6 2.46826
8.61 2.26364
8.62 2.03499
8.63 1.78807
8.64 1.53089
8.65 1.26909
8.66 1.0095
8.67 0.757762
8.68 0.519205
8.69 0.29674
8.7 0.0961136
8.71 -0.0836048
8.72 -0.23855
8.73 -0.370215
8.74 -0.479053
8.75 -0.565198
8.76 -0.632899
8.77 -0.681841
8.78 -0.717139
8.79 -0.740492
8.8 -0.755027
8.81 -0.763696
8.82 -0.7685
8.83 -0.771973
8.84 -0.775719
8.85 -0.781097
8.86 -0.78896
8.87 -0.800043
8.88 -0.814148
8.89 -0.831621
8.9 -0.851657
8.91 -0.873921
8.92 -0.897694
8.93 -0.922258
8.94 -0.946935
8.95 -0.971109
8.96 -0.994163
8.97 -1.01573
8.98 -1.03553
8.99 -1.05326
9 -1.06908
9.01 -1.08274
9.02 -1.09461
9.03 -1.10473
9.04 -1.1133
9.05 -1.12055
9.06 -1.12645
9.07 -1.13125
9.08 -1.13478
9.09 -1.13702
9.1 -1.13774
9.11 -1.13652
9.12 -1.1332
9.13 -1.12689
9.14 -1.11742
9.15 -1.10402
9.16 -1.08609
9.17 -1.0634
9.18 -1.0348
9.19 -1.00074
9.2 -0.960318
9.21 -0.913907
9.22 -0.861631
9.23 -0.803537
9.24 -0.74081
9.25 -0.673629
9.26 -0.603621
9.27 -0.531793
9.28 -0.4597
9.29 -0.388753
9.3 -0.320954
9.31 -0.257421
9.32 -0.200303
9.33 -0.150664
9.34 -0.109686
9.35 -0.0790096
9.36 -0.0581164
9.37 -0.0489488
9.38 -0.0499519
9.39 -0.0614407
9.4 -0.0824731
9.41 -0.111403
9.42 -0.14762
9.43 -0.188499
9.44 -0.23272
9.45 -0.278047
9.46 -0.322722
9.47 -0.364722
9.48 -0.40292
9.49 -0.435273
9.5 -0.461593
9.51 -0.480922
9.52 -0.493147
9.53 -0.49896
9.54 -0.49824
9.55 -0.492831
9.56 -0.483434
9.57 -0.471822
9.58 -0.459407
9.59 -0.44784
9.6 -0.438323
9.61 -0.432574
9.62 -0.431107
9.63 -0.434894
9.64 -0.444297
9.65 -0.45898
9.66 -0.479312
9.67 -0.503951
9.68 -0.532596
9.69 -0.563962
9.7 -0.59708
9.71 -0.630893
9.72 -0.664439
9.73 -0.696746
9.74 -0.727315
9.75 -0.755587
9.76 -0.781294
9.77 -0.804522
9.78 -0.824971
9.79 -0.843098
9.8 -0.858645
9.81 -0.871668
9.82 -0.881842
9.83 -0.888228
9.84 -0.890277
9.85 -0.885595
9.86 -0.873041
9.87 -0.849701
9.88 -0.81257
9.89 -0.759752
9.9 -0.685408
9.91 -0.589454
9.92 -0.46611
9.93 -0.314506
9.94 -0.132783
9.95 0.0822699
9.96 0.327101
9.97 0.605417
9.98 0.910798
9.99 1.24185
10 1.59344
10.01 1.95902
10.02 2.33275
10.03 2.70627
10.04 3.07122
10.05 3.41943
10.06 3.74319
10.07 4.03208
10.08 4.28345
10.09 4.48438
10.1 4.63627
10.11 4.73228
10.12 4.77053
10.13 4.75454
10.14 4.67849
10.15 4.55361
10.16 4.37842
10.17 4.16224
10.18 3.91128
10.19 3.63158
10.2 3.33344
10.21 3.02269
10.22 2.70859
10.23 2.39779
10.24 2.09721
10.25 1.8111
10.26 1.5464
10.27 1.30314
10.28 1.08598
10.29 0.893989
10.3 0.726895
10.31 0.584914
10.32 0.463392
10.33 0.362676
10.34 0.277127
10.35 0.20471
10.36 0.141905
10.37 0.0853348
10.38 0.0327187
10.39 -0.0187167
10.4 -0.0707108
10.41 -0.124619
10.42 -0.181197
10.43 -0.240997
10.44 -0.303578
10.45 -0.368892
10.46 -0.435883
10.47 -0.503809
10.48 -0.571603
10.49 -0.638378
10.5 -0.702905
10.51 -0.764686
10.52 -0.822638
10.53 -0.876401
10.54 -0.925565
10.55 -0.96947
10.56 -1.00851
10.57 -1.04174
10.58 -1.0698
10.59 -1.09225
10.6 -1.10904
10.61 -1.12046
10.62 -1.12569
10.63 -1.1255
10.64 -1.11918
10.65 -1.10712
10.66 -1.08938
10.67 -1.06578
10.68 -1.03726
10.69 -1.00355
10.7 -0.965945
10.71 -0.924942
10.72 -0.881597
10.73 -0.837053
10.74 -0.792522
10.75 -0.749202
10.76 -0.708537
10.77 -0.671622
10.78 -0.639474
10.79 -0.613466
10.8 -0.593581
10.81 -0.581342
10.82 -0.576037
10.83 -0.578103
10.84 -0.587212
10.85 -0.602414
10.86 -0.623712
10.87 -0.649395
10.88 -0.678976
10.89 -0.711096
10.9 -0.744778
10.91 -0.779012
10.92 -0.812923
10.93 -0.845622
10.94 -0.876663
10.95 -0.905531
10.96 -0.931956
10.97 -0.956025
10.98 -0.977466
10.99 -0.996805
11 -1.01404
11.01 -1.0296
11.02 -1.04379
11.03 -1.05684
11.04 -1.06911
11.05 -1.0807
11.06 -1.09186
11.07 -1.10264
11.08 -1.11306
11.09 -1.12313
11.1 -1.13274
11.11 -1.14185
11.12 -1.1503
11.13 -1.15797
11.14 -1.1647
11.15 -1.17017
11.16 -1.17428
11.17 -1.17639
11.18 -1.17625
11.19 -1.17313
11.2 -1.16616
11.21 -1.15472
11.22 -1.13688
11.23 -1.11225
11.24 -1.07847
11.25 -1.03443
11.26 -0.978632
11.27 -0.908437
11.28 -0.82408
11.29 -0.721872
11.3 -0.603009
11.31 -0.465842
11.32 -0.310316
11.33 -0.138189
11.34 0.0514767
11.35 0.254367
11.36 0.469403
11.37 0.692349
11.38 0.919557
11.39 1.14638
11.4 1.36852
11.41 1.57972
11.42 1.77628
11.43 1.95262
11.44 2.10384
11.45 2.22818
11.46 2.31815
11.47 2.37638
11.48 2.39763
11.49 2.38388
11.5 2.33596
11.51 2.25349
11.52 2.14288
11.53 2.00363
11.54 1.84353
11.55 1.66576
11.56 1.47581
11.57 1.27914
11.58 1.08052
11.59 0.884725
11.6 0.696333
11.61 0.518582
11.62 0.353981
11.63 0.205613
11.64 0.0726268
11.65 -0.0422728
11.66 -0.141808
11.67 -0.226113
11.68 -0.297031
11.69 -0.357382
11.7 -0.40833
11.71 -0.453491
11.72 -0.494499
11.73 -0.533769
11.74 -0.572881
11.75 -0.613228
11.76 -0.655349
11.77 -0.699749
11.78 -0.745823
11.79 -0.79289
11.8 -0.839601
11.81 -0.884565
11.82 -0.925448
11.83 -0.960961
11.84 -0.988458
11.85 -1.00648
11.86 -1.01353
11.87 -1.00728
11.88 -0.988308
11.89 -0.953895
11.9 -0.905691
11.91 -0.843007
11.92 -0.766476
11.93 -0.677965
11.94 -0.577288
11.95 -0.467719
11.96 -0.350066
11.97 -0.226943
11.98 -0.100342
11.99 0.0275471
12 0.154601
12.01 0.278351
12.02 0.397161
12.03 0.508894
12.04 0.611637
12.05 0.704622
12.06 0.784889
12.07 0.853141
12.08 0.907003
12.09 0.946657
12.1 0.971816
12.11 0.981303
12.12 0.977037
12.13 0.95733
12.14 0.924747
12.15 0.879391
12.16 0.822541
12.17 0.756294
12.18 0.681148
12.19 0.600044
12.2 0.514137
12.21 0.425684
12.22 0.336402
12.23 0.248186
12.24 0.162364
12.25 0.0808221
12.26 0.00416429
12.27 -0.0665231
12.28 -0.130679
12.29 -0.188614
12.3 -0.239586
12.31 -0.28499
12.32 -0.324832
12.33 -0.360333
12.34 -0.392409
12.35 -0.421929
12.36 -0.450059
12.37 -0.477505
12.38 -0.505006
12.39 -0.532953
12.4 -0.561482
