# xPDFsuite Configuration #
[PDF]
wavelength = 0.1432
dataformat = twotheta
inputfile = 1_1Pd_CeO2_cycle-00074.chi
backgroundfile = background-00000.chi
mode = xray
bgscale = 1.007
composition = CeO2
outputtype = gr
qmaxinst = 28.8974762299
qmin = 0.5
qmax = 27.9
rmax = 50.0
rmin = 0.0
rstep = 0.01
rpoly = 1.8657

[Misc]
inputdir = G:/SankarDec16/1Pd/Chi
savedir = D:/DATA/APS_CeO2/1Pd
backgroundfilefull = G:/SankarDec16/Background/background-00000.chi

#### start data
#S 1
#L r($\AA$)  G($\AA^{-2}$)
0 0
0.01 -0.00608788
0.02 -0.0117153
0.03 -0.0164083
0.04 -0.0198102
0.05 -0.021723
0.06 -0.0218286
0.07 -0.0203407
0.08 -0.0171588
0.09 -0.0126903
0.1 -0.00721761
0.11 -0.0011725
0.12 0.0049765
0.13 0.0107017
0.14 0.015633
0.15 0.0193152
0.16 0.0214843
0.17 0.022037
0.18 0.0207603
0.19 0.0179706
0.2 0.013686
0.21 0.00838221
0.22 0.00241225
0.23 -0.00373879
0.24 -0.0096315
0.25 -0.0146976
0.26 -0.0186761
0.27 -0.0211534
0.28 -0.0219716
0.29 -0.0211278
0.3 -0.0185249
0.31 -0.0145662
0.32 -0.00938725
0.33 -0.00350908
0.34 0.00266314
0.35 0.00861491
0.36 0.0139584
0.37 0.0181136
0.38 0.0209415
0.39 0.0220917
0.4 0.0215206
0.41 0.0193258
0.42 0.0155316
0.43 0.0106082
0.44 0.00480187
0.45 -0.00134719
0.46 -0.00740212
0.47 -0.0128447
0.48 -0.0173587
0.49 -0.0203818
0.5 -0.0219043
0.51 -0.0216573
0.52 -0.0197139
0.53 -0.0162678
0.54 -0.0114641
0.55 -0.00581604
0.56 0.000331194
0.57 0.00644546
0.58 0.0120805
0.59 0.0167404
0.6 0.020197
0.61 0.0219343
0.62 0.0220732
0.63 0.02044
0.64 0.0172213
0.65 0.0126978
0.66 0.0071283
0.67 0.00104335
0.68 -0.00513045
0.69 -0.0108958
0.7 -0.0158199
0.71 -0.0194543
0.72 -0.021671
0.73 -0.0220268
0.74 -0.0207669
0.75 -0.0178217
0.76 -0.0134821
0.77 -0.00810033
0.78 -0.00203535
0.79 0.00419314
0.8 0.0101011
0.81 0.0152524
0.82 0.0192526
0.83 0.021726
0.84 0.0226525
0.85 0.0216887
0.86 0.019191
0.87 0.0152002
0.88 0.0100957
0.89 0.00428196
0.9 -0.00180163
0.91 -0.00767886
0.92 -0.0128386
0.93 -0.0169372
0.94 -0.019649
0.95 -0.0207048
0.96 -0.0202034
0.97 -0.0179446
0.98 -0.0143848
0.99 -0.00969774
1 -0.00434854
1.01 0.00121667
1.02 0.0064704
1.03 0.0110135
1.04 0.0143061
1.05 0.0161286
1.06 0.0162405
1.07 0.0145004
1.08 0.0111542
1.09 0.00616731
1.1 0.0001269
1.11 -0.00662796
1.12 -0.0135096
1.13 -0.0199965
1.14 -0.0254081
1.15 -0.0293969
1.16 -0.0313045
1.17 -0.0309979
1.18 -0.0282503
1.19 -0.02296
1.2 -0.0155113
1.21 -0.0058796
1.22 0.00516741
1.23 0.0172218
1.24 0.02957
1.25 0.0415838
1.26 0.0524642
1.27 0.0617687
1.28 0.0687014
1.29 0.0730394
1.3 0.0744368
1.31 0.0726399
1.32 0.0679876
1.33 0.0601866
1.34 0.0500212
1.35 0.0376814
1.36 0.0237912
1.37 0.00893695
1.38 -0.00630394
1.39 -0.0213317
1.4 -0.0355365
1.41 -0.048497
1.42 -0.0598023
1.43 -0.0690543
1.44 -0.076272
1.45 -0.0809709
1.46 -0.0835022
1.47 -0.0836976
1.48 -0.0817421
1.49 -0.0778586
1.5 -0.0720463
1.51 -0.0647371
1.52 -0.0559399
1.53 -0.0460019
1.54 -0.0350855
1.55 -0.0233862
1.56 -0.0111755
1.57 0.00136984
1.58 0.0139509
1.59 0.0262971
1.6 0.0380849
1.61 0.0490309
1.62 0.0586404
1.63 0.0667425
1.64 0.0727482
1.65 0.0765059
1.66 0.0776882
1.67 0.075969
1.68 0.0715366
1.69 0.063919
1.7 0.0537162
1.71 0.0409288
1.72 0.0260505
1.73 0.00962772
1.74 -0.00781911
1.75 -0.0255291
1.76 -0.0427957
1.77 -0.0589491
1.78 -0.0733622
1.79 -0.0853764
1.8 -0.0948725
1.81 -0.101141
1.82 -0.104612
1.83 -0.105151
1.84 -0.103195
1.85 -0.0992974
1.86 -0.0939681
1.87 -0.0880724
1.88 -0.082346
1.89 -0.0775504
1.9 -0.0743523
1.91 -0.0734275
1.92 -0.0748927
1.93 -0.0793662
1.94 -0.0863487
1.95 -0.0958009
1.96 -0.107104
1.97 -0.11954
1.98 -0.132252
1.99 -0.144304
2 -0.154551
2.01 -0.162155
2.02 -0.166227
2.03 -0.165835
2.04 -0.160965
2.05 -0.150519
2.06 -0.135295
2.07 -0.115047
2.08 -0.0904029
2.09 -0.0621331
2.1 -0.0307375
2.11 0.00256915
2.12 0.0371253
2.13 0.071981
2.14 0.106495
2.15 0.140084
2.16 0.172567
2.17 0.203668
2.18 0.233743
2.19 0.263041
2.2 0.292128
2.21 0.321562
2.22 0.352082
2.23 0.384069
2.24 0.418154
2.25 0.454339
2.26 0.492583
2.27 0.532493
2.28 0.573215
2.29 0.613619
2.3 0.652353
2.31 0.687637
2.32 0.71763
2.33 0.740875
2.34 0.754626
2.35 0.75864
2.36 0.750268
2.37 0.729766
2.38 0.696541
2.39 0.650379
2.4 0.593341
2.41 0.525172
2.42 0.449427
2.43 0.367704
2.44 0.283054
2.45 0.198205
2.46 0.116408
2.47 0.0398259
2.48 -0.0282743
2.49 -0.0866156
2.5 -0.133643
2.51 -0.168076
2.52 -0.19113
2.53 -0.201558
2.54 -0.202466
2.55 -0.194728
2.56 -0.180991
2.57 -0.163812
2.58 -0.145805
2.59 -0.129486
2.6 -0.117539
2.61 -0.111564
2.62 -0.113027
2.63 -0.123106
2.64 -0.141056
2.65 -0.167646
2.66 -0.200497
2.67 -0.238593
2.68 -0.279612
2.69 -0.321362
2.7 -0.361267
2.71 -0.39748
2.72 -0.427442
2.73 -0.450136
2.74 -0.464469
2.75 -0.469702
2.76 -0.467002
2.77 -0.456042
2.78 -0.439478
2.79 -0.41866
2.8 -0.396093
2.81 -0.37401
2.82 -0.355122
2.83 -0.341004
2.84 -0.334145
2.85 -0.335173
2.86 -0.344849
2.87 -0.363464
2.88 -0.389465
2.89 -0.422576
2.9 -0.459895
2.91 -0.499581
2.92 -0.53887
2.93 -0.575446
2.94 -0.606256
2.95 -0.630089
2.96 -0.644314
2.97 -0.648764
2.98 -0.642955
2.99 -0.626973
3 -0.602893
3.01 -0.571384
3.02 -0.535813
3.03 -0.498403
3.04 -0.462227
3.05 -0.429751
3.06 -0.40425
3.07 -0.386764
3.08 -0.379936
3.09 -0.383622
3.1 -0.398048
3.11 -0.422783
3.12 -0.455427
3.13 -0.494904
3.14 -0.537668
3.15 -0.581241
3.16 -0.6225
3.17 -0.659077
3.18 -0.687806
3.19 -0.708078
3.2 -0.717682
3.21 -0.717343
3.22 -0.707456
3.23 -0.689248
3.24 -0.665515
3.25 -0.638436
3.26 -0.611556
3.27 -0.588032
3.28 -0.571086
3.29 -0.562877
3.3 -0.566761
3.31 -0.582366
3.32 -0.611648
3.33 -0.652763
3.34 -0.704444
3.35 -0.764347
3.36 -0.828725
3.37 -0.89404
3.38 -0.956182
3.39 -1.01098
3.4 -1.05472
3.41 -1.08521
3.42 -1.09856
3.43 -1.0961
3.44 -1.07592
3.45 -1.04107
3.46 -0.993707
3.47 -0.937361
3.48 -0.876906
3.49 -0.817203
3.5 -0.763037
3.51 -0.719428
3.52 -0.69029
3.53 -0.677477
3.54 -0.684321
3.55 -0.707854
3.56 -0.747918
3.57 -0.798767
3.58 -0.855004
3.59 -0.908466
3.6 -0.951559
3.61 -0.971553
3.62 -0.961979
3.63 -0.910743
3.64 -0.809485
3.65 -0.653953
3.66 -0.43208
3.67 -0.150043
3.68 0.200111
3.69 0.609303
3.7 1.07292
3.71 1.58315
3.72 2.12465
3.73 2.68673
3.74 3.25086
3.75 3.80088
3.76 4.3188
3.77 4.79105
3.78 5.19492
3.79 5.52675
3.8 5.76539
3.81 5.9106
3.82 5.95623
3.83 5.89687
3.84 5.74564
3.85 5.49373
3.86 5.16455
3.87 4.76247
3.88 4.30396
3.89 3.80545
3.9 3.28042
3.91 2.74731
3.92 2.22101
3.93 1.71532
3.94 1.24196
3.95 0.813279
3.96 0.431223
3.97 0.109041
3.98 -0.159838
3.99 -0.371074
4 -0.528911
4.01 -0.640084
4.02 -0.706201
4.03 -0.739932
4.04 -0.745008
4.05 -0.731868
4.06 -0.707087
4.07 -0.677549
4.08 -0.648824
4.09 -0.626098
4.1 -0.611571
4.11 -0.607672
4.12 -0.614672
4.13 -0.631449
4.14 -0.657295
4.15 -0.688812
4.16 -0.723825
4.17 -0.758933
4.18 -0.791356
4.19 -0.81795
4.2 -0.837243
4.21 -0.845964
4.22 -0.844446
4.23 -0.831212
4.24 -0.80652
4.25 -0.771384
4.26 -0.72565
4.27 -0.671869
4.28 -0.610432
4.29 -0.54348
4.3 -0.472225
4.31 -0.397885
4.32 -0.321756
4.33 -0.244532
4.34 -0.167028
4.35 -0.0896931
4.36 -0.0129121
4.37 0.063074
4.38 0.137832
4.39 0.211175
4.4 0.282396
4.41 0.350983
4.42 0.416091
4.43 0.47642
4.44 0.531407
4.45 0.578687
4.46 0.618042
4.47 0.647519
4.48 0.6661
4.49 0.673479
4.5 0.667645
4.51 0.650107
4.52 0.619464
4.53 0.577399
4.54 0.52463
4.55 0.462173
4.56 0.392539
4.57 0.316679
4.58 0.237492
4.59 0.156698
4.6 0.0764725
4.61 -0.00156106
4.62 -0.0753729
4.63 -0.144365
4.64 -0.207004
4.65 -0.263331
4.66 -0.313158
4.67 -0.356471
4.68 -0.394443
4.69 -0.427047
4.7 -0.455936
4.71 -0.481708
4.72 -0.505415
4.73 -0.527892
4.74 -0.549721
4.75 -0.571389
4.76 -0.593074
4.77 -0.614736
4.78 -0.636143
4.79 -0.656828
4.8 -0.6764
4.81 -0.694029
4.82 -0.709448
4.83 -0.722015
4.84 -0.731444
4.85 -0.737767
4.86 -0.740698
4.87 -0.740959
4.88 -0.738705
4.89 -0.734822
4.9 -0.730009
4.91 -0.725154
4.92 -0.72101
4.93 -0.718568
4.94 -0.71822
4.95 -0.720597
4.96 -0.72591
4.97 -0.734032
4.98 -0.745057
4.99 -0.758207
5 -0.773151
5.01 -0.789022
5.02 -0.80513
5.03 -0.82067
5.04 -0.835108
5.05 -0.847658
5.06 -0.858234
5.07 -0.866508
5.08 -0.872566
5.09 -0.87671
5.1 -0.879113
5.11 -0.880407
5.12 -0.880897
5.13 -0.881011
5.14 -0.880921
5.15 -0.880566
5.16 -0.879673
5.17 -0.877382
5.18 -0.872859
5.19 -0.864576
5.2 -0.850816
5.21 -0.830167
5.22 -0.799564
5.23 -0.758497
5.24 -0.703726
5.25 -0.634849
5.26 -0.550708
5.27 -0.450113
5.28 -0.335045
5.29 -0.204266
5.3 -0.0618029
5.31 0.0907883
5.32 0.249712
5.33 0.411057
5.34 0.570074
5.35 0.722627
5.36 0.862871
5.37 0.986997
5.38 1.09078
5.39 1.16915
5.4 1.22219
5.41 1.24341
5.42 1.23632
5.43 1.19863
5.44 1.13223
5.45 1.04065
5.46 0.924478
5.47 0.790734
5.48 0.641823
5.49 0.484015
5.5 0.321838
5.51 0.160491
5.52 0.00396488
5.53 -0.142403
5.54 -0.276735
5.55 -0.395563
5.56 -0.497372
5.57 -0.582321
5.58 -0.648418
5.59 -0.698916
5.6 -0.733224
5.61 -0.754557
5.62 -0.764731
5.63 -0.765704
5.64 -0.760424
5.65 -0.750097
5.66 -0.737056
5.67 -0.722254
5.68 -0.706535
5.69 -0.6902
5.7 -0.672986
5.71 -0.654497
5.72 -0.63371
5.73 -0.609802
5.74 -0.581801
5.75 -0.548532
5.76 -0.509975
5.77 -0.464908
5.78 -0.414352
5.79 -0.35841
5.8 -0.298298
5.81 -0.23557
5.82 -0.172005
5.83 -0.109713
5.84 -0.0512149
5.85 0.00143174
5.86 0.0461441
5.87 0.0804348
5.88 0.10406
5.89 0.114091
5.9 0.111935
5.91 0.0966682
5.92 0.0692291
5.93 0.0313372
5.94 -0.0164176
5.95 -0.0708456
5.96 -0.130543
5.97 -0.192751
5.98 -0.255459
5.99 -0.316479
6 -0.374481
6.01 -0.427525
6.02 -0.475495
6.03 -0.517657
6.04 -0.554265
6.05 -0.586132
6.06 -0.613723
6.07 -0.638712
6.08 -0.6621
6.09 -0.68535
6.1 -0.70955
6.11 -0.735791
6.12 -0.764418
6.13 -0.796099
6.14 -0.830253
6.15 -0.866535
6.16 -0.903931
6.17 -0.941304
6.18 -0.977094
6.19 -1.01016
6.2 -1.03873
6.21 -1.06195
6.22 -1.07891
6.23 -1.08878
6.24 -1.09226
6.25 -1.08877
6.26 -1.08013
6.27 -1.06712
6.28 -1.05146
6.29 -1.03478
6.3 -1.01881
6.31 -1.00481
6.32 -0.994103
6.33 -0.986925
6.34 -0.983112
6.35 -0.981688
6.36 -0.980697
6.37 -0.97709
6.38 -0.967647
6.39 -0.947716
6.4 -0.912276
6.41 -0.85757
6.42 -0.775408
6.43 -0.664934
6.44 -0.518093
6.45 -0.334274
6.46 -0.111069
6.47 0.154329
6.48 0.456582
6.49 0.7988
6.5 1.17113
6.51 1.5701
6.52 1.98701
6.53 2.41275
6.54 2.83693
6.55 3.24963
6.56 3.63792
6.57 3.99247
6.58 4.30339
6.59 4.55822
6.6 4.75601
6.61 4.88061
6.62 4.93807
6.63 4.92121
6.64 4.83164
6.65 4.67584
6.66 4.45109
6.67 4.17309
6.68 3.84363
6.69 3.47664
6.7 3.08144
6.71 2.66864
6.72 2.24987
6.73 1.8359
6.74 1.4356
6.75 1.05828
6.76 0.711243
6.77 0.397785
6.78 0.126457
6.79 -0.106426
6.8 -0.295378
6.81 -0.444792
6.82 -0.556387
6.83 -0.631871
6.84 -0.678844
6.85 -0.697816
6.86 -0.697402
6.87 -0.680687
6.88 -0.652801
6.89 -0.618066
6.9 -0.579618
6.91 -0.540625
6.92 -0.503198
6.93 -0.468691
6.94 -0.437872
6.95 -0.411239
6.96 -0.388225
6.97 -0.368981
6.98 -0.352482
6.99 -0.338446
7 -0.326409
7.01 -0.31607
7.02 -0.307692
7.03 -0.301305
7.04 -0.29775
7.05 -0.29761
7.06 -0.301751
7.07 -0.311441
7.08 -0.326868
7.09 -0.349769
7.1 -0.37958
7.11 -0.416966
7.12 -0.461533
7.13 -0.512265
7.14 -0.568705
7.15 -0.628709
7.16 -0.690937
7.17 -0.753208
7.18 -0.813641
7.19 -0.869934
7.2 -0.920896
7.21 -0.96393
7.22 -0.998962
7.23 -1.02469
7.24 -1.04106
7.25 -1.04889
7.26 -1.04808
7.27 -1.04101
7.28 -1.02858
7.29 -1.01313
7.3 -0.996453
7.31 -0.980596
7.32 -0.967006
7.33 -0.957584
7.34 -0.952661
7.35 -0.952925
7.36 -0.958032
7.37 -0.96691
7.38 -0.978347
7.39 -0.99007
7.4 -0.999564
7.41 -1.00411
7.42 -1.00096
7.43 -0.986457
7.44 -0.959412
7.45 -0.915168
7.46 -0.854251
7.47 -0.774261
7.48 -0.675029
7.49 -0.558061
7.5 -0.422554
7.51 -0.273007
7.52 -0.110534
7.53 0.0603253
7.54 0.235987
7.55 0.411993
7.56 0.584349
7.57 0.747576
7.58 0.898772
7.59 1.03336
7.6 1.14804
7.61 1.24161
7.62 1.30923
7.63 1.35336
7.64 1.37064
7.65 1.36346
7.66 1.33266
7.67 1.27878
7.68 1.20633
7.69 1.11522
7.7 1.01081
7.71 0.895038
7.72 0.771428
7.73 0.643238
7.74 0.513296
7.75 0.384503
7.76 0.259664
7.77 0.140884
7.78 0.030087
7.79 -0.0703625
7.8 -0.160304
7.81 -0.236756
7.82 -0.30067
7.83 -0.350534
7.84 -0.386199
7.85 -0.408501
7.86 -0.416056
7.87 -0.411431
7.88 -0.393979
7.89 -0.365866
7.9 -0.32838
7.91 -0.282934
7.92 -0.232197
7.93 -0.177782
7.94 -0.122537
7.95 -0.0687761
7.96 -0.0191519
7.97 0.0244276
7.98 0.0586657
7.99 0.0830087
8 0.0945869
8.01 0.0931775
8.02 0.078137
8.03 0.0486378
8.04 0.00672689
8.05 -0.0484111
8.06 -0.113443
8.07 -0.187169
8.08 -0.266952
8.09 -0.350112
8.1 -0.434056
8.11 -0.51622
8.12 -0.59392
8.13 -0.665348
8.14 -0.728972
8.15 -0.783143
8.16 -0.828436
8.17 -0.863498
8.18 -0.890322
8.19 -0.909372
8.2 -0.922358
8.21 -0.931227
8.22 -0.937554
8.23 -0.943365
8.24 -0.950153
8.25 -0.958985
8.26 -0.970374
8.27 -0.98433
8.28 -0.999801
8.29 -1.01523
8.3 -1.02828
8.31 -1.03586
8.32 -1.03426
8.33 -1.02055
8.34 -0.988631
8.35 -0.937326
8.36 -0.86054
8.37 -0.757051
8.38 -0.624733
8.39 -0.460662
8.4 -0.268344
8.41 -0.0446443
8.42 0.203724
8.43 0.47488
8.44 0.763152
8.45 1.06203
8.46 1.36501
8.47 1.66443
8.48 1.95181
8.49 2.21996
8.5 2.46189
8.51 2.66851
8.52 2.83839
8.53 2.96031
8.54 3.03717
8.55 3.06374
8.56 3.04004
8.57 2.97014
8.58 2.85095
8.59 2.69297
8.6 2.49652
8.61 2.27058
8.62 2.02118
8.63 1.75476
8.64 1.47965
8.65 1.20221
8.66 0.929283
8.67 0.666892
8.68 0.420465
8.69 0.192769
8.7 -0.0101746
8.71 -0.189828
8.72 -0.342234
8.73 -0.469324
8.74 -0.571813
8.75 -0.650082
8.76 -0.708846
8.77 -0.747989
8.78 -0.773063
8.79 -0.786036
8.8 -0.79035
8.81 -0.789182
8.82 -0.784847
8.83 -0.779965
8.84 -0.776397
8.85 -0.775547
8.86 -0.778337
8.87 -0.785604
8.88 -0.797002
8.89 -0.812999
8.9 -0.832545
8.91 -0.855269
8.92 -0.880292
8.93 -0.906705
8.94 -0.93372
8.95 -0.960495
8.96 -0.98628
8.97 -1.01055
8.98 -1.0329
8.99 -1.0529
9 -1.07071
9.01 -1.08597
9.02 -1.09913
9.03 -1.1102
9.04 -1.11945
9.05 -1.12721
9.06 -1.13352
9.07 -1.13871
9.08 -1.14271
9.09 -1.14554
9.1 -1.14702
9.11 -1.14672
9.12 -1.14443
9.13 -1.13923
9.14 -1.13082
9.15 -1.1183
9.16 -1.10091
9.17 -1.07831
9.18 -1.04909
9.19 -1.01369
9.2 -0.970983
9.21 -0.921361
9.22 -0.864925
9.23 -0.801719
9.24 -0.73313
9.25 -0.659405
9.26 -0.582487
9.27 -0.503619
9.28 -0.424686
9.29 -0.347377
9.3 -0.274123
9.31 -0.2062
9.32 -0.146156
9.33 -0.0951652
9.34 -0.0545317
9.35 -0.0260551
9.36 -0.00897367
9.37 -0.00534604
9.38 -0.0131822
9.39 -0.0326155
9.4 -0.0623252
9.41 -0.100276
9.42 -0.145446
9.43 -0.194845
9.44 -0.246725
9.45 -0.298577
9.46 -0.348412
9.47 -0.393935
9.48 -0.434126
9.49 -0.466711
9.5 -0.49183
9.51 -0.508594
9.52 -0.517165
9.53 -0.518564
9.54 -0.512934
9.55 -0.502493
9.56 -0.488238
9.57 -0.472205
9.58 -0.456002
9.59 -0.441478
9.6 -0.429805
9.61 -0.422822
9.62 -0.420845
9.63 -0.424766
9.64 -0.434748
9.65 -0.450237
9.66 -0.47139
9.67 -0.496672
9.68 -0.525599
9.69 -0.556795
9.7 -0.589253
9.71 -0.621916
9.72 -0.653977
9.73 -0.684601
9.74 -0.713552
9.75 -0.740541
9.76 -0.765621
9.77 -0.789099
9.78 -0.81109
9.79 -0.832071
9.8 -0.852076
9.81 -0.871084
9.82 -0.888695
9.83 -0.903846
9.84 -0.915556
9.85 -0.921113
9.86 -0.918795
9.87 -0.905142
9.88 -0.876496
9.89 -0.830496
9.9 -0.760427
9.91 -0.666081
9.92 -0.540941
9.93 -0.384088
9.94 -0.193553
9.95 0.0340457
9.96 0.29454
9.97 0.591705
9.98 0.918172
9.99 1.27206
10 1.64737
10.01 2.03676
10.02 2.43338
10.03 2.82818
10.04 3.21177
10.05 3.5754
10.06 3.91077
10.07 4.20674
10.08 4.46086
10.09 4.65942
10.1 4.80449
10.11 4.88917
10.12 4.91198
10.13 4.87719
10.14 4.77924
10.15 4.63045
10.16 4.42988
10.17 4.18775
10.18 3.91097
10.19 3.60639
10.2 3.2848
10.21 2.95288
10.22 2.62008
10.23 2.29356
10.24 1.98051
10.25 1.68508
10.26 1.4147
10.27 1.16882
10.28 0.952321
10.29 0.763831
10.3 0.602793
10.31 0.46921
10.32 0.357822
10.33 0.268796
10.34 0.195873
10.35 0.136668
10.36 0.087195
10.37 0.0436971
10.38 0.00340813
10.39 -0.036685
10.4 -0.0787702
10.41 -0.12439
10.42 -0.174496
10.43 -0.22992
10.44 -0.290051
10.45 -0.35514
10.46 -0.423765
10.47 -0.495151
10.48 -0.567962
10.49 -0.640926
10.5 -0.712557
10.51 -0.781833
10.52 -0.847277
10.53 -0.90807
10.54 -0.963413
10.55 -1.01217
10.56 -1.05459
10.57 -1.08925
10.58 -1.11688
10.59 -1.1369
10.6 -1.14933
10.61 -1.15477
10.62 -1.15248
10.63 -1.14383
10.64 -1.1284
10.65 -1.10712
10.66 -1.08049
10.67 -1.04888
10.68 -1.01347
10.69 -0.974565
10.7 -0.933451
10.71 -0.890865
10.72 -0.847848
10.73 -0.805299
10.74 -0.764378
10.75 -0.725731
10.76 -0.690503
10.77 -0.659254
10.78 -0.632561
10.79 -0.611272
10.8 -0.595092
10.81 -0.585036
10.82 -0.580378
10.83 -0.581383
10.84 -0.58779
10.85 -0.598936
10.86 -0.615001
10.87 -0.63484
10.88 -0.658398
10.89 -0.684887
10.9 -0.713818
10.91 -0.74479
10.92 -0.777131
10.93 -0.810547
10.94 -0.844459
10.95 -0.87849
10.96 -0.91218
10.97 -0.945175
10.98 -0.97689
10.99 -1.0071
11 -1.03517
11.01 -1.06082
11.02 -1.0837
11.03 -1.10325
11.04 -1.1196
11.05 -1.13208
11.06 -1.14114
11.07 -1.14665
11.08 -1.14889
11.09 -1.14846
11.1 -1.14561
11.11 -1.14131
11.12 -1.13615
11.13 -1.13097
11.14 -1.12641
11.15 -1.12319
11.16 -1.12152
11.17 -1.12176
11.18 -1.12347
11.19 -1.12617
11.2 -1.12873
11.21 -1.12987
11.22 -1.12724
11.23 -1.11921
11.24 -1.10255
11.25 -1.07492
11.26 -1.03379
11.27 -0.97521
11.28 -0.898908
11.29 -0.799815
11.3 -0.679243
11.31 -0.535018
11.32 -0.36718
11.33 -0.17819
11.34 0.0327639
11.35 0.259864
11.36 0.501248
11.37 0.751231
11.38 1.00494
11.39 1.25625
11.4 1.49995
11.41 1.72818
11.42 1.93694
11.43 2.11974
11.44 2.2714
11.45 2.39054
11.46 2.46925
11.47 2.51155
11.48 2.51246
11.49 2.47528
11.5 2.40188
11.51 2.29304
11.52 2.15629
11.53 1.99237
11.54 1.80978
11.55 1.61259
11.56 1.40682
11.57 1.19796
11.58 0.991364
11.59 0.791034
11.6 0.601621
11.61 0.42561
11.62 0.264939
11.63 0.122104
11.64 -0.00452619
11.65 -0.112786
11.66 -0.205951
11.67 -0.284548
11.68 -0.350695
11.69 -0.407239
11.7 -0.455437
11.71 -0.498598
11.72 -0.538178
11.73 -0.576215
11.74 -0.61397
11.75 -0.652456
11.76 -0.692018
11.77 -0.732847
11.78 -0.77438
11.79 -0.815918
11.8 -0.856288
11.81 -0.894403
11.82 -0.928278
11.83 -0.957051
11.84 -0.978561
11.85 -0.991746
11.86 -0.99544
11.87 -0.987722
11.88 -0.969063
11.89 -0.937015
11.9 -0.892797
11.91 -0.835499
11.92 -0.765243
11.93 -0.683307
11.94 -0.588797
11.95 -0.484394
11.96 -0.370125
11.97 -0.248117
11.98 -0.119976
11.99 0.0125908
12 0.147152
12.01 0.2815
12.02 0.413225
12.03 0.539758
12.04 0.658336
12.05 0.767293
12.06 0.862543
12.07 0.943956
12.08 1.00796
12.09 1.05403
12.1 1.08131
12.11 1.08782
12.12 1.07594
12.13 1.04341
12.14 0.993868
12.15 0.927845
12.16 0.847657
12.17 0.756624
12.18 0.656491
12.19 0.551492
12.2 0.444214
12.21 0.337981
12.22 0.235383
12.23 0.139434
12.24 0.051196
12.25 -0.0265289
12.26 -0.0941604
12.27 -0.150859
12.28 -0.197016
12.29 -0.23424
12.3 -0.262887
12.31 -0.28591
12.32 -0.304718
12.33 -0.321816
12.34 -0.339145
12.35 -0.35883
12.36 -0.382013
12.37 -0.410441
12.38 -0.444036
12.39 -0.483082
12.4 -0.526904
12.41 -0.574075
