# xPDFsuite Configuration #
[PDF]
wavelength = 0.1432
dataformat = twotheta
inputfile = 1_1Pd_CeO2_cycle-00340.chi
backgroundfile = background-00000.chi
mode = xray
bgscale = 1.007
composition = CeO2
outputtype = gr
qmaxinst = 28.8974762299
qmin = 0.5
qmax = 27.9
rmax = 50.0
rmin = 0.0
rstep = 0.01
rpoly = 1.8657

[Misc]
inputdir = G:/SankarDec16/1Pd/Chi
savedir = D:/DATA/APS_CeO2/1Pd
backgroundfilefull = G:/SankarDec16/Background/background-00000.chi

#### start data
#S 1
#L r($\AA$)  G($\AA^{-2}$)
0 0
0.01 -0.00532564
0.02 -0.010249
0.03 -0.0143559
0.04 -0.0173347
0.05 -0.0190122
0.06 -0.01911
0.07 -0.0178145
0.08 -0.0150374
0.09 -0.0111341
0.1 -0.00635099
0.11 -0.00106467
0.12 0.00431533
0.13 0.00932843
0.14 0.0136505
0.15 0.0168834
0.16 0.0187956
0.17 0.0192958
0.18 0.0181965
0.19 0.0157731
0.2 0.0120395
0.21 0.0074108
0.22 0.00219438
0.23 -0.00318664
0.24 -0.00834775
0.25 -0.0127929
0.26 -0.0162921
0.27 -0.0184832
0.28 -0.019226
0.29 -0.0185161
0.3 -0.0162662
0.31 -0.012827
0.32 -0.00831434
0.33 -0.00318268
0.34 0.00221505
0.35 0.00742983
0.36 0.0121214
0.37 0.015783
0.38 0.0182899
0.39 0.0193342
0.4 0.0188745
0.41 0.0169933
0.42 0.0137084
0.43 0.00942863
0.44 0.00436606
0.45 -0.00100773
0.46 -0.00631185
0.47 -0.0110934
0.48 -0.0150735
0.49 -0.0177598
0.5 -0.0191396
0.51 -0.0189747
0.52 -0.0173247
0.53 -0.0143555
0.54 -0.0101893
0.55 -0.0052732
0.56 9.49981e-05
0.57 0.00544968
0.58 0.0104011
0.59 0.0145146
0.6 0.0175873
0.61 0.0191657
0.62 0.01935
0.63 0.0179839
0.64 0.0152256
0.65 0.0113164
0.66 0.0064774
0.67 0.00117152
0.68 -0.00423206
0.69 -0.00929678
0.7 -0.0136436
0.71 -0.0168777
0.72 -0.0188824
0.73 -0.0192657
0.74 -0.0182358
0.75 -0.0157261
0.76 -0.0119851
0.77 -0.00731701
0.78 -0.00202988
0.79 0.00342104
0.8 0.00861575
0.81 0.0131692
0.82 0.0167338
0.83 0.0189763
0.84 0.0198723
0.85 0.0191143
0.86 0.0170066
0.87 0.0135767
0.88 0.00914996
0.89 0.00407566
0.9 -0.00126901
0.91 -0.00646494
0.92 -0.0110691
0.93 -0.0147749
0.94 -0.0172936
0.95 -0.0183833
0.96 -0.0181208
0.97 -0.0163218
0.98 -0.0133755
0.99 -0.00942285
1 -0.004861
1.01 -7.35081e-05
1.02 0.00449017
1.03 0.00847964
1.04 0.0114329
1.05 0.013154
1.06 0.0134336
1.07 0.0121474
1.08 0.00950178
1.09 0.00546903
1.1 0.000549828
1.11 -0.00496172
1.12 -0.0105596
1.13 -0.0157946
1.14 -0.0200775
1.15 -0.0231123
1.16 -0.0243308
1.17 -0.0236248
1.18 -0.0208048
1.19 -0.0157942
1.2 -0.00893637
1.21 -0.000232557
1.22 0.00964033
1.23 0.0203024
1.24 0.0311136
1.25 0.0415127
1.26 0.0507689
1.27 0.0585006
1.28 0.063978
1.29 0.0670147
1.3 0.0673007
1.31 0.0646122
1.32 0.0592735
1.33 0.0510235
1.34 0.0405989
1.35 0.02819
1.36 0.0143906
1.37 -0.000240538
1.38 -0.0151371
1.39 -0.0297319
1.4 -0.0434165
1.41 -0.0557852
1.42 -0.0664264
1.43 -0.074937
1.44 -0.0813391
1.45 -0.0851288
1.46 -0.0866676
1.47 -0.0857799
1.48 -0.0826606
1.49 -0.0775491
1.5 -0.0704642
1.51 -0.0618726
1.52 -0.0518229
1.53 -0.0407044
1.54 -0.0287248
1.55 -0.016134
1.56 -0.00322259
1.57 0.00976116
1.58 0.0225355
1.59 0.0347966
1.6 0.0462347
1.61 0.0565952
1.62 0.0653968
1.63 0.07254
1.64 0.0774732
1.65 0.0801168
1.66 0.0801985
1.67 0.0774546
1.68 0.072108
1.69 0.063746
1.7 0.0529626
1.71 0.0397771
1.72 0.0246634
1.73 0.00813488
1.74 -0.00932056
1.75 -0.0270006
1.76 -0.0442487
1.77 -0.0604442
1.78 -0.075
1.79 -0.0872904
1.8 -0.0971906
1.81 -0.103999
1.82 -0.10809
1.83 -0.109283
1.84 -0.107934
1.85 -0.104519
1.86 -0.0994291
1.87 -0.0934743
1.88 -0.0872637
1.89 -0.0815332
1.9 -0.0769048
1.91 -0.0740341
1.92 -0.0731217
1.93 -0.0747985
1.94 -0.0787403
1.95 -0.0850308
1.96 -0.0932432
1.97 -0.102831
1.98 -0.113189
1.99 -0.123495
2 -0.132859
2.01 -0.140501
2.02 -0.14563
2.03 -0.147378
2.04 -0.145587
2.05 -0.139197
2.06 -0.128693
2.07 -0.113673
2.08 -0.0944596
2.09 -0.0715392
2.1 -0.0450473
2.11 -0.0159695
2.12 0.0154186
2.13 0.048309
2.14 0.0822464
2.15 0.116797
2.16 0.151624
2.17 0.186585
2.18 0.221632
2.19 0.256865
2.2 0.292469
2.21 0.328632
2.22 0.365659
2.23 0.40358
2.24 0.442548
2.25 0.482323
2.26 0.522593
2.27 0.562727
2.28 0.602003
2.29 0.639067
2.3 0.673015
2.31 0.702191
2.32 0.725176
2.33 0.740937
2.34 0.747204
2.35 0.74418
2.36 0.729755
2.37 0.704514
2.38 0.668199
2.39 0.620907
2.4 0.564592
2.41 0.499291
2.42 0.42809
2.43 0.352475
2.44 0.275045
2.45 0.198057
2.46 0.124243
2.47 0.0552443
2.48 -0.0062819
2.49 -0.0594589
2.5 -0.103135
2.51 -0.136417
2.52 -0.160435
2.53 -0.174318
2.54 -0.180672
2.55 -0.180289
2.56 -0.175334
2.57 -0.167842
2.58 -0.159877
2.59 -0.153333
2.6 -0.150217
2.61 -0.151626
2.62 -0.158532
2.63 -0.171615
2.64 -0.19016
2.65 -0.214414
2.66 -0.242495
2.67 -0.273376
2.68 -0.305196
2.69 -0.336293
2.7 -0.364596
2.71 -0.388982
2.72 -0.407559
2.73 -0.41993
2.74 -0.425568
2.75 -0.42433
2.76 -0.417479
2.77 -0.405324
2.78 -0.390141
2.79 -0.373416
2.8 -0.357305
2.81 -0.343581
2.82 -0.334596
2.83 -0.331183
2.84 -0.335287
2.85 -0.346875
2.86 -0.366152
2.87 -0.392807
2.88 -0.42508
2.89 -0.462065
2.9 -0.50107
2.91 -0.540048
2.92 -0.576448
2.93 -0.608293
2.94 -0.632752
2.95 -0.649253
2.96 -0.655567
2.97 -0.652111
2.98 -0.638877
2.99 -0.61647
3 -0.587199
3.01 -0.552261
3.02 -0.514926
3.03 -0.477617
3.04 -0.443277
3.05 -0.414129
3.06 -0.393303
3.07 -0.381337
3.08 -0.380573
3.09 -0.3904
3.1 -0.410668
3.11 -0.440533
3.12 -0.477395
3.13 -0.519766
3.14 -0.564154
3.15 -0.607926
3.16 -0.648043
3.17 -0.682322
3.18 -0.707702
3.19 -0.723955
3.2 -0.729089
3.21 -0.724185
3.22 -0.709912
3.23 -0.687796
3.24 -0.660778
3.25 -0.631323
3.26 -0.602926
3.27 -0.578841
3.28 -0.562211
3.29 -0.555052
3.3 -0.560622
3.31 -0.578282
3.32 -0.609818
3.33 -0.653153
3.34 -0.706839
3.35 -0.768347
3.36 -0.833867
3.37 -0.899708
3.38 -0.961841
3.39 -1.01609
3.4 -1.05884
3.41 -1.08804
3.42 -1.09996
3.43 -1.09608
3.44 -1.07469
3.45 -1.03896
3.46 -0.991174
3.47 -0.934963
3.48 -0.875178
3.49 -0.816753
3.5 -0.764321
3.51 -0.722839
3.52 -0.696061
3.53 -0.685677
3.54 -0.694827
3.55 -0.720393
3.56 -0.762014
3.57 -0.813851
3.58 -0.870407
3.59 -0.923442
3.6 -0.965442
3.61 -0.983622
3.62 -0.971716
3.63 -0.91772
3.64 -0.81346
3.65 -0.654865
3.66 -0.430072
3.67 -0.145405
3.68 0.206889
3.69 0.617649
3.7 1.08218
3.71 1.59262
3.72 2.13371
3.73 2.69473
3.74 3.25738
3.75 3.80559
3.76 4.32157
3.77 4.79193
3.78 5.19417
3.79 5.52476
3.8 5.76276
3.81 5.90798
3.82 5.95435
3.83 5.89649
3.84 5.74742
3.85 5.49834
3.86 5.17244
3.87 4.77398
3.88 4.3192
3.89 3.82434
3.9 3.30266
3.91 2.77247
3.92 2.24842
3.93 1.74423
3.94 1.27154
3.95 0.842603
3.96 0.459479
3.97 0.135339
3.98 -0.136164
3.99 -0.350617
4 -0.512076
4.01 -0.627091
4.02 -0.697082
4.03 -0.734539
4.04 -0.742995
4.05 -0.73276
4.06 -0.710289
4.07 -0.682345
4.08 -0.654528
4.09 -0.631899
4.1 -0.616805
4.11 -0.611676
4.12 -0.616903
4.13 -0.631498
4.14 -0.654862
4.15 -0.683779
4.16 -0.716217
4.17 -0.74893
4.18 -0.779272
4.19 -0.804254
4.2 -0.822447
4.21 -0.830764
4.22 -0.829492
4.23 -0.817239
4.24 -0.794248
4.25 -0.761469
4.26 -0.718757
4.27 -0.668494
4.28 -0.611021
4.29 -0.548305
4.3 -0.481421
4.31 -0.411411
4.32 -0.339421
4.33 -0.265914
4.34 -0.191595
4.35 -0.116708
4.36 -0.0415029
4.37 0.0338447
4.38 0.109106
4.39 0.183988
4.4 0.257921
4.41 0.330249
4.42 0.400059
4.43 0.465934
4.44 0.527056
4.45 0.580901
4.46 0.626932
4.47 0.662932
4.48 0.687572
4.49 0.700313
4.5 0.698756
4.51 0.684336
4.52 0.655304
4.53 0.613338
4.54 0.559075
4.55 0.493484
4.56 0.419331
4.57 0.337531
4.58 0.251429
4.59 0.162953
4.6 0.0746754
4.61 -0.0114159
4.62 -0.0928452
4.63 -0.168713
4.64 -0.237018
4.65 -0.297591
4.66 -0.350001
4.67 -0.39399
4.68 -0.430879
4.69 -0.460386
4.7 -0.484583
4.71 -0.504149
4.72 -0.520495
4.73 -0.534849
4.74 -0.548174
4.75 -0.561419
4.76 -0.575227
4.77 -0.589935
4.78 -0.605665
4.79 -0.622335
4.8 -0.639568
4.81 -0.656944
4.82 -0.673916
4.83 -0.689912
4.84 -0.704411
4.85 -0.717122
4.86 -0.727532
4.87 -0.735856
4.88 -0.741896
4.89 -0.746091
4.9 -0.748767
4.91 -0.750392
4.92 -0.751562
4.93 -0.752824
4.94 -0.754663
4.95 -0.757533
4.96 -0.761727
4.97 -0.767311
4.98 -0.774438
4.99 -0.782753
5 -0.792112
5.01 -0.80204
5.02 -0.812144
5.03 -0.821956
5.04 -0.831157
5.05 -0.839301
5.06 -0.846352
5.07 -0.852162
5.08 -0.856836
5.09 -0.860603
5.1 -0.863659
5.11 -0.866378
5.12 -0.868989
5.13 -0.871666
5.14 -0.874401
5.15 -0.876927
5.16 -0.8788
5.17 -0.878966
5.18 -0.876516
5.19 -0.869807
5.2 -0.857086
5.21 -0.836967
5.22 -0.806359
5.23 -0.764881
5.24 -0.709329
5.25 -0.639428
5.26 -0.554113
5.27 -0.452297
5.28 -0.336044
5.29 -0.204206
5.3 -0.0608453
5.31 0.092434
5.32 0.251824
5.33 0.41343
5.34 0.572493
5.35 0.724932
5.36 0.864914
5.37 0.988673
5.38 1.09201
5.39 1.16987
5.4 1.22235
5.41 1.24297
5.42 1.23523
5.43 1.19684
5.44 1.12967
5.45 1.03724
5.46 0.920145
5.47 0.785422
5.48 0.635497
5.49 0.476685
5.5 0.313573
5.51 0.151443
5.52 -0.00565534
5.53 -0.152246
5.54 -0.286411
5.55 -0.404574
5.56 -0.505159
5.57 -0.58832
5.58 -0.651988
5.59 -0.699533
5.6 -0.730363
5.61 -0.747852
5.62 -0.753948
5.63 -0.750793
5.64 -0.741527
5.65 -0.727622
5.66 -0.711571
5.67 -0.694575
5.68 -0.677657
5.69 -0.661194
5.7 -0.645159
5.71 -0.629008
5.72 -0.61184
5.73 -0.592626
5.74 -0.570259
5.75 -0.543363
5.76 -0.511601
5.77 -0.47348
5.78 -0.429681
5.79 -0.379978
5.8 -0.325268
5.81 -0.266905
5.82 -0.206297
5.83 -0.145598
5.84 -0.0870717
5.85 -0.0329089
5.86 0.0147467
5.87 0.0532969
5.88 0.0821486
5.89 0.0982076
5.9 0.102443
5.91 0.0936207
5.92 0.0723013
5.93 0.0399213
5.94 -0.003335
5.95 -0.0543637
5.96 -0.112075
5.97 -0.173688
5.98 -0.237207
5.99 -0.300426
6 -0.361721
6.01 -0.419078
6.02 -0.471959
6.03 -0.519374
6.04 -0.561214
6.05 -0.597996
6.06 -0.629807
6.07 -0.658171
6.08 -0.683778
6.09 -0.708052
6.1 -0.732026
6.11 -0.756766
6.12 -0.782856
6.13 -0.811002
6.14 -0.840998
6.15 -0.872726
6.16 -0.905504
6.17 -0.938481
6.18 -0.970456
6.19 -1.00045
6.2 -1.027
6.21 -1.04929
6.22 -1.06651
6.23 -1.07784
6.24 -1.08377
6.25 -1.08369
6.26 -1.07906
6.27 -1.07044
6.28 -1.05918
6.29 -1.04665
6.3 -1.03418
6.31 -1.02284
6.32 -1.01363
6.33 -1.00669
6.34 -1.00177
6.35 -0.997818
6.36 -0.993096
6.37 -0.984541
6.38 -0.969335
6.39 -0.94305
6.4 -0.90104
6.41 -0.839891
6.42 -0.751852
6.43 -0.636325
6.44 -0.485685
6.45 -0.299491
6.46 -0.0755233
6.47 0.18883
6.48 0.488417
6.49 0.826171
6.5 1.19266
6.51 1.58454
6.52 1.99347
6.53 2.41073
6.54 2.82633
6.55 3.23072
6.56 3.61147
6.57 3.95954
6.58 4.26534
6.59 4.51676
6.6 4.71282
6.61 4.83773
6.62 4.89725
6.63 4.88425
6.64 4.80011
6.65 4.651
6.66 4.43401
6.67 4.16438
6.68 3.8436
6.69 3.4852
6.7 3.0982
6.71 2.69283
6.72 2.28061
6.73 1.87192
6.74 1.47571
6.75 1.10113
6.76 0.755534
6.77 0.442363
6.78 0.170183
6.79 -0.0643689
6.8 -0.2557
6.81 -0.407927
6.82 -0.522578
6.83 -0.601161
6.84 -0.651129
6.85 -0.672843
6.86 -0.674881
6.87 -0.660286
6.88 -0.63422
6.89 -0.601084
6.9 -0.564103
6.91 -0.526581
6.92 -0.490769
6.93 -0.458144
6.94 -0.42958
6.95 -0.405689
6.96 -0.385886
6.97 -0.370391
6.98 -0.358044
6.99 -0.34849
7 -0.341085
7.01 -0.335341
7.02 -0.331256
7.03 -0.328673
7.04 -0.328122
7.05 -0.330017
7.06 -0.335043
7.07 -0.344259
7.08 -0.357934
7.09 -0.377595
7.1 -0.40296
7.11 -0.434743
7.12 -0.472813
7.13 -0.516463
7.14 -0.565543
7.15 -0.618295
7.16 -0.673779
7.17 -0.730153
7.18 -0.785852
7.19 -0.838943
7.2 -0.888254
7.21 -0.931577
7.22 -0.9686
7.23 -0.998092
7.24 -1.01978
7.25 -1.03417
7.26 -1.04095
7.27 -1.04199
7.28 -1.03782
7.29 -1.03031
7.3 -1.02086
7.31 -1.01108
7.32 -1.00223
7.33 -0.995747
7.34 -0.992051
7.35 -0.991658
7.36 -0.994315
7.37 -0.999201
7.38 -1.0052
7.39 -1.01054
7.4 -1.01299
7.41 -1.01031
7.42 -1.00014
7.43 -0.979285
7.44 -0.946798
7.45 -0.898501
7.46 -0.834937
7.47 -0.753927
7.48 -0.655294
7.49 -0.54037
7.5 -0.408332
7.51 -0.263237
7.52 -0.105987
7.53 0.0593116
7.54 0.229429
7.55 0.400325
7.56 0.568265
7.57 0.728207
7.58 0.877313
7.59 1.01123
7.6 1.12668
7.61 1.22234
7.62 1.29337
7.63 1.34185
7.64 1.36425
7.65 1.36258
7.66 1.33734
7.67 1.28875
7.68 1.22104
7.69 1.13375
7.7 1.03216
7.71 0.918032
7.72 0.794844
7.73 0.665972
7.74 0.53424
7.75 0.402881
7.76 0.274849
7.77 0.152586
7.78 0.0382774
7.79 -0.0654028
7.8 -0.158102
7.81 -0.236538
7.82 -0.301634
7.83 -0.351757
7.84 -0.386791
7.85 -0.40771
7.86 -0.413223
7.87 -0.406201
7.88 -0.386227
7.89 -0.355773
7.9 -0.316396
7.91 -0.269823
7.92 -0.218835
7.93 -0.16536
7.94 -0.112164
7.95 -0.0616355
7.96 -0.0163084
7.97 0.0221367
7.98 0.0505888
7.99 0.0688842
8 0.0744877
8.01 0.0675578
8.02 0.0477907
8.03 0.0147673
8.04 -0.0293539
8.05 -0.0849627
8.06 -0.148862
8.07 -0.219739
8.08 -0.295098
8.09 -0.372546
8.1 -0.449676
8.11 -0.524434
8.12 -0.594503
8.13 -0.65856
8.14 -0.715489
8.15 -0.764132
8.16 -0.805247
8.17 -0.837988
8.18 -0.864249
8.19 -0.884657
8.2 -0.900801
8.21 -0.914331
8.22 -0.926647
8.23 -0.939201
8.24 -0.953088
8.25 -0.968816
8.26 -0.98642
8.27 -1.00533
8.28 -1.02426
8.29 -1.04103
8.3 -1.05339
8.31 -1.05803
8.32 -1.05132
8.33 -1.03068
8.34 -0.990153
8.35 -0.929243
8.36 -0.842309
8.37 -0.728813
8.38 -0.587226
8.39 -0.415364
8.4 -0.217088
8.41 0.00990523
8.42 0.2589
8.43 0.527617
8.44 0.810373
8.45 1.10097
8.46 1.39288
8.47 1.67928
8.48 1.95208
8.49 2.20492
8.5 2.43155
8.51 2.62376
8.52 2.78074
8.53 2.89233
8.54 2.9617
8.55 2.98432
8.56 2.96048
8.57 2.89415
8.58 2.78262
8.59 2.63556
8.6 2.45324
8.61 2.24376
8.62 2.01245
8.63 1.76491
8.64 1.50856
8.65 1.24878
8.66 0.991694
8.67 0.74248
8.68 0.505923
8.69 0.284583
8.7 0.0837223
8.71 -0.0975909
8.72 -0.255723
8.73 -0.391966
8.74 -0.506577
8.75 -0.599386
8.76 -0.674159
8.77 -0.730097
8.78 -0.771813
8.79 -0.800478
8.8 -0.81874
8.81 -0.829316
8.82 -0.833674
8.83 -0.834551
8.84 -0.833299
8.85 -0.831611
8.86 -0.830605
8.87 -0.831364
8.88 -0.834305
8.89 -0.840267
8.9 -0.849077
8.91 -0.860977
8.92 -0.875817
8.93 -0.893194
8.94 -0.913054
8.95 -0.93466
8.96 -0.957755
8.97 -0.981723
8.98 -1.0061
8.99 -1.03036
9 -1.05407
9.01 -1.07663
9.02 -1.09779
9.03 -1.11706
9.04 -1.1341
9.05 -1.14878
9.06 -1.1605
9.07 -1.16949
9.08 -1.1752
9.09 -1.17772
9.1 -1.17691
9.11 -1.17241
9.12 -1.16452
9.13 -1.15252
9.14 -1.13677
9.15 -1.11681
9.16 -1.09245
9.17 -1.06376
9.18 -1.02996
9.19 -0.991567
9.2 -0.947898
9.21 -0.899282
9.22 -0.84578
9.23 -0.787348
9.24 -0.724892
9.25 -0.658427
9.26 -0.589269
9.27 -0.518194
9.28 -0.44652
9.29 -0.375517
9.3 -0.306998
9.31 -0.24213
9.32 -0.183021
9.33 -0.130895
9.34 -0.0870959
9.35 -0.053499
9.36 -0.0298358
9.37 -0.0183867
9.38 -0.0178081
9.39 -0.0287023
9.4 -0.0503338
9.41 -0.0810988
9.42 -0.12061
9.43 -0.166006
9.44 -0.215989
9.45 -0.268017
9.46 -0.320074
9.47 -0.3698
9.48 -0.415688
9.49 -0.455254
9.5 -0.487992
9.51 -0.512551
9.52 -0.528516
9.53 -0.536479
9.54 -0.535969
9.55 -0.529076
9.56 -0.516374
9.57 -0.499943
9.58 -0.481441
9.59 -0.462814
9.6 -0.445725
9.61 -0.432273
9.62 -0.42341
9.63 -0.420515
9.64 -0.424332
9.65 -0.434716
9.66 -0.452448
9.67 -0.476063
9.68 -0.505479
9.69 -0.539211
9.7 -0.576142
9.71 -0.615044
9.72 -0.654548
9.73 -0.693451
9.74 -0.73083
9.75 -0.765813
9.76 -0.797796
9.77 -0.826653
9.78 -0.85176
9.79 -0.873579
9.8 -0.891668
9.81 -0.906168
9.82 -0.916817
9.83 -0.922755
9.84 -0.923675
9.85 -0.917279
9.86 -0.902675
9.87 -0.877083
9.88 -0.837629
9.89 -0.782494
9.9 -0.705861
9.91 -0.6076
9.92 -0.481825
9.93 -0.327514
9.94 -0.142628
9.95 0.0763101
9.96 0.325864
9.97 0.610091
9.98 0.922569
9.99 1.26207
10 1.62346
10.01 2.00003
10.02 2.38586
10.03 2.77217
10.04 3.15027
10.05 3.51146
10.06 3.84754
10.07 4.1474
10.08 4.40802
10.09 4.61557
10.1 4.77128
10.11 4.86775
10.12 4.90278
10.13 4.88001
10.14 4.79315
10.15 4.65417
10.16 4.46152
10.17 4.22529
10.18 3.95228
10.19 3.64923
10.2 3.32734
10.21 2.99331
10.22 2.65722
10.23 2.32656
10.24 2.00903
10.25 1.70922
10.26 1.43502
10.27 1.18614
10.28 0.967763
10.29 0.778571
10.3 0.617998
10.31 0.485987
10.32 0.37695
10.33 0.290847
10.34 0.220991
10.35 0.164648
10.36 0.117443
10.37 0.0753728
10.38 0.0352742
10.39 -0.00583738
10.4 -0.0503444
10.41 -0.0996266
10.42 -0.154472
10.43 -0.215481
10.44 -0.281637
10.45 -0.352826
10.46 -0.427207
10.47 -0.503606
10.48 -0.580314
10.49 -0.655895
10.5 -0.728493
10.51 -0.797268
10.52 -0.860632
10.53 -0.918065
10.54 -0.969044
10.55 -1.01278
10.56 -1.05
10.57 -1.07976
10.58 -1.1032
10.59 -1.12017
10.6 -1.13103
10.61 -1.1365
10.62 -1.13617
10.63 -1.13107
10.64 -1.12082
10.65 -1.10593
10.66 -1.08653
10.67 -1.06248
10.68 -1.03448
10.69 -1.0022
10.7 -0.96654
10.71 -0.92776
10.72 -0.886563
10.73 -0.843818
10.74 -0.80037
10.75 -0.757308
10.76 -0.715818
10.77 -0.677
10.78 -0.641899
10.79 -0.611951
10.8 -0.587432
10.81 -0.570061
10.82 -0.559515
10.83 -0.55657
10.84 -0.561292
10.85 -0.572999
10.86 -0.592164
10.87 -0.617107
10.88 -0.647665
10.89 -0.682425
10.9 -0.720358
10.91 -0.760391
10.92 -0.80125
10.93 -0.841857
10.94 -0.881251
10.95 -0.918525
10.96 -0.95292
10.97 -0.984154
10.98 -1.01139
10.99 -1.03502
11 -1.0546
11.01 -1.07054
11.02 -1.08311
11.03 -1.09248
11.04 -1.09943
11.05 -1.10412
11.06 -1.10735
11.07 -1.10955
11.08 -1.11125
11.09 -1.11291
11.1 -1.115
11.11 -1.11778
11.12 -1.12158
11.13 -1.12647
11.14 -1.13244
11.15 -1.13936
11.16 -1.14683
11.17 -1.15432
11.18 -1.16107
11.19 -1.16606
11.2 -1.16798
11.21 -1.16573
11.22 -1.15684
11.23 -1.14049
11.24 -1.11379
11.25 -1.07529
11.26 -1.02318
11.27 -0.954431
11.28 -0.869416
11.29 -0.764069
11.3 -0.639961
11.31 -0.49546
11.32 -0.330781
11.33 -0.148093
11.34 0.0533125
11.35 0.268564
11.36 0.496227
11.37 0.731609
11.38 0.970688
11.39 1.20838
11.4 1.44019
11.41 1.6594
11.42 1.86233
11.43 2.04313
11.44 2.19685
11.45 2.32183
11.46 2.41039
11.47 2.46551
11.48 2.48188
11.49 2.46175
11.5 2.40613
11.51 2.31477
11.52 2.19439
11.53 2.04458
11.54 1.87343
11.55 1.68432
11.56 1.48293
11.57 1.27494
11.58 1.06536
11.59 0.859091
11.6 0.660992
11.61 0.47444
11.62 0.302105
11.63 0.14732
11.64 0.00920862
11.65 -0.1092
11.66 -0.210752
11.67 -0.295456
11.68 -0.365169
11.69 -0.422882
11.7 -0.469694
11.71 -0.5096
11.72 -0.544327
11.73 -0.576634
11.74 -0.608386
11.75 -0.641312
11.76 -0.676261
11.77 -0.71414
11.78 -0.754565
11.79 -0.79716
11.8 -0.840797
11.81 -0.884103
11.82 -0.925003
11.83 -0.961931
11.84 -0.992275
11.85 -1.01425
11.86 -1.02609
11.87 -1.02512
11.88 -1.01147
11.89 -0.981952
11.9 -0.937831
11.91 -0.877962
11.92 -0.802579
11.93 -0.713404
11.94 -0.609763
11.95 -0.495175
11.96 -0.370233
11.97 -0.237862
11.98 -0.100329
11.99 0.0398514
12 0.17995
12.01 0.316994
12.02 0.4487
12.03 0.572308
12.04 0.685248
12.05 0.786382
12.06 0.871926
12.07 0.942663
12.08 0.995671
12.09 1.03128
12.1 1.04933
12.11 1.04871
12.12 1.03207
12.13 0.997954
12.14 0.94983
12.15 0.888412
12.16 0.815785
12.17 0.734686
12.18 0.646527
12.19 0.554561
12.2 0.460681
12.21 0.367308
12.22 0.276285
12.23 0.189708
12.24 0.108335
12.25 0.0340901
12.26 -0.0332825
12.27 -0.0931755
12.28 -0.145795
12.29 -0.192174
12.3 -0.23242
12.31 -0.268476
12.32 -0.301122
12.33 -0.331952
12.34 -0.362159
12.35 -0.392976
12.36 -0.425167
12.37 -0.459624
12.38 -0.496331
12.39 -0.535293
12.4 -0.575931
