# xPDFsuite Configuration #
[PDF]
wavelength = 0.1432
dataformat = twotheta
inputfile = 1_1Pd_CeO2_cycle-00048.chi
backgroundfile = background-00000.chi
mode = xray
bgscale = 1.007
composition = CeO2
outputtype = gr
qmaxinst = 28.8974762299
qmin = 0.5
qmax = 27.9
rmax = 50.0
rmin = 0.0
rstep = 0.01
rpoly = 1.8657

[Misc]
inputdir = G:/SankarDec16/1Pd/Chi
savedir = D:/DATA/APS_CeO2/1Pd
backgroundfilefull = G:/SankarDec16/Background/background-00000.chi

#### start data
#S 1
#L r($\AA$)  G($\AA^{-2}$)
0 0
0.01 -0.00766353
0.02 -0.0147508
0.03 -0.0206685
0.04 -0.0249693
0.05 -0.0274042
0.06 -0.0275727
0.07 -0.0257402
0.08 -0.0217768
0.09 -0.0161901
0.1 -0.00933046
0.11 -0.0017352
0.12 0.00600837
0.13 0.0132427
0.14 0.0194993
0.15 0.0242062
0.16 0.0270268
0.17 0.0278252
0.18 0.0263259
0.19 0.0229181
0.2 0.0176136
0.21 0.0110034
0.22 0.00352336
0.23 -0.0042237
0.24 -0.0116837
0.25 -0.0181482
0.26 -0.0232779
0.27 -0.026549
0.28 -0.0277508
0.29 -0.0268672
0.3 -0.0237608
0.31 -0.0189266
0.32 -0.012518
0.33 -0.00518244
0.34 0.00257914
0.35 0.0101255
0.36 0.0169617
0.37 0.022361
0.38 0.0261293
0.39 0.0278153
0.4 0.0273442
0.41 0.0248209
0.42 0.0202528
0.43 0.0142184
0.44 0.00700546
0.45 -0.000711115
0.46 -0.00838877
0.47 -0.015377
0.48 -0.0212635
0.49 -0.0253368
0.5 -0.027557
0.51 -0.0275672
0.52 -0.0254322
0.53 -0.0213734
0.54 -0.0155438
0.55 -0.00857862
0.56 -0.000887291
0.57 0.00685878
0.58 0.0141006
0.59 0.0202081
0.6 0.0248713
0.61 0.0274272
0.62 0.0279928
0.63 0.026322
0.64 0.0226174
0.65 0.0172073
0.66 0.0103837
0.67 0.00280971
0.68 -0.00500221
0.69 -0.0124149
0.7 -0.0188789
0.71 -0.0238136
0.72 -0.0270259
0.73 -0.0279321
0.74 -0.0268008
0.75 -0.0235084
0.76 -0.0183855
0.77 -0.0118519
0.78 -0.00432418
0.79 0.00353786
0.8 0.0111444
0.81 0.0179228
0.82 0.0233604
0.83 0.0269548
0.84 0.0286392
0.85 0.0279388
0.86 0.0252599
0.87 0.0206074
0.88 0.0144227
0.89 0.00719382
0.9 -0.00056158
0.91 -0.00822439
0.92 -0.0151646
0.93 -0.0209094
0.94 -0.0250196
0.95 -0.0271098
0.96 -0.0272509
0.97 -0.0251276
0.98 -0.0212664
0.99 -0.0158243
1 -0.00934358
1.01 -0.00236252
1.02 0.00450226
1.03 0.0107182
1.04 0.0156292
1.05 0.0189078
1.06 0.020221
1.07 0.0193419
1.08 0.0165145
1.09 0.0116359
1.1 0.00538022
1.11 -0.00189057
1.12 -0.00949225
1.13 -0.0168044
1.14 -0.0230333
1.15 -0.0277301
1.16 -0.030116
1.17 -0.0299974
1.18 -0.02709
1.19 -0.0212586
1.2 -0.0129412
1.21 -0.00211839
1.22 0.0103055
1.23 0.0238253
1.24 0.0375761
1.25 0.0507961
1.26 0.0624974
1.27 0.0721604
1.28 0.078807
1.29 0.0821952
1.3 0.0819285
1.31 0.0777429
1.32 0.0701055
1.33 0.0587463
1.34 0.0446877
1.35 0.028271
1.36 0.0103527
1.37 -0.00828073
1.38 -0.0267785
1.39 -0.0444219
1.4 -0.0603356
1.41 -0.0740559
1.42 -0.0850803
1.43 -0.092962
1.44 -0.0978734
1.45 -0.0992926
1.46 -0.0978759
1.47 -0.09359
1.48 -0.0868882
1.49 -0.078233
1.5 -0.0679066
1.51 -0.0565285
1.52 -0.0443865
1.53 -0.0319282
1.54 -0.0194403
1.55 -0.00720667
1.56 0.00461659
1.57 0.0157767
1.58 0.0262501
1.59 0.035865
1.6 0.0445368
1.61 0.052202
1.62 0.0586064
1.63 0.0637707
1.64 0.0673422
1.65 0.0692772
1.66 0.0693597
1.67 0.0673424
1.68 0.0633255
1.69 0.0568893
1.7 0.04841
1.71 0.037794
1.72 0.0253311
1.73 0.0113832
1.74 -0.00374107
1.75 -0.0194282
1.76 -0.0351737
1.77 -0.0503801
1.78 -0.0645019
1.79 -0.0769281
1.8 -0.0874442
1.81 -0.0953597
1.82 -0.100897
1.83 -0.103817
1.84 -0.104366
1.85 -0.102931
1.86 -0.0998191
1.87 -0.095778
1.88 -0.0913537
1.89 -0.0872571
1.9 -0.0840851
1.91 -0.0824729
1.92 -0.0826343
1.93 -0.0851595
1.94 -0.0897454
1.95 -0.096435
1.96 -0.104775
1.97 -0.114191
1.98 -0.123991
1.99 -0.133349
2 -0.141272
2.01 -0.146981
2.02 -0.149653
2.03 -0.148409
2.04 -0.14318
2.05 -0.132926
2.06 -0.11832
2.07 -0.0990997
2.08 -0.0758099
2.09 -0.0491438
2.1 -0.0195539
2.11 0.0118263
2.12 0.0443705
2.13 0.0771764
2.14 0.10963
2.15 0.141172
2.16 0.171641
2.17 0.200788
2.18 0.228989
2.19 0.256538
2.2 0.284049
2.21 0.31213
2.22 0.341629
2.23 0.372961
2.24 0.406899
2.25 0.443486
2.26 0.48276
2.27 0.524408
2.28 0.567522
2.29 0.611064
2.3 0.653511
2.31 0.69303
2.32 0.727599
2.33 0.755564
2.34 0.773924
2.35 0.782207
2.36 0.777425
2.37 0.759617
2.38 0.727938
2.39 0.681903
2.4 0.623584
2.41 0.552404
2.42 0.472183
2.43 0.384482
2.44 0.292599
2.45 0.199575
2.46 0.108961
2.47 0.0233978
2.48 -0.0533893
2.49 -0.119666
2.5 -0.173431
2.51 -0.212903
2.52 -0.239164
2.53 -0.250366
2.54 -0.249838
2.55 -0.238236
2.56 -0.218399
2.57 -0.193204
2.58 -0.165472
2.59 -0.138379
2.6 -0.115036
2.61 -0.0977049
2.62 -0.088414
2.63 -0.0890008
2.64 -0.0990548
2.65 -0.120105
2.66 -0.149733
2.67 -0.18731
2.68 -0.230471
2.69 -0.276796
2.7 -0.323674
2.71 -0.368573
2.72 -0.40864
2.73 -0.442142
2.74 -0.467428
2.75 -0.483084
2.76 -0.489818
2.77 -0.486557
2.78 -0.475817
2.79 -0.458503
2.8 -0.437039
2.81 -0.413776
2.82 -0.391354
2.83 -0.371933
2.84 -0.358186
2.85 -0.351384
2.86 -0.352772
2.87 -0.363231
2.88 -0.381666
2.89 -0.408441
2.9 -0.440848
2.91 -0.477444
2.92 -0.515572
2.93 -0.55284
2.94 -0.586263
2.95 -0.614153
2.96 -0.633714
2.97 -0.644237
2.98 -0.644825
2.99 -0.63506
3 -0.616639
3.01 -0.589695
3.02 -0.557454
3.03 -0.52183
3.04 -0.485841
3.05 -0.452056
3.06 -0.423753
3.07 -0.402402
3.08 -0.390849
3.09 -0.389428
3.1 -0.398741
3.11 -0.418804
3.12 -0.4475
3.13 -0.484224
3.14 -0.525465
3.15 -0.568967
3.16 -0.611567
3.17 -0.650735
3.18 -0.6832
3.19 -0.70792
3.2 -0.722399
3.21 -0.726915
3.22 -0.721486
3.23 -0.706903
3.24 -0.685762
3.25 -0.659792
3.26 -0.63261
3.27 -0.607215
3.28 -0.586955
3.29 -0.574223
3.3 -0.572566
3.31 -0.582079
3.32 -0.605073
3.33 -0.640161
3.34 -0.686471
3.35 -0.742096
3.36 -0.803447
3.37 -0.86744
3.38 -0.92982
3.39 -0.986544
3.4 -1.03373
3.41 -1.06889
3.42 -1.08795
3.43 -1.09171
3.44 -1.07794
3.45 -1.04921
3.46 -1.00732
3.47 -0.955397
3.48 -0.898195
3.49 -0.840198
3.5 -0.786369
3.51 -0.741666
3.52 -0.710223
3.53 -0.694185
3.54 -0.697161
3.55 -0.716617
3.56 -0.752778
3.57 -0.800264
3.58 -0.853989
3.59 -0.906097
3.6 -0.949009
3.61 -0.970236
3.62 -0.963027
3.63 -0.915208
3.64 -0.818081
3.65 -0.667032
3.66 -0.449559
3.67 -0.171442
3.68 0.175775
3.69 0.58331
3.7 1.04684
3.71 1.55884
3.72 2.1038
3.73 2.67125
3.74 3.24217
3.75 3.80021
3.76 4.32686
3.77 4.80805
3.78 5.22048
3.79 5.55998
3.8 5.80476
3.81 5.95422
3.82 6.00186
3.83 5.94193
3.84 5.78777
3.85 5.53027
3.86 5.19348
3.87 4.782
3.88 4.31287
3.89 3.80313
3.9 3.26695
3.91 2.72339
3.92 2.18806
3.93 1.6752
3.94 1.19698
3.95 0.766137
3.96 0.384459
3.97 0.0655535
3.98 -0.197788
3.99 -0.401393
4 -0.550095
4.01 -0.651243
4.02 -0.707083
4.03 -0.730939
4.04 -0.72725
4.05 -0.706921
4.06 -0.67696
4.07 -0.644656
4.08 -0.615442
4.09 -0.594839
4.1 -0.584468
4.11 -0.586592
4.12 -0.600933
4.13 -0.625796
4.14 -0.65987
4.15 -0.699169
4.16 -0.740867
4.17 -0.781159
4.18 -0.816895
4.19 -0.844606
4.2 -0.862986
4.21 -0.868535
4.22 -0.862157
4.23 -0.842602
4.24 -0.810689
4.25 -0.767987
4.26 -0.714971
4.27 -0.654697
4.28 -0.588204
4.29 -0.517948
4.3 -0.44545
4.31 -0.372182
4.32 -0.299188
4.33 -0.227313
4.34 -0.156733
4.35 -0.0875987
4.36 -0.01968
4.37 0.0473606
4.38 0.113782
4.39 0.179872
4.4 0.245606
4.41 0.310746
4.42 0.374739
4.43 0.436513
4.44 0.495194
4.45 0.548553
4.46 0.595671
4.47 0.634272
4.48 0.662687
4.49 0.680009
4.5 0.683516
4.51 0.674237
4.52 0.650085
4.53 0.612471
4.54 0.561831
4.55 0.498963
4.56 0.426693
4.57 0.345852
4.58 0.260035
4.59 0.171287
4.6 0.082425
4.61 -0.00434019
4.62 -0.0862918
4.63 -0.162373
4.64 -0.230396
4.65 -0.290159
4.66 -0.341219
4.67 -0.383378
4.68 -0.418132
4.69 -0.445374
4.7 -0.467434
4.71 -0.485254
4.72 -0.500514
4.73 -0.514615
4.74 -0.528824
4.75 -0.544044
4.76 -0.561092
4.77 -0.580139
4.78 -0.601183
4.79 -0.623926
4.8 -0.647634
4.81 -0.671546
4.82 -0.694715
4.83 -0.716157
4.84 -0.734963
4.85 -0.750603
4.86 -0.762118
4.87 -0.769815
4.88 -0.773213
4.89 -0.772978
4.9 -0.769566
4.91 -0.763669
4.92 -0.756356
4.93 -0.748492
4.94 -0.741115
4.95 -0.735136
4.96 -0.731336
4.97 -0.730115
4.98 -0.732162
4.99 -0.737133
5 -0.745275
5.01 -0.755982
5.02 -0.768827
5.03 -0.783243
5.04 -0.798479
5.05 -0.813946
5.06 -0.829042
5.07 -0.843282
5.08 -0.856319
5.09 -0.868034
5.1 -0.878183
5.11 -0.886992
5.12 -0.894347
5.13 -0.900408
5.14 -0.905111
5.15 -0.908171
5.16 -0.909394
5.17 -0.907716
5.18 -0.902599
5.19 -0.892546
5.2 -0.876064
5.21 -0.851981
5.22 -0.817398
5.23 -0.772075
5.24 -0.712937
5.25 -0.639753
5.26 -0.55148
5.27 -0.44703
5.28 -0.328397
5.29 -0.194411
5.3 -0.0490472
5.31 0.106127
5.32 0.267336
5.33 0.43069
5.34 0.591391
5.35 0.745312
5.36 0.886507
5.37 1.01112
5.38 1.11482
5.39 1.19242
5.4 1.24396
5.41 1.26278
5.42 1.25245
5.43 1.21063
5.44 1.13926
5.45 1.04202
5.46 0.919621
5.47 0.779374
5.48 0.623943
5.49 0.459925
5.5 0.29217
5.51 0.126277
5.52 -0.0335924
5.53 -0.1816
5.54 -0.315907
5.55 -0.432796
5.56 -0.530767
5.57 -0.61016
5.58 -0.668995
5.59 -0.711034
5.6 -0.735926
5.61 -0.74743
5.62 -0.747818
5.63 -0.739613
5.64 -0.726143
5.65 -0.709283
5.66 -0.691506
5.67 -0.674185
5.68 -0.658294
5.69 -0.644038
5.7 -0.631308
5.71 -0.619165
5.72 -0.606466
5.73 -0.591784
5.74 -0.573686
5.75 -0.55041
5.76 -0.521426
5.77 -0.484843
5.78 -0.441368
5.79 -0.390618
5.8 -0.333558
5.81 -0.271729
5.82 -0.206651
5.83 -0.140886
5.84 -0.0769736
5.85 -0.017511
5.86 0.035013
5.87 0.0775951
5.88 0.109463
5.89 0.127096
5.9 0.13152
5.91 0.121341
5.92 0.0971982
5.93 0.0607412
5.94 0.0122676
5.95 -0.0446767
5.96 -0.108723
5.97 -0.176661
5.98 -0.24614
5.99 -0.314539
6 -0.380043
6.01 -0.44021
6.02 -0.494547
6.03 -0.5419
6.04 -0.582235
6.05 -0.616271
6.06 -0.644198
6.07 -0.667968
6.08 -0.688528
6.09 -0.707712
6.1 -0.726884
6.11 -0.747487
6.12 -0.770279
6.13 -0.796337
6.14 -0.825403
6.15 -0.857476
6.16 -0.891779
6.17 -0.927252
6.18 -0.962542
6.19 -0.996283
6.2 -1.02672
6.21 -1.05267
6.22 -1.07302
6.23 -1.08658
6.24 -1.09375
6.25 -1.09358
6.26 -1.08766
6.27 -1.07647
6.28 -1.06157
6.29 -1.04457
6.3 -1.02705
6.31 -1.01051
6.32 -0.996322
6.33 -0.985021
6.34 -0.976697
6.35 -0.970701
6.36 -0.965369
6.37 -0.958034
6.38 -0.945663
6.39 -0.92388
6.4 -0.887808
6.41 -0.833688
6.42 -0.753467
6.43 -0.646015
6.44 -0.503238
6.45 -0.324197
6.46 -0.106229
6.47 0.153804
6.48 0.450869
6.49 0.788454
6.5 1.15691
6.51 1.55304
6.52 1.96832
6.53 2.39362
6.54 2.81874
6.55 3.23347
6.56 3.62489
6.57 3.98335
6.58 4.29871
6.59 4.5582
6.6 4.76057
6.61 4.88932
6.62 4.95027
6.63 4.93596
6.64 4.84784
6.65 4.69234
6.66 4.46659
6.67 4.18652
6.68 3.85391
6.69 3.48299
6.7 3.08331
6.71 2.66576
6.72 2.24231
6.73 1.82405
6.74 1.42011
6.75 1.04009
6.76 0.691486
6.77 0.377651
6.78 0.107339
6.79 -0.123351
6.8 -0.308894
6.81 -0.453966
6.82 -0.560506
6.83 -0.630507
6.84 -0.671907
6.85 -0.685575
6.86 -0.680411
6.87 -0.659831
6.88 -0.629216
6.89 -0.592994
6.9 -0.554576
6.91 -0.516951
6.92 -0.48234
6.93 -0.451839
6.94 -0.426027
6.95 -0.405148
6.96 -0.388261
6.97 -0.375185
6.98 -0.364531
6.99 -0.355661
7 -0.347787
7.01 -0.340434
7.02 -0.333509
7.03 -0.327152
7.04 -0.322008
7.05 -0.318863
7.06 -0.318722
7.07 -0.323053
7.08 -0.332434
7.09 -0.348883
7.1 -0.372266
7.11 -0.403615
7.12 -0.442919
7.13 -0.489404
7.14 -0.543031
7.15 -0.601627
7.16 -0.664119
7.17 -0.728189
7.18 -0.79187
7.19 -0.852717
7.2 -0.909147
7.21 -0.95833
7.22 -0.999716
7.23 -1.03163
7.24 -1.05359
7.25 -1.06612
7.26 -1.06865
7.27 -1.06352
7.28 -1.05131
7.29 -1.03444
7.3 -1.01475
7.31 -0.994388
7.32 -0.975207
7.33 -0.959312
7.34 -0.947556
7.35 -0.941023
7.36 -0.939848
7.37 -0.943315
7.38 -0.950747
7.39 -0.959969
7.4 -0.968867
7.41 -0.974684
7.42 -0.974657
7.43 -0.96509
7.44 -0.944363
7.45 -0.907656
7.46 -0.854906
7.47 -0.7833
7.48 -0.692125
7.49 -0.582463
7.5 -0.452904
7.51 -0.307769
7.52 -0.147683
7.53 0.0228383
7.54 0.20027
7.55 0.380176
7.56 0.558137
7.57 0.728587
7.58 0.887989
7.59 1.03137
7.6 1.15485
7.61 1.25676
7.62 1.33161
7.63 1.38161
7.64 1.40286
7.65 1.39767
7.66 1.36673
7.67 1.31053
7.68 1.23395
7.69 1.13692
7.7 1.02546
7.71 0.901844
7.72 0.770178
7.73 0.634211
7.74 0.497388
7.75 0.362916
7.76 0.234132
7.77 0.113282
7.78 0.00242146
7.79 -0.095978
7.8 -0.182113
7.81 -0.253013
7.82 -0.310234
7.83 -0.352614
7.84 -0.38056
7.85 -0.395388
7.86 -0.396317
7.87 -0.386219
7.88 -0.364967
7.89 -0.334865
7.9 -0.297334
7.91 -0.253888
7.92 -0.206848
7.93 -0.157812
7.94 -0.109042
7.95 -0.0625095
7.96 -0.0203328
7.97 0.0160423
7.98 0.0438912
7.99 0.0629442
8 0.0708116
8.01 0.0673843
8.02 0.0521197
8.03 0.0242544
8.04 -0.014512
8.05 -0.0650576
8.06 -0.124609
8.07 -0.192323
8.08 -0.266072
8.09 -0.343602
8.1 -0.422866
8.11 -0.501515
8.12 -0.577289
8.13 -0.648422
8.14 -0.713413
8.15 -0.77059
8.16 -0.820139
8.17 -0.860533
8.18 -0.893199
8.19 -0.918182
8.2 -0.936658
8.21 -0.950175
8.22 -0.959722
8.23 -0.967207
8.24 -0.973704
8.25 -0.980337
8.26 -0.987662
8.27 -0.995801
8.28 -1.00419
8.29 -1.01154
8.3 -1.01618
8.31 -1.01552
8.32 -1.00645
8.33 -0.986487
8.34 -0.950203
8.35 -0.896491
8.36 -0.81973
8.37 -0.718589
8.38 -0.590869
8.39 -0.433501
8.4 -0.249411
8.41 -0.0351468
8.42 0.203322
8.43 0.464688
8.44 0.743965
8.45 1.03513
8.46 1.33242
8.47 1.62826
8.48 1.91471
8.49 2.18446
8.5 2.43044
8.51 2.64342
8.52 2.82134
8.53 2.95267
8.54 3.0395
8.55 3.076
8.56 3.06145
8.57 2.99939
8.58 2.88596
8.59 2.73154
8.6 2.53589
8.61 2.30809
8.62 2.05424
8.63 1.78093
8.64 1.49711
8.65 1.20948
8.66 0.925713
8.67 0.652474
8.68 0.395949
8.69 0.159461
8.7 -0.0501345
8.71 -0.23416
8.72 -0.388061
8.73 -0.513842
8.74 -0.612257
8.75 -0.683789
8.76 -0.733808
8.77 -0.762478
8.78 -0.776223
8.79 -0.777625
8.8 -0.770909
8.81 -0.759841
8.82 -0.747581
8.83 -0.736949
8.84 -0.730436
8.85 -0.72943
8.86 -0.734863
8.87 -0.747533
8.88 -0.766478
8.89 -0.791965
8.9 -0.822093
8.91 -0.855922
8.92 -0.891822
8.93 -0.928288
8.94 -0.963724
8.95 -0.997029
8.96 -1.02683
8.97 -1.05254
8.98 -1.07371
8.99 -1.08988
9 -1.10173
9.01 -1.10904
9.02 -1.11302
9.03 -1.11418
9.04 -1.11349
9.05 -1.11181
9.06 -1.10993
9.07 -1.10848
9.08 -1.10794
9.09 -1.10846
9.1 -1.10994
9.11 -1.11204
9.12 -1.1141
9.13 -1.11513
9.14 -1.11418
9.15 -1.10994
9.16 -1.10106
9.17 -1.08669
9.18 -1.06482
9.19 -1.03559
9.2 -0.997356
9.21 -0.950393
9.22 -0.894699
9.23 -0.830225
9.24 -0.758715
9.25 -0.68044
9.26 -0.597906
9.27 -0.512679
9.28 -0.427142
9.29 -0.343408
9.3 -0.264427
9.31 -0.191736
9.32 -0.128307
9.33 -0.0754248
9.34 -0.0344834
9.35 -0.00735469
9.36 0.00702431
9.37 0.0066322
9.38 -0.00606105
9.39 -0.0308928
9.4 -0.0661036
9.41 -0.109283
9.42 -0.158934
9.43 -0.211845
9.44 -0.265871
9.45 -0.31841
9.46 -0.36739
9.47 -0.410443
9.48 -0.446842
9.49 -0.474341
9.5 -0.493545
9.51 -0.503851
9.52 -0.505858
9.53 -0.500966
9.54 -0.489813
9.55 -0.474862
9.56 -0.457548
9.57 -0.440051
9.58 -0.424109
9.59 -0.411723
9.6 -0.403797
9.61 -0.402245
9.62 -0.406912
9.63 -0.418456
9.64 -0.43661
9.65 -0.4604
9.66 -0.489496
9.67 -0.522006
9.68 -0.556951
9.69 -0.592689
9.7 -0.627971
9.71 -0.661448
9.72 -0.692472
9.73 -0.71996
9.74 -0.744086
9.75 -0.764674
9.76 -0.782138
9.77 -0.797215
9.78 -0.810419
9.79 -0.82272
9.8 -0.83464
9.81 -0.846572
9.82 -0.858476
9.83 -0.869724
9.84 -0.879335
9.85 -0.885024
9.86 -0.884794
9.87 -0.875224
9.88 -0.852419
9.89 -0.813628
9.9 -0.751878
9.91 -0.666375
9.92 -0.550166
9.93 -0.401804
9.94 -0.218872
9.95 0.00255379
9.96 0.258482
9.97 0.553251
9.98 0.879384
9.99 1.23519
10 1.61458
10.01 2.0099
10.02 2.41421
10.03 2.81781
10.04 3.21098
10.05 3.58435
10.06 3.92916
10.07 4.23363
10.08 4.495
10.09 4.69891
10.1 4.84738
10.11 4.93318
10.12 4.9548
10.13 4.91671
10.14 4.81332
10.15 4.65757
10.16 4.44875
10.17 4.19769
10.18 3.91181
10.19 3.59856
10.2 3.26916
10.21 2.93092
10.22 2.59349
10.23 2.26437
10.24 1.95091
10.25 1.65707
10.26 1.39041
10.27 1.1498
10.28 0.939916
10.29 0.758793
10.3 0.605383
10.31 0.479094
10.32 0.374224
10.33 0.290296
10.34 0.220847
10.35 0.16313
10.36 0.113026
10.37 0.0669332
10.38 0.0220036
10.39 -0.024202
10.4 -0.0736248
10.41 -0.127197
10.42 -0.185351
10.43 -0.248284
10.44 -0.314949
10.45 -0.384907
10.46 -0.456566
10.47 -0.528785
10.48 -0.600127
10.49 -0.669528
10.5 -0.735463
10.51 -0.79756
10.52 -0.85466
10.53 -0.906628
10.54 -0.953251
10.55 -0.994107
10.56 -1.0299
10.57 -1.05998
10.58 -1.08521
10.59 -1.10538
10.6 -1.12059
10.61 -1.13115
10.62 -1.13632
10.63 -1.13669
10.64 -1.13142
10.65 -1.12065
10.66 -1.10419
10.67 -1.08155
10.68 -1.05343
10.69 -1.0192
10.7 -0.980046
10.71 -0.936254
10.72 -0.888808
10.73 -0.838957
10.74 -0.787871
10.75 -0.737117
10.76 -0.688318
10.77 -0.642979
10.78 -0.602485
10.79 -0.568681
10.8 -0.541868
10.81 -0.524145
10.82 -0.514964
10.83 -0.515133
10.84 -0.524523
10.85 -0.542113
10.86 -0.568172
10.87 -0.60053
10.88 -0.63869
10.89 -0.680827
10.9 -0.725583
10.91 -0.771506
10.92 -0.817201
10.93 -0.861241
10.94 -0.902751
10.95 -0.940734
10.96 -0.974514
10.97 -1.00403
10.98 -1.02852
10.99 -1.04875
11 -1.06447
11.01 -1.07639
11.02 -1.08502
11.03 -1.09079
11.04 -1.0946
11.05 -1.09683
11.06 -1.09828
11.07 -1.09942
11.08 -1.10077
11.09 -1.10267
11.1 -1.10555
11.11 -1.10947
11.12 -1.11466
11.13 -1.12103
11.14 -1.12846
11.15 -1.13673
11.16 -1.14537
11.17 -1.15378
11.18 -1.16123
11.19 -1.16672
11.2 -1.16896
11.21 -1.16693
11.22 -1.15822
11.23 -1.14205
11.24 -1.11557
11.25 -1.07735
11.26 -1.02556
11.27 -0.957135
11.28 -0.872385
11.29 -0.767137
11.3 -0.642879
11.31 -0.497861
11.32 -0.332192
11.33 -0.148003
11.34 0.0555409
11.35 0.273482
11.36 0.504407
11.37 0.743485
11.38 0.986557
11.39 1.22833
11.4 1.46411
11.41 1.68685
11.42 1.89265
11.43 2.07537
11.44 2.22981
11.45 2.35423
11.46 2.44062
11.47 2.49215
11.48 2.50337
11.49 2.47678
11.5 2.41358
11.51 2.31378
11.52 2.18451
11.53 2.02577
11.54 1.84607
11.55 1.64923
11.56 1.44137
11.57 1.22837
11.58 1.01578
11.59 0.80837
11.6 0.611283
11.61 0.427706
11.62 0.260143
11.63 0.111742
11.64 -0.0188879
11.65 -0.129025
11.66 -0.22209
11.67 -0.298545
11.68 -0.360753
11.69 -0.412032
11.7 -0.454022
11.71 -0.490721
11.72 -0.524178
11.73 -0.557034
11.74 -0.591031
11.75 -0.62775
11.76 -0.667558
11.77 -0.711072
11.78 -0.757349
11.79 -0.805568
11.8 -0.854103
11.81 -0.901263
11.82 -0.944444
11.83 -0.982085
11.84 -1.01127
11.85 -1.03037
11.86 -1.03774
11.87 -1.03089
11.88 -1.01047
11.89 -0.973617
11.9 -0.922157
11.91 -0.855422
11.92 -0.77416
11.93 -0.680397
11.94 -0.574016
11.95 -0.458479
11.96 -0.334683
11.97 -0.205369
11.98 -0.0726235
11.99 0.0612585
12 0.194091
12.01 0.323277
12.02 0.447128
12.03 0.563386
12.04 0.67001
12.05 0.766166
12.06 0.848628
12.07 0.918096
12.08 0.97192
12.09 1.01021
12.1 1.03258
12.11 1.03766
12.12 1.02751
12.13 1.00024
12.14 0.958708
12.15 0.903107
12.16 0.83498
12.17 0.756791
12.18 0.669393
12.19 0.5762
12.2 0.478874
12.21 0.380142
12.22 0.282145
12.23 0.187357
12.24 0.0971725
12.25 0.0140866
12.26 -0.0615233
12.27 -0.128432
12.28 -0.186258
12.29 -0.235774
12.3 -0.276454
12.31 -0.310499
12.32 -0.338445
12.33 -0.362282
12.34 -0.383579
12.35 -0.404023
12.36 -0.42513
12.37 -0.448459
12.38 -0.474726
12.39 -0.504647
12.4 -0.538317
