# xPDFsuite Configuration #
[PDF]
wavelength = 0.1432
dataformat = twotheta
inputfile = 1_1Pd_CeO2_cycle-00141.chi
backgroundfile = background-00000.chi
mode = xray
bgscale = 1.007
composition = CeO2
outputtype = gr
qmaxinst = 28.8974762299
qmin = 0.5
qmax = 27.9
rmax = 50.0
rmin = 0.0
rstep = 0.01
rpoly = 1.8657

[Misc]
inputdir = G:/SankarDec16/1Pd/Chi
savedir = D:/DATA/APS_CeO2/1Pd
backgroundfilefull = G:/SankarDec16/Background/background-00000.chi

#### start data
#S 1
#L r($\AA$)  G($\AA^{-2}$)
0 0
0.01 -0.00634575
0.02 -0.0122136
0.03 -0.0171114
0.04 -0.0206685
0.05 -0.0226786
0.06 -0.0228102
0.07 -0.0212838
0.08 -0.017993
0.09 -0.0133589
0.1 -0.00767317
0.11 -0.00138198
0.12 0.00502782
0.13 0.0110103
0.14 0.0161782
0.15 0.0200581
0.16 0.0223721
0.17 0.0230095
0.18 0.021744
0.19 0.0189
0.2 0.0144899
0.21 0.00900497
0.22 0.00280779
0.23 -0.00360078
0.24 -0.00976259
0.25 -0.0150897
0.26 -0.0193043
0.27 -0.0219737
0.28 -0.0229268
0.29 -0.0221533
0.3 -0.0195434
0.31 -0.0155099
0.32 -0.0101838
0.33 -0.00410275
0.34 0.00231679
0.35 0.00854297
0.36 0.0141684
0.37 0.0185913
0.38 0.0216561
0.39 0.0229925
0.4 0.0225437
0.41 0.0204009
0.42 0.0165762
0.43 0.011551
0.44 0.00556873
0.45 -0.000811765
0.46 -0.00714039
0.47 -0.0128794
0.48 -0.0176918
0.49 -0.020991
0.5 -0.0227512
0.51 -0.0226822
0.52 -0.0208446
0.53 -0.0174269
0.54 -0.0125627
0.55 -0.00677939
0.56 -0.000420973
0.57 0.00595881
0.58 0.011898
0.59 0.0168785
0.6 0.0206501
0.61 0.0226696
0.62 0.0230423
0.63 0.0215723
0.64 0.0184349
0.65 0.0139071
0.66 0.00823804
0.67 0.00197568
0.68 -0.00445153
0.69 -0.0105213
0.7 -0.015782
0.71 -0.0197595
0.72 -0.0223027
0.73 -0.0229371
0.74 -0.0218941
0.75 -0.0190808
0.76 -0.0147783
0.77 -0.00933795
0.78 -0.00311135
0.79 0.00335975
0.8 0.00958527
0.81 0.0150996
0.82 0.019485
0.83 0.0223348
0.84 0.023604
0.85 0.0229116
0.86 0.0206011
0.87 0.0166867
0.88 0.0115384
0.89 0.00556124
0.9 -0.000813651
0.91 -0.00708278
0.92 -0.0127288
0.93 -0.0173733
0.94 -0.0206642
0.95 -0.0222974
0.96 -0.0223422
0.97 -0.020556
0.98 -0.0173778
0.99 -0.0129485
1 -0.0077175
1.01 -0.00212591
1.02 0.00331897
1.03 0.00819452
1.04 0.0119713
1.05 0.0144014
1.06 0.015231
1.07 0.0143003
1.08 0.0118273
1.09 0.00776459
1.1 0.00267242
1.11 -0.00312486
1.12 -0.0090564
1.13 -0.0146128
1.14 -0.0191292
1.15 -0.0222652
1.16 -0.023382
1.17 -0.0223567
1.18 -0.0189824
1.19 -0.0131862
1.2 -0.00536545
1.21 0.0044434
1.22 0.0154656
1.23 0.0272343
1.24 0.0390019
1.25 0.0501182
1.26 0.0597166
1.27 0.0673848
1.28 0.0722706
1.29 0.0741994
1.3 0.0728433
1.31 0.0679932
1.32 0.0600829
1.33 0.0488925
1.34 0.0353384
1.35 0.0197376
1.36 0.00285994
1.37 -0.0145883
1.38 -0.03183
1.39 -0.048222
1.4 -0.0629525
1.41 -0.0755956
1.42 -0.0856742
1.43 -0.0927527
1.44 -0.0969788
1.45 -0.0978217
1.46 -0.0958873
1.47 -0.0911109
1.48 -0.083907
1.49 -0.0747139
1.5 -0.0637951
1.51 -0.0517808
1.52 -0.0389776
1.53 -0.0258788
1.54 -0.0128275
1.55 -0.000189107
1.56 0.0118273
1.57 0.0228451
1.58 0.0328258
1.59 0.0415158
1.6 0.0488192
1.61 0.054698
1.62 0.0589037
1.63 0.0615862
1.64 0.0624778
1.65 0.0617048
1.66 0.0592117
1.67 0.0549595
1.68 0.0491797
1.69 0.0417339
1.7 0.0330321
1.71 0.0231669
1.72 0.0124667
1.73 0.00125813
1.74 -0.0101079
1.75 -0.0212595
1.76 -0.0317726
1.77 -0.0413487
1.78 -0.0496847
1.79 -0.0564898
1.8 -0.0618031
1.81 -0.0653442
1.82 -0.0674742
1.83 -0.0682659
1.84 -0.068102
1.85 -0.0673939
1.86 -0.066617
1.87 -0.0662473
1.88 -0.0668576
1.89 -0.0688097
1.9 -0.0724664
1.91 -0.0781379
1.92 -0.0856859
1.93 -0.09532
1.94 -0.106454
1.95 -0.118788
1.96 -0.131638
1.97 -0.14432
1.98 -0.155892
1.99 -0.165707
2 -0.172653
2.01 -0.176215
2.02 -0.175721
2.03 -0.170514
2.04 -0.160841
2.05 -0.145892
2.06 -0.126636
2.07 -0.103047
2.08 -0.0758697
2.09 -0.0459091
2.1 -0.0137779
2.11 0.0194648
2.12 0.0531335
2.13 0.0864757
2.14 0.118973
2.15 0.150204
2.16 0.180173
2.17 0.20876
2.18 0.236463
2.19 0.263658
2.2 0.290998
2.21 0.319069
2.22 0.348674
2.23 0.380119
2.24 0.41404
2.25 0.45034
2.26 0.488912
2.27 0.529281
2.28 0.570512
2.29 0.611405
2.3 0.650567
2.31 0.686183
2.32 0.716414
2.33 0.739824
2.34 0.753699
2.35 0.757854
2.36 0.749704
2.37 0.729561
2.38 0.696883
2.39 0.651507
2.4 0.595483
2.41 0.528586
2.42 0.454294
2.43 0.374156
2.44 0.291119
2.45 0.207806
2.46 0.127315
2.47 0.0517139
2.48 -0.0159079
2.49 -0.0743432
2.5 -0.12213
2.51 -0.15807
2.52 -0.183311
2.53 -0.196679
2.54 -0.201088
2.55 -0.197339
2.56 -0.187884
2.57 -0.175087
2.58 -0.161326
2.59 -0.148922
2.6 -0.140282
2.61 -0.136856
2.62 -0.139936
2.63 -0.150531
2.64 -0.16795
2.65 -0.192776
2.66 -0.222867
2.67 -0.257226
2.68 -0.293742
2.69 -0.330452
2.7 -0.365005
2.71 -0.395842
2.72 -0.420687
2.73 -0.438762
2.74 -0.449197
2.75 -0.45148
2.76 -0.4468
2.77 -0.435067
2.78 -0.418762
2.79 -0.399269
2.8 -0.37893
2.81 -0.359782
2.82 -0.344369
2.83 -0.333974
2.84 -0.330858
2.85 -0.335403
2.86 -0.348163
2.87 -0.369219
2.88 -0.39697
2.89 -0.430943
2.9 -0.46836
2.91 -0.507363
2.92 -0.545327
2.93 -0.580111
2.94 -0.608832
2.95 -0.630522
2.96 -0.642779
2.97 -0.645641
2.98 -0.638808
2.99 -0.622554
3 -0.598963
3.01 -0.568877
3.02 -0.535502
3.03 -0.501049
3.04 -0.468416
3.05 -0.439869
3.06 -0.418469
3.07 -0.405001
3.08 -0.401827
3.09 -0.40859
3.1 -0.425303
3.11 -0.451314
3.12 -0.484223
3.13 -0.522721
3.14 -0.563457
3.15 -0.603935
3.16 -0.641208
3.17 -0.673125
3.18 -0.696714
3.19 -0.711672
3.2 -0.716051
3.21 -0.710843
3.22 -0.696678
3.23 -0.67503
3.24 -0.648749
3.25 -0.620272
3.26 -0.593007
3.27 -0.570169
3.28 -0.55485
3.29 -0.549029
3.3 -0.555926
3.31 -0.574873
3.32 -0.607618
3.33 -0.652056
3.34 -0.706707
3.35 -0.768997
3.36 -0.835099
3.37 -0.901247
3.38 -0.963419
3.39 -1.01738
3.4 -1.05952
3.41 -1.08778
3.42 -1.0984
3.43 -1.09296
3.44 -1.06973
3.45 -1.03199
3.46 -0.98211
3.47 -0.923813
3.48 -0.862056
3.49 -0.801925
3.5 -0.74813
3.51 -0.705763
3.52 -0.678664
3.53 -0.668557
3.54 -0.678693
3.55 -0.705865
3.56 -0.749762
3.57 -0.804415
3.58 -0.864243
3.59 -0.920878
3.6 -0.966631
3.61 -0.988549
3.62 -0.980194
3.63 -0.929373
3.64 -0.827754
3.65 -0.67117
3.66 -0.447572
3.67 -0.163337
3.68 0.189404
3.69 0.60138
3.7 1.06784
3.71 1.58081
3.72 2.12483
3.73 2.68905
3.74 3.25491
3.75 3.80617
3.76 4.3248
3.77 4.79728
3.78 5.20088
3.79 5.53204
3.8 5.76967
3.81 5.91361
3.82 5.95784
3.83 5.89699
3.84 5.7443
3.85 5.49103
3.86 5.16063
3.87 4.75755
3.88 4.29825
3.89 3.79915
3.9 3.27377
3.91 2.74049
3.92 2.21419
3.93 1.70862
3.94 1.23546
3.95 0.80704
3.96 0.42527
3.97 0.103381
3.98 -0.165206
3.99 -0.376151
4 -0.533682
4.01 -0.644517
4.02 -0.710228
4.03 -0.743464
4.04 -0.747911
4.05 -0.733986
4.06 -0.708242
4.07 -0.67754
4.08 -0.647468
4.09 -0.623193
4.1 -0.606974
4.11 -0.601264
4.12 -0.606399
4.13 -0.621322
4.14 -0.645413
4.15 -0.675342
4.16 -0.709047
4.17 -0.743192
4.18 -0.775077
4.19 -0.801653
4.2 -0.821442
4.21 -0.831299
4.22 -0.831478
4.23 -0.820541
4.24 -0.798694
4.25 -0.766868
4.26 -0.724861
4.27 -0.675066
4.28 -0.617771
4.29 -0.554954
4.3 -0.487678
4.31 -0.416976
4.32 -0.344039
4.33 -0.269316
4.34 -0.19359
4.35 -0.117138
4.36 -0.0402776
4.37 0.0367437
4.38 0.113612
4.39 0.189967
4.4 0.26514
4.41 0.338421
4.42 0.408835
4.43 0.4749
4.44 0.535821
4.45 0.589005
4.46 0.634003
4.47 0.668616
4.48 0.6916
4.49 0.70251
4.5 0.699053
4.51 0.682783
4.52 0.652087
4.53 0.608746
4.54 0.553502
4.55 0.487434
4.56 0.413308
4.57 0.332153
4.58 0.247217
4.59 0.160431
4.6 0.0742679
4.61 -0.00940981
4.62 -0.088252
4.63 -0.161534
4.64 -0.227437
4.65 -0.285955
4.66 -0.336818
4.67 -0.379951
4.68 -0.416704
4.69 -0.447004
4.7 -0.472822
4.71 -0.494895
4.72 -0.514541
4.73 -0.532845
4.74 -0.550668
4.75 -0.568699
4.76 -0.587388
4.77 -0.606817
4.78 -0.626879
4.79 -0.647216
4.8 -0.667333
4.81 -0.68648
4.82 -0.704136
4.83 -0.719562
4.84 -0.732239
4.85 -0.741973
4.86 -0.748229
4.87 -0.75152
4.88 -0.751744
4.89 -0.749647
4.9 -0.745794
4.91 -0.740945
4.92 -0.735934
4.93 -0.731646
4.94 -0.728705
4.95 -0.727813
4.96 -0.729391
4.97 -0.733524
4.98 -0.740532
4.99 -0.74985
5 -0.761391
5.01 -0.774438
5.02 -0.788448
5.03 -0.802753
5.04 -0.816772
5.05 -0.829845
5.06 -0.841696
5.07 -0.851962
5.08 -0.860561
5.09 -0.867618
5.1 -0.873139
5.11 -0.877558
5.12 -0.880997
5.13 -0.883737
5.14 -0.885833
5.15 -0.887107
5.16 -0.8873
5.17 -0.885457
5.18 -0.880869
5.19 -0.872023
5.2 -0.857314
5.21 -0.835449
5.22 -0.803462
5.23 -0.760973
5.24 -0.704844
5.25 -0.634749
5.26 -0.54959
5.27 -0.448217
5.28 -0.332589
5.29 -0.201475
5.3 -0.0588276
5.31 0.093842
5.32 0.252809
5.33 0.414223
5.34 0.573393
5.35 0.726203
5.36 0.866832
5.37 0.991441
5.38 1.09576
5.39 1.17465
5.4 1.22811
5.41 1.24952
5.42 1.24231
5.43 1.20408
5.44 1.13664
5.45 1.04347
5.46 0.925121
5.47 0.788702
5.48 0.636641
5.49 0.475375
5.5 0.309588
5.51 0.144695
5.52 -0.0151168
5.53 -0.164199
5.54 -0.300527
5.55 -0.420372
5.56 -0.522061
5.57 -0.605712
5.58 -0.66914
5.59 -0.715815
5.6 -0.745105
5.61 -0.760517
5.62 -0.764093
5.63 -0.758101
5.64 -0.745849
5.65 -0.72896
5.66 -0.710079
5.67 -0.690556
5.68 -0.671534
5.69 -0.653449
5.7 -0.636388
5.71 -0.619743
5.72 -0.602651
5.73 -0.583973
5.74 -0.562521
5.75 -0.536805
5.76 -0.506337
5.77 -0.469486
5.78 -0.4268
5.79 -0.377924
5.8 -0.323661
5.81 -0.265325
5.82 -0.204247
5.83 -0.142661
5.84 -0.0828364
5.85 -0.0270926
5.86 0.022316
5.87 0.0626395
5.88 0.0931429
5.89 0.110537
5.9 0.115693
5.91 0.107228
5.92 0.0856194
5.93 0.0523
5.94 0.0073785
5.95 -0.0458943
5.96 -0.106401
5.97 -0.171169
5.98 -0.238048
5.99 -0.304618
6 -0.369071
6.01 -0.429132
6.02 -0.484139
6.03 -0.532905
6.04 -0.575212
6.05 -0.61157
6.06 -0.641949
6.07 -0.668061
6.08 -0.690602
6.09 -0.711229
6.1 -0.731153
6.11 -0.751674
6.12 -0.77361
6.13 -0.797948
6.14 -0.824653
6.15 -0.85383
6.16 -0.884939
6.17 -0.917159
6.18 -0.94943
6.19 -0.980597
6.2 -1.00921
6.21 -1.03422
6.22 -1.05467
6.23 -1.06949
6.24 -1.07896
6.25 -1.08222
6.26 -1.08053
6.27 -1.07428
6.28 -1.0647
6.29 -1.05313
6.3 -1.04083
6.31 -1.02902
6.32 -1.01874
6.33 -1.01036
6.34 -1.0038
6.35 -0.998237
6.36 -0.992127
6.37 -0.98266
6.38 -0.96711
6.39 -0.941197
6.4 -0.90031
6.41 -0.840971
6.42 -0.755399
6.43 -0.642749
6.44 -0.495216
6.45 -0.31206
6.46 -0.0907852
6.47 0.171571
6.48 0.470032
6.49 0.807947
6.5 1.17588
6.51 1.57068
6.52 1.984
6.53 2.40693
6.54 2.82942
6.55 3.2415
6.56 3.63042
6.57 3.98667
6.58 4.30023
6.59 4.55842
6.6 4.75997
6.61 4.88841
6.62 4.94946
6.63 4.93558
6.64 4.8481
6.65 4.69334
6.66 4.46828
6.67 4.18877
6.68 3.85646
6.69 3.48553
6.7 3.08551
6.71 2.66726
6.72 2.24282
6.73 1.8233
6.74 1.41795
6.75 1.03644
6.76 0.686377
6.77 0.371205
6.78 0.0997905
6.79 -0.131735
6.8 -0.317768
6.81 -0.462992
6.82 -0.569348
6.83 -0.638851
6.84 -0.67952
6.85 -0.692264
6.86 -0.686086
6.87 -0.664471
6.88 -0.632876
6.89 -0.595778
6.9 -0.55665
6.91 -0.518475
6.92 -0.483491
6.93 -0.452755
6.94 -0.426807
6.95 -0.405834
6.96 -0.388833
6.97 -0.375548
6.98 -0.364547
6.99 -0.355137
7 -0.346505
7.01 -0.338188
7.02 -0.330087
7.03 -0.322417
7.04 -0.315872
7.05 -0.311329
7.06 -0.309881
7.07 -0.313106
7.08 -0.32164
7.09 -0.337633
7.1 -0.360957
7.11 -0.392706
7.12 -0.432872
7.13 -0.480632
7.14 -0.535943
7.15 -0.596506
7.16 -0.661187
7.17 -0.727544
7.18 -0.793509
7.19 -0.856522
7.2 -0.914934
7.21 -0.965803
7.22 -1.00857
7.23 -1.04154
7.24 -1.06421
7.25 -1.07718
7.26 -1.0799
7.27 -1.07482
7.28 -1.06257
7.29 -1.04566
7.3 -1.02599
7.31 -1.00576
7.32 -0.986834
7.33 -0.971319
7.34 -0.960017
7.35 -0.953951
7.36 -0.95316
7.37 -0.956834
7.38 -0.964144
7.39 -0.972853
7.4 -0.980699
7.41 -0.984891
7.42 -0.982629
7.43 -0.970192
7.44 -0.946078
7.45 -0.905496
7.46 -0.848595
7.47 -0.772718
7.48 -0.677384
7.49 -0.563871
7.5 -0.431062
7.51 -0.283395
7.52 -0.121764
7.53 0.0492589
7.54 0.226076
7.55 0.404188
7.56 0.579367
7.57 0.746038
7.58 0.900996
7.59 1.03946
7.6 1.15786
7.61 1.2548
7.62 1.32516
7.63 1.37134
7.64 1.38976
7.65 1.38283
7.66 1.35135
7.67 1.29589
7.68 1.22113
7.69 1.12701
7.7 1.01918
7.71 0.899718
7.72 0.772374
7.73 0.640593
7.74 0.507436
7.75 0.375907
7.76 0.249003
7.77 0.128876
7.78 0.0174913
7.79 -0.0827417
7.8 -0.171792
7.81 -0.246662
7.82 -0.308515
7.83 -0.355941
7.84 -0.38897
7.85 -0.408603
7.86 -0.413638
7.87 -0.406765
7.88 -0.387506
7.89 -0.358099
7.9 -0.319899
7.91 -0.274383
7.92 -0.224139
7.93 -0.17082
7.94 -0.117113
7.95 -0.0652585
7.96 -0.0177608
7.97 0.0236163
7.98 0.0557381
7.99 0.0781773
8 0.0882266
8.01 0.0857492
8.02 0.0701784
8.03 0.0407665
8.04 -0.00050152
8.05 -0.0543883
8.06 -0.117713
8.07 -0.189346
8.08 -0.2668
8.09 -0.34755
8.1 -0.429186
8.11 -0.509291
8.12 -0.585377
8.13 -0.655749
8.14 -0.718979
8.15 -0.773535
8.16 -0.819927
8.17 -0.85689
8.18 -0.886233
8.19 -0.908348
8.2 -0.924754
8.21 -0.937194
8.22 -0.947003
8.23 -0.955989
8.24 -0.965362
8.25 -0.976004
8.26 -0.98825
8.27 -1.0019
8.28 -1.01595
8.29 -1.02864
8.3 -1.03787
8.31 -1.0406
8.32 -1.03332
8.33 -1.01339
8.34 -0.974989
8.35 -0.917293
8.36 -0.834586
8.37 -0.725973
8.38 -0.58963
8.39 -0.423004
8.4 -0.229631
8.41 -0.00676396
8.42 0.239091
8.43 0.50598
8.44 0.788415
8.45 1.0802
8.46 1.37504
8.47 1.66578
8.48 1.94434
8.49 2.204
8.5 2.43817
8.51 2.63829
8.52 2.80311
8.53 2.92195
8.54 2.99763
8.55 3.02514
8.56 3.00442
8.57 2.93927
8.58 2.82653
8.59 2.67613
8.6 2.48808
8.61 2.27081
8.62 2.02987
8.63 1.77116
8.64 1.50267
8.65 1.23018
8.66 0.960452
8.67 0.699225
8.68 0.451879
8.69 0.221372
8.7 0.0136954
8.71 -0.172062
8.72 -0.33171
8.73 -0.46662
8.74 -0.577049
8.75 -0.662825
8.76 -0.72828
8.77 -0.772699
8.78 -0.801486
8.79 -0.816268
8.8 -0.820388
8.81 -0.817161
8.82 -0.808819
8.83 -0.798501
8.84 -0.78826
8.85 -0.780043
8.86 -0.775218
8.87 -0.775164
8.88 -0.779938
8.89 -0.790601
8.9 -0.806288
8.91 -0.826974
8.92 -0.85191
8.93 -0.880071
8.94 -0.910769
8.95 -0.942662
8.96 -0.974825
8.97 -1.0062
8.98 -1.03593
8.99 -1.06308
9 -1.08737
9.01 -1.10787
9.02 -1.12482
9.03 -1.13791
9.04 -1.14726
9.05 -1.15331
9.06 -1.15602
9.07 -1.1562
9.08 -1.15396
9.09 -1.14985
9.1 -1.14414
9.11 -1.13694
9.12 -1.12844
9.13 -1.11829
9.14 -1.10639
9.15 -1.09218
9.16 -1.075
9.17 -1.05441
9.18 -1.02906
9.19 -0.998885
9.2 -0.962562
9.21 -0.919931
9.22 -0.87064
9.23 -0.81418
9.24 -0.751546
9.25 -0.68238
9.26 -0.608466
9.27 -0.530713
9.28 -0.45091
9.29 -0.370898
9.3 -0.293061
9.31 -0.219215
9.32 -0.15215
9.33 -0.0936154
9.34 -0.0453996
9.35 -0.00989259
9.36 0.0132719
9.37 0.0213924
9.38 0.0163196
9.39 -0.00241979
9.4 -0.033586
9.41 -0.0749547
9.42 -0.125537
9.43 -0.181746
9.44 -0.241549
9.45 -0.301814
9.46 -0.360019
9.47 -0.413219
9.48 -0.459976
9.49 -0.497306
9.5 -0.525208
9.51 -0.542421
9.52 -0.549019
9.53 -0.546235
9.54 -0.534166
9.55 -0.515692
9.56 -0.492112
9.57 -0.466152
9.58 -0.440007
9.59 -0.416244
9.6 -0.396513
9.61 -0.383449
9.62 -0.377555
9.63 -0.380164
9.64 -0.391584
9.65 -0.411065
9.66 -0.438888
9.67 -0.472817
9.68 -0.512113
9.69 -0.554667
9.7 -0.598863
9.71 -0.642905
9.72 -0.685417
9.73 -0.724742
9.74 -0.760355
9.75 -0.791456
9.76 -0.817863
9.77 -0.840003
9.78 -0.857758
9.79 -0.872261
9.8 -0.883691
9.81 -0.892721
9.82 -0.899511
9.83 -0.903667
9.84 -0.904812
9.85 -0.900972
9.86 -0.890798
9.87 -0.871329
9.88 -0.83919
9.89 -0.791979
9.9 -0.723247
9.91 -0.63225
9.92 -0.512389
9.93 -0.362161
9.94 -0.179123
9.95 0.0406672
9.96 0.293581
9.97 0.58401
9.98 0.904929
9.99 1.25487
10 1.6281
10.01 2.01721
10.02 2.41558
10.03 2.81368
10.04 3.20203
10.05 3.57137
10.06 3.91299
10.07 4.21523
10.08 4.47522
10.09 4.67868
10.1 4.82745
10.11 4.91427
10.12 4.93752
10.13 4.90154
10.14 4.80065
10.15 4.64763
10.16 4.4417
10.17 4.19355
10.18 3.91051
10.19 3.59992
10.2 3.27292
10.21 2.93673
10.22 2.60095
10.23 2.27303
10.24 1.96022
10.25 1.66655
10.26 1.39947
10.27 1.15797
10.28 0.946687
10.29 0.763764
10.3 0.608232
10.31 0.479598
10.32 0.372294
10.33 0.285978
10.34 0.214317
10.35 0.154704
10.36 0.10315
10.37 0.0561126
10.38 0.0108985
10.39 -0.0349871
10.4 -0.0834098
10.41 -0.135387
10.42 -0.191424
10.43 -0.251809
10.44 -0.315673
10.45 -0.382719
10.46 -0.451543
10.47 -0.521178
10.48 -0.590362
10.49 -0.658127
10.5 -0.723142
10.51 -0.784995
10.52 -0.842628
10.53 -0.895819
10.54 -0.944283
10.55 -0.9875
10.56 -1.02597
10.57 -1.05889
10.58 -1.08691
10.59 -1.10963
10.6 -1.12695
10.61 -1.13908
10.62 -1.14506
10.63 -1.14552
10.64 -1.13955
10.65 -1.12736
10.66 -1.10886
10.67 -1.08367
10.68 -1.05273
10.69 -1.01557
10.7 -0.973603
10.71 -0.927347
10.72 -0.877988
10.73 -0.826887
10.74 -0.775442
10.75 -0.725161
10.76 -0.67778
10.77 -0.634692
10.78 -0.597185
10.79 -0.566981
10.8 -0.544139
10.81 -0.530572
10.82 -0.525473
10.83 -0.529425
10.84 -0.542062
10.85 -0.56223
10.86 -0.589937
10.87 -0.623049
10.88 -0.660912
10.89 -0.701781
10.9 -0.744355
10.91 -0.787245
10.92 -0.829287
10.93 -0.869152
10.94 -0.906226
10.95 -0.939688
10.96 -0.969073
10.97 -0.994472
10.98 -1.01533
10.99 -1.03248
11 -1.0458
11.01 -1.05603
11.02 -1.06366
11.03 -1.06918
11.04 -1.07335
11.05 -1.07657
11.06 -1.0795
11.07 -1.08255
11.08 -1.08614
11.09 -1.09053
11.1 -1.09608
11.11 -1.10276
11.12 -1.11076
11.13 -1.11993
11.14 -1.13011
11.15 -1.14103
11.16 -1.15218
11.17 -1.16291
11.18 -1.17245
11.19 -1.17974
11.2 -1.18344
11.21 -1.1825
11.22 -1.17438
11.23 -1.15834
11.24 -1.13145
11.25 -1.09228
11.26 -1.03903
11.27 -0.968643
11.28 -0.881529
11.29 -0.773562
11.3 -0.646392
11.31 -0.498389
11.32 -0.329824
11.33 -0.142961
11.34 0.0628336
11.35 0.282536
11.36 0.514568
11.37 0.754067
11.38 0.996853
11.39 1.23761
11.4 1.47178
11.41 1.69236
11.42 1.89568
11.43 2.07575
11.44 2.22758
11.45 2.34961
11.46 2.43409
11.47 2.48428
11.48 2.49492
11.49 2.46855
11.5 2.40638
11.51 2.3084
11.52 2.18159
11.53 2.02582
11.54 1.84936
11.55 1.65578
11.56 1.45095
11.57 1.24052
11.58 1.02974
11.59 0.823299
11.6 0.626126
11.61 0.441418
11.62 0.27171
11.63 0.1202
11.64 -0.0142275
11.65 -0.128687
11.66 -0.226238
11.67 -0.307042
11.68 -0.373108
11.69 -0.427509
11.7 -0.471479
11.71 -0.508988
11.72 -0.541826
11.73 -0.572701
11.74 -0.603439
11.75 -0.63573
11.76 -0.670319
11.77 -0.708078
11.78 -0.748524
11.79 -0.791236
11.8 -0.835033
11.81 -0.878511
11.82 -0.919575
11.83 -0.956655
11.84 -0.987146
11.85 -1.00928
11.86 -1.02129
11.87 -1.02054
11.88 -1.00715
11.89 -0.977938
11.9 -0.934157
11.91 -0.874637
11.92 -0.799577
11.93 -0.71066
11.94 -0.607148
11.95 -0.492528
11.96 -0.367332
11.97 -0.234456
11.98 -0.0961506
11.99 0.0450919
12 0.186493
12.01 0.325071
12.02 0.458449
12.03 0.583795
12.04 0.698423
12.05 0.801095
12.06 0.887868
12.07 0.959453
12.08 1.01277
12.09 1.04808
12.1 1.06515
12.11 1.06279
12.12 1.04372
12.13 1.00642
12.14 0.954497
12.15 0.888723
12.16 0.811324
12.17 0.725206
12.18 0.631946
12.19 0.534989
12.2 0.436434
12.21 0.33888
12.22 0.244325
12.23 0.155082
12.24 0.071926
12.25 -0.00298104
12.26 -0.0699763
12.27 -0.128373
12.28 -0.178402
12.29 -0.221235
12.3 -0.256962
12.31 -0.287798
12.32 -0.314613
12.33 -0.339242
12.34 -0.363076
12.35 -0.387588
12.36 -0.413741
12.37 -0.442712
12.38 -0.474628
12.39 -0.509716
12.4 -0.547573
12.41 -0.587278
