# xPDFsuite Configuration #
[PDF]
wavelength = 0.1432
dataformat = twotheta
inputfile = 1_1Pd_CeO2_cycle-00482.chi
backgroundfile = background-00000.chi
mode = xray
bgscale = 1.007
composition = CeO2
outputtype = gr
qmaxinst = 28.8974762299
qmin = 0.5
qmax = 27.9
rmax = 50.0
rmin = 0.0
rstep = 0.01
rpoly = 1.8657

[Misc]
inputdir = G:/SankarDec16/1Pd/Chi
savedir = D:/DATA/APS_CeO2/1Pd
backgroundfilefull = G:/SankarDec16/Background/background-00000.chi

#### start data
#S 1
#L r($\AA$)  G($\AA^{-2}$)
0 0
0.01 -0.00451941
0.02 -0.00869702
0.03 -0.012181
0.04 -0.0147065
0.05 -0.0161266
0.06 -0.0162051
0.07 -0.0151007
0.08 -0.0127388
0.09 -0.00942164
0.1 -0.00535898
0.11 -0.0008712
0.12 0.00369387
0.13 0.00794459
0.14 0.0116062
0.15 0.0143408
0.16 0.0159524
0.17 0.0163644
0.18 0.0154185
0.19 0.0133497
0.2 0.0101711
0.21 0.00623601
0.22 0.00180624
0.23 -0.0027582
0.24 -0.00713119
0.25 -0.0108911
0.26 -0.0138439
0.27 -0.0156831
0.28 -0.0162912
0.29 -0.015666
0.3 -0.0137355
0.31 -0.0107989
0.32 -0.00695663
0.33 -0.00259534
0.34 0.00198441
0.35 0.00640092
0.36 0.0103664
0.37 0.0134506
0.38 0.0155503
0.39 0.0164056
0.4 0.015984
0.41 0.014358
0.42 0.0115455
0.43 0.00789518
0.44 0.00358973
0.45 -0.000970239
0.46 -0.00546072
0.47 -0.00949741
0.48 -0.0128457
0.49 -0.0150886
0.5 -0.016219
0.51 -0.0160373
0.52 -0.0145976
0.53 -0.0120437
0.54 -0.00848301
0.55 -0.00429605
0.56 0.000261295
0.57 0.0047945
0.58 0.00897275
0.59 0.0124284
0.6 0.0149923
0.61 0.016282
0.62 0.0163869
0.63 0.0151782
0.64 0.0127944
0.65 0.00944323
0.66 0.00531658
0.67 0.000807542
0.68 -0.00376775
0.69 -0.00804067
0.7 -0.0116905
0.71 -0.0143848
0.72 -0.0160286
0.73 -0.016293
0.74 -0.0153595
0.75 -0.013176
0.76 -0.00995754
0.77 -0.00596468
0.78 -0.00146244
0.79 0.00316428
0.8 0.00755787
0.81 0.0113953
0.82 0.0143846
0.83 0.0162477
0.84 0.0169687
0.85 0.016293
0.86 0.0144829
0.87 0.0115669
0.88 0.00782355
0.89 0.00354965
0.9 -0.000933748
0.91 -0.00527649
0.92 -0.00910639
0.93 -0.012172
0.94 -0.0142373
0.95 -0.0151086
0.96 -0.0148597
0.97 -0.0133516
0.98 -0.0109183
0.99 -0.00769282
1 -0.00401709
1.01 -0.000216985
1.02 0.00331965
1.03 0.00630926
1.04 0.00836119
1.05 0.00932838
1.06 0.00904877
1.07 0.00743979
1.08 0.00469837
1.09 0.000835485
1.1 -0.0037048
1.11 -0.00863777
1.12 -0.0135085
1.13 -0.0179185
1.14 -0.0213276
1.15 -0.0234945
1.16 -0.0239002
1.17 -0.0224697
1.18 -0.0190404
1.19 -0.0135536
1.2 -0.00633911
1.21 0.00259612
1.22 0.0126173
1.23 0.0233666
1.24 0.0342432
1.25 0.0447177
1.26 0.0540943
1.27 0.0620056
1.28 0.067741
1.29 0.0711033
1.3 0.0717683
1.31 0.0694802
1.32 0.064524
1.33 0.0565777
1.34 0.0463368
1.35 0.0339271
1.36 0.0198984
1.37 0.00478582
1.38 -0.0108928
1.39 -0.0265311
1.4 -0.0415332
1.41 -0.0554217
1.42 -0.0677284
1.43 -0.0779616
1.44 -0.0860501
1.45 -0.0913618
1.46 -0.094178
1.47 -0.0942008
1.48 -0.0915457
1.49 -0.0864122
1.5 -0.078728
1.51 -0.0690322
1.52 -0.0573384
1.53 -0.0441559
1.54 -0.0297763
1.55 -0.0145805
1.56 0.000986053
1.57 0.0164955
1.58 0.0315213
1.59 0.0455766
1.6 0.0582148
1.61 0.0691023
1.62 0.0776001
1.63 0.0836857
1.64 0.0867201
1.65 0.0867659
1.66 0.0836365
1.67 0.0772135
1.68 0.0679319
1.69 0.055575
1.7 0.0409632
1.71 0.0243472
1.72 0.00640812
1.73 -0.0122036
1.74 -0.0307643
1.75 -0.0486144
1.76 -0.0649331
1.77 -0.0792261
1.78 -0.0909594
1.79 -0.0996273
1.8 -0.105352
1.81 -0.107593
1.82 -0.107031
1.83 -0.103733
1.84 -0.0983251
1.85 -0.0914835
1.86 -0.0838976
1.87 -0.0764055
1.88 -0.0698538
1.89 -0.0649077
1.9 -0.0621899
1.91 -0.0622906
1.92 -0.0651621
1.93 -0.0713315
1.94 -0.0801169
1.95 -0.0913567
1.96 -0.104301
1.97 -0.118145
1.98 -0.131919
1.99 -0.144685
2 -0.155226
2.01 -0.162746
2.02 -0.166368
2.03 -0.165193
2.04 -0.159287
2.05 -0.147573
2.06 -0.130941
2.07 -0.109186
2.08 -0.082989
2.09 -0.0531603
2.1 -0.0202376
2.11 0.0145416
2.12 0.0504806
2.13 0.0866096
2.14 0.122255
2.15 0.156785
2.16 0.189997
2.17 0.221511
2.18 0.251664
2.19 0.280604
2.2 0.30883
2.21 0.336859
2.22 0.365312
2.23 0.394622
2.24 0.425331
2.25 0.457534
2.26 0.491236
2.27 0.526143
2.28 0.561579
2.29 0.596575
2.3 0.630007
2.31 0.66033
2.32 0.685951
2.33 0.705594
2.34 0.716831
2.35 0.719433
2.36 0.711023
2.37 0.691789
2.38 0.661151
2.39 0.618849
2.4 0.566671
2.41 0.504278
2.42 0.434818
2.43 0.359632
2.44 0.281408
2.45 0.202584
2.46 0.126022
2.47 0.0537471
2.48 -0.0113021
2.49 -0.0678555
2.5 -0.114414
2.51 -0.149682
2.52 -0.174609
2.53 -0.18787
2.54 -0.192144
2.55 -0.188037
2.56 -0.177814
2.57 -0.163728
2.58 -0.148004
2.59 -0.133032
2.6 -0.121188
2.61 -0.11411
2.62 -0.113258
2.63 -0.119908
2.64 -0.13363
2.65 -0.155408
2.66 -0.183314
2.67 -0.216713
2.68 -0.253718
2.69 -0.292454
2.7 -0.330829
2.71 -0.367028
2.72 -0.398845
2.73 -0.425113
2.74 -0.444674
2.75 -0.456594
2.76 -0.461582
2.77 -0.458976
2.78 -0.450839
2.79 -0.438003
2.8 -0.422415
2.81 -0.405911
2.82 -0.390585
2.83 -0.378
2.84 -0.3702
2.85 -0.368024
2.86 -0.372318
2.87 -0.383616
2.88 -0.400945
2.89 -0.42441
2.9 -0.451853
2.91 -0.482037
2.92 -0.512865
2.93 -0.542496
2.94 -0.56859
2.95 -0.58997
2.96 -0.604514
2.97 -0.611828
2.98 -0.611343
2.99 -0.602885
3 -0.58789
3.01 -0.566631
3.02 -0.541661
3.03 -0.514573
3.04 -0.487736
3.05 -0.463123
3.06 -0.443298
3.07 -0.429272
3.08 -0.423214
3.09 -0.425237
3.1 -0.4357
3.11 -0.454483
3.12 -0.479841
3.13 -0.511164
3.14 -0.545685
3.15 -0.58157
3.16 -0.616341
3.17 -0.648051
3.18 -0.674148
3.19 -0.693923
3.2 -0.705468
3.21 -0.709108
3.22 -0.704934
3.23 -0.693655
3.24 -0.677359
3.25 -0.657483
3.26 -0.63687
3.27 -0.617909
3.28 -0.603227
3.29 -0.594684
3.3 -0.595074
3.31 -0.604429
3.32 -0.62458
3.33 -0.654422
3.34 -0.693287
3.35 -0.739718
3.36 -0.790908
3.37 -0.844537
3.38 -0.897267
3.39 -0.946009
3.4 -0.987745
3.41 -1.02052
3.42 -1.04116
3.43 -1.05018
3.44 -1.04577
3.45 -1.02975
3.46 -1.00334
3.47 -0.968666
3.48 -0.929223
3.49 -0.887996
3.5 -0.848652
3.51 -0.814542
3.52 -0.788503
3.53 -0.771957
3.54 -0.767014
3.55 -0.771816
3.56 -0.78583
3.57 -0.804971
3.58 -0.825066
3.59 -0.839753
3.6 -0.843564
3.61 -0.826233
3.62 -0.783263
3.63 -0.705063
3.64 -0.585234
3.65 -0.420618
3.66 -0.201565
3.67 0.0667103
3.68 0.390636
3.69 0.76278
3.7 1.17939
3.71 1.63414
3.72 2.11449
3.73 2.61171
3.74 3.11056
3.75 3.59766
3.76 4.05802
3.77 4.4802
3.78 4.84498
3.79 5.14898
3.8 5.37391
3.81 5.51903
3.82 5.5785
3.83 5.54681
3.84 5.43458
3.85 5.23293
3.86 4.96149
3.87 4.6229
3.88 4.23058
3.89 3.79836
3.9 3.33675
3.91 2.86229
3.92 2.38704
3.93 1.92374
3.94 1.48284
3.95 1.07553
3.96 0.704798
3.97 0.382619
3.98 0.104868
3.99 -0.123728
4 -0.305597
4.01 -0.445609
4.02 -0.543879
4.03 -0.610957
4.04 -0.648969
4.05 -0.666837
4.06 -0.669929
4.07 -0.663931
4.08 -0.654288
4.09 -0.645072
4.1 -0.639273
4.11 -0.639148
4.12 -0.645611
4.13 -0.65835
4.14 -0.677143
4.15 -0.69978
4.16 -0.724716
4.17 -0.74946
4.18 -0.771877
4.19 -0.789471
4.2 -0.801057
4.21 -0.803917
4.22 -0.798277
4.23 -0.782851
4.24 -0.75779
4.25 -0.723897
4.26 -0.680997
4.27 -0.631241
4.28 -0.574966
4.29 -0.514027
4.3 -0.449501
4.31 -0.382497
4.32 -0.31416
4.33 -0.245171
4.34 -0.176214
4.35 -0.10769
4.36 -0.0398801
4.37 0.0270953
4.38 0.0929841
4.39 0.157776
4.4 0.221063
4.41 0.282572
4.42 0.341752
4.43 0.397684
4.44 0.449894
4.45 0.496551
4.46 0.537294
4.47 0.570424
4.48 0.594846
4.49 0.610028
4.5 0.613905
4.51 0.607404
4.52 0.58884
4.53 0.559284
4.54 0.518952
4.55 0.46825
4.56 0.409294
4.57 0.342335
4.58 0.270167
4.59 0.194108
4.6 0.116265
4.61 0.0384108
4.62 -0.0374804
4.63 -0.11022
4.64 -0.178058
4.65 -0.240402
4.66 -0.296572
4.67 -0.345966
4.68 -0.389328
4.69 -0.426019
4.7 -0.45755
4.71 -0.484199
4.72 -0.506994
4.73 -0.526945
4.74 -0.544712
4.75 -0.561331
4.76 -0.577331
4.77 -0.593267
4.78 -0.60942
4.79 -0.625931
4.8 -0.642713
4.81 -0.659586
4.82 -0.676229
4.83 -0.692255
4.84 -0.707249
4.85 -0.720925
4.86 -0.732772
4.87 -0.742827
4.88 -0.750742
4.89 -0.756712
4.9 -0.760835
4.91 -0.763297
4.92 -0.764573
4.93 -0.764909
4.94 -0.764856
4.95 -0.764784
4.96 -0.765107
4.97 -0.7661
4.98 -0.768122
4.99 -0.771185
5 -0.775498
5.01 -0.780941
5.02 -0.787446
5.03 -0.794902
5.04 -0.803046
5.05 -0.811766
5.06 -0.820781
5.07 -0.829928
5.08 -0.83901
5.09 -0.847874
5.1 -0.856291
5.11 -0.864132
5.12 -0.871061
5.13 -0.876815
5.14 -0.880974
5.15 -0.882846
5.16 -0.882044
5.17 -0.87716
5.18 -0.867776
5.19 -0.852413
5.2 -0.829892
5.21 -0.799462
5.22 -0.758823
5.23 -0.708315
5.24 -0.645716
5.25 -0.571382
5.26 -0.484911
5.27 -0.385936
5.28 -0.276384
5.29 -0.155847
5.3 -0.0275827
5.31 0.106888
5.32 0.24453
5.33 0.382383
5.34 0.516626
5.35 0.644404
5.36 0.761153
5.37 0.864215
5.38 0.950448
5.39 1.01602
5.4 1.06117
5.41 1.08077
5.42 1.07764
5.43 1.04984
5.44 0.998699
5.45 0.926822
5.46 0.834295
5.47 0.726568
5.48 0.6051
5.49 0.474762
5.5 0.338962
5.51 0.201634
5.52 0.0661916
5.53 -0.0633115
5.54 -0.184854
5.55 -0.295488
5.56 -0.393522
5.57 -0.478588
5.58 -0.548539
5.59 -0.605464
5.6 -0.64826
5.61 -0.679093
5.62 -0.699018
5.63 -0.709169
5.64 -0.712003
5.65 -0.708043
5.66 -0.699626
5.67 -0.687525
5.68 -0.672797
5.69 -0.656147
5.7 -0.637713
5.71 -0.617776
5.72 -0.595946
5.73 -0.572007
5.74 -0.545521
5.75 -0.51587
5.76 -0.48306
5.77 -0.446326
5.78 -0.406217
5.79 -0.362709
5.8 -0.316455
5.81 -0.26835
5.82 -0.219414
5.83 -0.170997
5.84 -0.124689
5.85 -0.0819158
5.86 -0.044148
5.87 -0.0132179
5.88 0.0104843
5.89 0.0246454
5.9 0.0299217
5.91 0.0252686
5.92 0.0109219
5.93 -0.0122137
5.94 -0.0443249
5.95 -0.0831966
5.96 -0.128362
5.97 -0.177826
5.98 -0.230234
5.99 -0.284082
6 -0.33797
6.01 -0.390537
6.02 -0.440994
6.03 -0.488474
6.04 -0.532564
6.05 -0.573311
6.06 -0.610427
6.07 -0.644708
6.08 -0.676288
6.09 -0.705982
6.1 -0.734332
6.11 -0.761901
6.12 -0.789196
6.13 -0.816534
6.14 -0.84405
6.15 -0.871706
6.16 -0.89924
6.17 -0.926294
6.18 -0.952201
6.19 -0.976537
6.2 -0.998446
6.21 -1.01751
6.22 -1.03325
6.23 -1.04513
6.24 -1.05343
6.25 -1.05763
6.26 -1.05853
6.27 -1.05629
6.28 -1.05152
6.29 -1.0449
6.3 -1.03682
6.31 -1.02785
6.32 -1.01805
6.33 -1.00731
6.34 -0.995073
6.35 -0.980088
6.36 -0.961242
6.37 -0.935556
6.38 -0.901421
6.39 -0.855269
6.4 -0.793791
6.41 -0.71477
6.42 -0.612242
6.43 -0.486438
6.44 -0.331568
6.45 -0.147792
6.46 0.0663293
6.47 0.312564
6.48 0.586615
6.49 0.890619
6.5 1.21705
6.51 1.56318
6.52 1.92242
6.53 2.28786
6.54 2.65152
6.55 3.00586
6.56 3.34084
6.57 3.64915
6.58 3.92292
6.59 4.15209
6.6 4.33562
6.61 4.46008
6.62 4.52979
6.63 4.5382
6.64 4.48577
6.65 4.37704
6.66 4.20845
6.67 3.99244
6.68 3.72908
6.69 3.42942
6.7 3.10053
6.71 2.75038
6.72 2.38916
6.73 2.02479
6.74 1.66592
6.75 1.32032
6.76 0.994949
6.77 0.693685
6.78 0.424392
6.79 0.185531
6.8 -0.0172909
6.81 -0.18647
6.82 -0.322415
6.83 -0.425387
6.84 -0.501318
6.85 -0.549429
6.86 -0.577142
6.87 -0.586546
6.88 -0.582054
6.89 -0.567761
6.9 -0.546254
6.91 -0.521253
6.92 -0.494781
6.93 -0.468871
6.94 -0.444758
6.95 -0.423467
6.96 -0.40507
6.97 -0.390136
6.98 -0.378042
6.99 -0.368741
7 -0.361845
7.01 -0.356965
7.02 -0.354157
7.03 -0.353121
7.04 -0.35424
7.05 -0.357675
7.06 -0.363863
7.07 -0.373546
7.08 -0.386855
7.09 -0.404975
7.1 -0.427675
7.11 -0.455563
7.12 -0.488608
7.13 -0.526319
7.14 -0.568722
7.15 -0.614463
7.16 -0.662938
7.17 -0.712706
7.18 -0.762555
7.19 -0.810967
7.2 -0.856891
7.21 -0.898544
7.22 -0.935468
7.23 -0.966533
7.24 -0.991297
7.25 -1.00998
7.26 -1.02202
7.27 -1.02879
7.28 -1.03041
7.29 -1.02827
7.3 -1.02335
7.31 -1.01674
7.32 -1.00958
7.33 -1.00278
7.34 -0.996902
7.35 -0.992332
7.36 -0.988984
7.37 -0.986375
7.38 -0.98362
7.39 -0.979574
7.4 -0.972469
7.41 -0.960687
7.42 -0.94241
7.43 -0.915139
7.44 -0.878205
7.45 -0.828235
7.46 -0.765724
7.47 -0.6889
7.48 -0.597614
7.49 -0.492946
7.5 -0.374191
7.51 -0.244658
7.52 -0.105059
7.53 0.0412444
7.54 0.191599
7.55 0.342674
7.56 0.491361
7.57 0.633469
7.58 0.766596
7.59 0.887076
7.6 0.992111
7.61 1.08053
7.62 1.14818
7.63 1.19673
7.64 1.2231
7.65 1.22887
7.66 1.21434
7.67 1.17954
7.68 1.12798
7.69 1.05901
7.7 0.977105
7.71 0.883547
7.72 0.781178
7.73 0.672829
7.74 0.560651
7.75 0.447516
7.76 0.335731
7.77 0.227469
7.78 0.1246
7.79 0.0293897
7.8 -0.0576238
7.81 -0.133682
7.82 -0.199239
7.83 -0.252771
7.84 -0.293914
7.85 -0.323234
7.86 -0.339347
7.87 -0.344442
7.88 -0.337839
7.89 -0.321427
7.9 -0.296315
7.91 -0.263703
7.92 -0.225986
7.93 -0.184495
7.94 -0.141792
7.95 -0.099845
7.96 -0.0609527
7.97 -0.0267866
7.98 -0.000114308
7.99 0.0185226
8 0.0267231
8.01 0.024253
8.02 0.0105458
8.03 -0.0151254
8.04 -0.0511083
8.05 -0.098146
8.06 -0.153531
8.07 -0.216356
8.08 -0.284525
8.09 -0.355878
8.1 -0.428416
8.11 -0.500016
8.12 -0.568582
8.13 -0.632607
8.14 -0.690827
8.15 -0.741873
8.16 -0.786078
8.17 -0.82226
8.18 -0.851836
8.19 -0.874994
8.2 -0.892873
8.21 -0.906843
8.22 -0.917796
8.23 -0.927242
8.24 -0.935969
8.25 -0.944688
8.26 -0.953595
8.27 -0.962384
8.28 -0.970324
8.29 -0.975733
8.3 -0.977038
8.31 -0.971639
8.32 -0.956665
8.33 -0.930055
8.34 -0.886897
8.35 -0.826748
8.36 -0.744829
8.37 -0.640566
8.38 -0.512529
8.39 -0.358661
8.4 -0.182057
8.41 0.0195497
8.42 0.240609
8.43 0.479452
8.44 0.731442
8.45 0.991358
8.46 1.25392
8.47 1.51311
8.48 1.76214
8.49 1.99535
8.5 2.2072
8.51 2.39043
8.52 2.54392
8.53 2.65858
8.54 2.73667
8.55 2.77379
8.56 2.76966
8.57 2.7273
8.58 2.64366
8.59 2.52696
8.6 2.37675
8.61 2.19992
8.62 2.00088
8.63 1.78414
8.64 1.55652
8.65 1.32224
8.66 1.0873
8.67 0.85623
8.68 0.63361
8.69 0.422209
8.7 0.226886
8.71 0.0475564
8.72 -0.112214
8.73 -0.25298
8.74 -0.374526
8.75 -0.476216
8.76 -0.561101
8.77 -0.628005
8.78 -0.680957
8.79 -0.720763
8.8 -0.749722
8.81 -0.770363
8.82 -0.783892
8.83 -0.793096
8.84 -0.799212
8.85 -0.804045
8.86 -0.808787
8.87 -0.814587
8.88 -0.822036
8.89 -0.831993
8.9 -0.844427
8.91 -0.859596
8.92 -0.877361
8.93 -0.897323
8.94 -0.919319
8.95 -0.942602
8.96 -0.966766
8.97 -0.991141
8.98 -1.01518
8.99 -1.03826
9 -1.06
9.01 -1.07971
9.02 -1.09729
9.03 -1.11232
9.04 -1.12462
9.05 -1.13426
9.06 -1.14088
9.07 -1.1449
9.08 -1.1461
9.09 -1.14476
9.1 -1.14095
9.11 -1.13457
9.12 -1.12593
9.13 -1.11458
9.14 -1.10073
9.15 -1.08399
9.16 -1.06406
9.17 -1.04082
9.18 -1.01339
9.19 -0.981992
9.2 -0.945753
9.21 -0.904725
9.22 -0.85875
9.23 -0.807533
9.24 -0.751839
9.25 -0.691428
9.26 -0.627584
9.27 -0.560949
9.28 -0.492793
9.29 -0.424434
9.3 -0.357585
9.31 -0.293585
9.32 -0.234494
9.33 -0.181655
9.34 -0.136464
9.35 -0.100812
9.36 -0.0745449
9.37 -0.0598913
9.38 -0.0556088
9.39 -0.0622808
9.4 -0.0791931
9.41 -0.104792
9.42 -0.138669
9.43 -0.178073
9.44 -0.221738
9.45 -0.267249
9.46 -0.312709
9.47 -0.355926
9.48 -0.395547
9.49 -0.42935
9.5 -0.456971
9.51 -0.477308
9.52 -0.490148
9.53 -0.496169
9.54 -0.495206
9.55 -0.489224
9.56 -0.47899
9.57 -0.46644
9.58 -0.453139
9.59 -0.440932
9.6 -0.431139
9.61 -0.425697
9.62 -0.425152
9.63 -0.430577
9.64 -0.442342
9.65 -0.460018
9.66 -0.48394
9.67 -0.512527
9.68 -0.545315
9.69 -0.580752
9.7 -0.617623
9.71 -0.654546
9.72 -0.690394
9.73 -0.723794
9.74 -0.7542
9.75 -0.780813
9.76 -0.803272
9.77 -0.821741
9.78 -0.835765
9.79 -0.846143
9.8 -0.852646
9.81 -0.855679
9.82 -0.8552
9.83 -0.850625
9.84 -0.841788
9.85 -0.826766
9.86 -0.804763
9.87 -0.773328
9.88 -0.729872
9.89 -0.672707
9.9 -0.596623
9.91 -0.501414
9.92 -0.381802
9.93 -0.236832
9.94 -0.0646731
9.95 0.137767
9.96 0.367416
9.97 0.627843
9.98 0.913309
9.99 1.22269
10 1.55139
10.01 1.89348
10.02 2.24374
10.03 2.59443
10.04 2.938
10.05 3.26686
10.06 3.57393
10.07 3.84964
10.08 4.09139
10.09 4.28734
10.1 4.43858
10.11 4.53875
10.12 4.58594
10.13 4.58325
10.14 4.52509
10.15 4.4216
10.16 4.27112
10.17 4.08197
10.18 3.85961
10.19 3.60917
10.2 3.34006
10.21 3.05703
10.22 2.76866
10.23 2.48069
10.24 2.19935
10.25 1.92863
10.26 1.67458
10.27 1.43774
10.28 1.22224
10.29 1.02773
10.3 0.854268
10.31 0.702435
10.32 0.568564
10.33 0.453434
10.34 0.352461
10.35 0.264312
10.36 0.1863
10.37 0.115637
10.38 0.0508721
10.39 -0.0106045
10.4 -0.0699595
10.41 -0.128573
10.42 -0.187218
10.43 -0.24646
10.44 -0.306425
10.45 -0.367193
10.46 -0.428441
10.47 -0.489862
10.48 -0.550981
10.49 -0.611391
10.5 -0.67044
10.51 -0.727868
10.52 -0.783018
10.53 -0.8356
10.54 -0.885242
10.55 -0.931312
10.56 -0.973852
10.57 -1.01185
10.58 -1.04545
10.59 -1.07392
10.6 -1.09679
10.61 -1.11405
10.62 -1.12447
10.63 -1.12871
10.64 -1.12576
10.65 -1.11602
10.66 -1.09956
10.67 -1.07626
10.68 -1.04731
10.69 -1.01259
10.7 -0.973717
10.71 -0.931452
10.72 -0.887125
10.73 -0.842064
10.74 -0.797733
10.75 -0.755323
10.76 -0.716376
10.77 -0.681864
10.78 -0.652665
10.79 -0.629945
10.8 -0.613404
10.81 -0.604244
10.82 -0.601473
10.83 -0.605214
10.84 -0.614868
10.85 -0.629392
10.86 -0.6485
10.87 -0.670681
10.88 -0.695372
10.89 -0.721497
10.9 -0.748329
10.91 -0.775182
10.92 -0.801596
10.93 -0.827127
10.94 -0.851703
10.95 -0.875227
10.96 -0.897783
10.97 -0.919577
10.98 -0.940732
10.99 -0.961527
11 -0.982086
11.01 -1.00252
11.02 -1.02285
11.03 -1.04295
11.04 -1.06269
11.05 -1.08171
11.06 -1.09974
11.07 -1.11638
11.08 -1.13121
11.09 -1.14405
11.1 -1.1543
11.11 -1.16213
11.12 -1.16715
11.13 -1.16954
11.14 -1.16937
11.15 -1.16662
11.16 -1.16173
11.17 -1.15447
11.18 -1.14517
11.19 -1.13356
11.2 -1.1193
11.21 -1.10207
11.22 -1.0805
11.23 -1.05415
11.24 -1.02104
11.25 -0.979936
11.26 -0.929243
11.27 -0.866285
11.28 -0.790829
11.29 -0.699103
11.3 -0.591758
11.31 -0.46686
11.32 -0.323956
11.33 -0.164468
11.34 0.0129001
11.35 0.204042
11.36 0.408175
11.37 0.621189
11.38 0.839551
11.39 1.05879
11.4 1.27452
11.41 1.48072
11.42 1.67356
11.43 1.84756
11.44 1.99789
11.45 2.12272
11.46 2.21487
11.47 2.27677
11.48 2.30344
11.49 2.29681
11.5 2.25772
11.51 2.18588
11.52 2.08742
11.53 1.96192
11.54 1.81674
11.55 1.65485
11.56 1.4813
11.57 1.30113
11.58 1.11854
11.59 0.937842
11.6 0.762966
11.61 0.5967
11.62 0.441136
11.63 0.298764
11.64 0.168838
11.65 0.05346
11.66 -0.0496354
11.67 -0.140607
11.68 -0.22093
11.69 -0.292798
11.7 -0.356976
11.71 -0.416161
11.72 -0.471304
11.73 -0.523992
11.74 -0.575115
11.75 -0.625204
11.76 -0.674543
11.77 -0.722786
11.78 -0.769505
11.79 -0.813782
11.8 -0.854443
11.81 -0.890655
11.82 -0.920323
11.83 -0.943173
11.84 -0.957203
11.85 -0.961916
11.86 -0.956629
11.87 -0.940031
11.88 -0.91314
11.89 -0.874301
11.9 -0.825172
11.91 -0.765501
11.92 -0.69594
11.93 -0.617885
11.94 -0.531163
11.95 -0.437968
11.96 -0.338624
11.97 -0.234721
11.98 -0.127396
11.99 -0.0178185
12 0.0925641
12.01 0.202375
12.02 0.310256
12.03 0.41467
12.04 0.513952
12.05 0.607075
12.06 0.69137
12.07 0.766621
12.08 0.830257
12.09 0.881593
12.1 0.919646
12.11 0.94247
12.12 0.951259
12.13 0.94354
12.14 0.921446
12.15 0.884589
12.16 0.833966
12.17 0.771764
12.18 0.698268
12.19 0.616992
12.2 0.529252
12.21 0.437896
12.22 0.34513
12.23 0.253408
12.24 0.164518
12.25 0.0808986
12.26 0.00336899
12.27 -0.0667094
12.28 -0.128696
12.29 -0.183076
12.3 -0.229146
12.31 -0.268803
12.32 -0.302368
12.33 -0.331584
12.34 -0.357812
12.35 -0.382465
12.36 -0.406957
12.37 -0.432522
12.38 -0.459871
