# xPDFsuite Configuration #
[PDF]
wavelength = 0.1432
dataformat = twotheta
inputfile = 1_1Pd_CeO2_cycle-00397.chi
backgroundfile = background-00000.chi
mode = xray
bgscale = 1.007
composition = CeO2
outputtype = gr
qmaxinst = 28.8974762299
qmin = 0.5
qmax = 27.9
rmax = 50.0
rmin = 0.0
rstep = 0.01
rpoly = 1.8657

[Misc]
inputdir = G:/SankarDec16/1Pd/Chi
savedir = D:/DATA/APS_CeO2/1Pd
backgroundfilefull = G:/SankarDec16/Background/background-00000.chi

#### start data
#S 1
#L r($\AA$)  G($\AA^{-2}$)
0 0
0.01 -0.00540199
0.02 -0.0103981
0.03 -0.0145703
0.04 -0.0176037
0.05 -0.0193225
0.06 -0.0194444
0.07 -0.0181562
0.08 -0.0153661
0.09 -0.0114311
0.1 -0.00659784
0.11 -0.00124438
0.12 0.0042155
0.13 0.00931895
0.14 0.0137355
0.15 0.0170621
0.16 0.019061
0.17 0.0196357
0.18 0.0185913
0.19 0.0162012
0.2 0.0124725
0.21 0.00782099
0.22 0.00255282
0.23 -0.00290784
0.24 -0.00817045
0.25 -0.0127364
0.26 -0.0163654
0.27 -0.0186881
0.28 -0.0195546
0.29 -0.0189523
0.3 -0.0167826
0.31 -0.0133932
0.32 -0.00888996
0.33 -0.0037284
0.34 0.00173966
0.35 0.00706311
0.36 0.0118926
0.37 0.0157166
0.38 0.018396
0.39 0.0196122
0.4 0.0193101
0.41 0.0175616
0.42 0.0143695
0.43 0.0101397
0.44 0.00507229
0.45 -0.000357968
0.46 -0.00576991
0.47 -0.0107057
0.48 -0.0148736
0.49 -0.0177723
0.5 -0.0193708
0.51 -0.0194156
0.52 -0.0179494
0.53 -0.0151258
0.54 -0.0110487
0.55 -0.00616438
0.56 -0.000757865
0.57 0.0046982
0.58 0.00981084
0.59 0.0141363
0.6 0.0174538
0.61 0.0192957
0.62 0.0197403
0.63 0.0186115
0.64 0.0160482
0.65 0.0122785
0.66 0.00750372
0.67 0.00218986
0.68 -0.00330567
0.69 -0.00853364
0.7 -0.0131072
0.71 -0.0166165
0.72 -0.018922
0.73 -0.0196104
0.74 -0.0188658
0.75 -0.016597
0.76 -0.0130321
0.77 -0.00846297
0.78 -0.00317803
0.79 0.00235856
0.8 0.00773515
0.81 0.0125464
0.82 0.0164304
0.83 0.0190302
0.84 0.0202935
0.85 0.0198808
0.86 0.0180708
0.87 0.0148597
0.88 0.0105507
0.89 0.00548181
0.9 8.10567e-06
0.91 -0.00543472
0.92 -0.0104113
0.93 -0.0145861
0.94 -0.0176505
0.95 -0.0193311
0.96 -0.0196697
0.97 -0.0184413
0.98 -0.0160037
0.99 -0.0124586
1 -0.00817526
1.01 -0.00352143
1.02 0.0010853
1.03 0.00527765
1.04 0.00861305
1.05 0.0108675
1.06 0.0118189
1.07 0.0113211
1.08 0.00954363
1.09 0.00643743
1.1 0.00246395
1.11 -0.00210986
1.12 -0.00680653
1.13 -0.0111968
1.14 -0.0147185
1.15 -0.017079
1.16 -0.0177332
1.17 -0.0165704
1.18 -0.0134098
1.19 -0.00818355
1.2 -0.00122713
1.21 0.00743118
1.22 0.0171285
1.23 0.0274625
1.24 0.0377864
1.25 0.047535
1.26 0.0559491
1.27 0.0626653
1.28 0.0669281
1.29 0.0685753
1.3 0.0673059
1.31 0.0629182
1.32 0.0557838
1.33 0.0456799
1.34 0.0334099
1.35 0.0192301
1.36 0.00380954
1.37 -0.0122323
1.38 -0.0282273
1.39 -0.0435905
1.4 -0.0576164
1.41 -0.0699067
1.42 -0.0800297
1.43 -0.0875828
1.44 -0.0926676
1.45 -0.0947925
1.46 -0.0944574
1.47 -0.0915698
1.48 -0.0864559
1.49 -0.0794677
1.5 -0.0707746
1.51 -0.0609119
1.52 -0.0500704
1.53 -0.0386604
1.54 -0.0269307
1.55 -0.0151406
1.56 -0.00348225
1.57 0.0078194
1.58 0.0186698
1.59 0.0288931
1.6 0.038371
1.61 0.0470148
1.62 0.0545775
1.63 0.0610553
1.64 0.0661237
1.65 0.0697324
1.66 0.0716787
1.67 0.071724
1.68 0.0699388
1.69 0.0658982
1.7 0.0599015
1.71 0.0517865
1.72 0.0417319
1.73 0.0299887
1.74 0.0166835
1.75 0.00234026
1.76 -0.0127558
1.77 -0.0280769
1.78 -0.0431921
1.79 -0.0575879
1.8 -0.0709582
1.81 -0.0827058
1.82 -0.0927923
1.83 -0.100873
1.84 -0.106924
1.85 -0.11106
1.86 -0.113237
1.87 -0.113933
1.88 -0.113282
1.89 -0.111786
1.9 -0.109796
1.91 -0.107719
1.92 -0.105877
1.93 -0.104636
1.94 -0.104099
1.95 -0.104422
1.96 -0.105555
1.97 -0.107342
1.98 -0.109579
1.99 -0.111896
2 -0.113882
2.01 -0.115112
2.02 -0.11514
2.03 -0.11344
2.04 -0.109836
2.05 -0.103628
2.06 -0.0949634
2.07 -0.083457
2.08 -0.0691277
2.09 -0.0521185
2.1 -0.0322532
2.11 -0.0100459
2.12 0.0146281
2.13 0.041348
2.14 0.0699962
2.15 0.100479
2.16 0.132512
2.17 0.166287
2.18 0.201518
2.19 0.238344
2.2 0.276714
2.21 0.316535
2.22 0.357858
2.23 0.40031
2.24 0.443709
2.25 0.487486
2.26 0.531048
2.27 0.573488
2.28 0.614048
2.29 0.651125
2.3 0.684026
2.31 0.711103
2.32 0.731165
2.33 0.74344
2.34 0.745923
2.35 0.739145
2.36 0.721323
2.37 0.693294
2.38 0.655033
2.39 0.606851
2.4 0.550674
2.41 0.486724
2.42 0.417827
2.43 0.34541
2.44 0.271805
2.45 0.199
2.46 0.129422
2.47 0.0644196
2.48 0.00631489
2.49 -0.0442209
2.5 -0.0862339
2.51 -0.118999
2.52 -0.143561
2.53 -0.159177
2.54 -0.168149
2.55 -0.171153
2.56 -0.170053
2.57 -0.166596
2.58 -0.16251
2.59 -0.159425
2.6 -0.159004
2.61 -0.16219
2.62 -0.169794
2.63 -0.182384
2.64 -0.19939
2.65 -0.221008
2.66 -0.245711
2.67 -0.27266
2.68 -0.300344
2.69 -0.327419
2.7 -0.352212
2.71 -0.373829
2.72 -0.390761
2.73 -0.402713
2.74 -0.409291
2.75 -0.410423
2.76 -0.407148
2.77 -0.399774
2.78 -0.390137
2.79 -0.379466
2.8 -0.369491
2.81 -0.361619
2.82 -0.35772
2.83 -0.35839
2.84 -0.365125
2.85 -0.377799
2.86 -0.396472
2.87 -0.420757
2.88 -0.449163
2.89 -0.480765
2.9 -0.513385
2.91 -0.545244
2.92 -0.574256
2.93 -0.598852
2.94 -0.6167
2.95 -0.627508
2.96 -0.62951
2.97 -0.623247
2.98 -0.608869
2.99 -0.587077
3 -0.559926
3.01 -0.528657
3.02 -0.496043
3.03 -0.464267
3.04 -0.435838
3.05 -0.412599
3.06 -0.397238
3.07 -0.390029
3.08 -0.392921
3.09 -0.405197
3.1 -0.42659
3.11 -0.456204
3.12 -0.491669
3.13 -0.531522
3.14 -0.572696
3.15 -0.612801
3.16 -0.649178
3.17 -0.679956
3.18 -0.702454
3.19 -0.716604
3.2 -0.720714
3.21 -0.715869
3.22 -0.702761
3.23 -0.682857
3.24 -0.658827
3.25 -0.632979
3.26 -0.608415
3.27 -0.588085
3.28 -0.574777
3.29 -0.570252
3.3 -0.577411
3.31 -0.595591
3.32 -0.626355
3.33 -0.667764
3.34 -0.718469
3.35 -0.776146
3.36 -0.837342
3.37 -0.898698
3.38 -0.956594
3.39 -1.00725
3.4 -1.04745
3.41 -1.07531
3.42 -1.08749
3.43 -1.08534
3.44 -1.06729
3.45 -1.0362
3.46 -0.994075
3.47 -0.944141
3.48 -0.890736
3.49 -0.838177
3.5 -0.790611
3.51 -0.75237
3.52 -0.726734
3.53 -0.715156
3.54 -0.720249
3.55 -0.739215
3.56 -0.771482
3.57 -0.811766
3.58 -0.854986
3.59 -0.893543
3.6 -0.920734
3.61 -0.924702
3.62 -0.899982
3.63 -0.835562
3.64 -0.724086
3.65 -0.561963
3.66 -0.338344
3.67 -0.0592313
3.68 0.282454
3.69 0.678158
3.7 1.12348
3.71 1.6111
3.72 2.1269
3.73 2.66089
3.74 3.19612
3.75 3.71767
3.76 4.20899
3.77 4.65758
3.78 5.04243
3.79 5.36016
3.8 5.59107
3.81 5.73482
3.82 5.78552
3.83 5.73782
3.84 5.60375
3.85 5.37454
3.86 5.07183
3.87 4.69921
3.88 4.27169
3.89 3.80443
3.9 3.30947
3.91 2.8043
3.92 2.30241
3.93 1.81705
3.94 1.35928
3.95 0.940853
3.96 0.564211
3.97 0.241966
3.98 -0.0312746
3.99 -0.250982
4 -0.42051
4.01 -0.545676
4.02 -0.627345
4.03 -0.677148
4.04 -0.698016
4.05 -0.69965
4.06 -0.688034
4.07 -0.669473
4.08 -0.649493
4.09 -0.63275
4.1 -0.62186
4.11 -0.619191
4.12 -0.625362
4.13 -0.639672
4.14 -0.661689
4.15 -0.688607
4.16 -0.718594
4.17 -0.748701
4.18 -0.776472
4.19 -0.799095
4.2 -0.815215
4.21 -0.821851
4.22 -0.819244
4.23 -0.806005
4.24 -0.782312
4.25 -0.749046
4.26 -0.706016
4.27 -0.65554
4.28 -0.597944
4.29 -0.535192
4.3 -0.46839
4.31 -0.398652
4.32 -0.327179
4.33 -0.254587
4.34 -0.181624
4.35 -0.108664
4.36 -0.0360245
4.37 0.0361108
4.38 0.107434
4.39 0.177789
4.4 0.246623
4.41 0.313473
4.42 0.37759
4.43 0.437789
4.44 0.493467
4.45 0.542424
4.46 0.584289
4.47 0.617133
4.48 0.639817
4.49 0.651876
4.5 0.65117
4.51 0.638958
4.52 0.613641
4.53 0.576668
4.54 0.528557
4.55 0.470096
4.56 0.403732
4.57 0.330179
4.58 0.252433
4.59 0.172154
4.6 0.0916272
4.61 0.0126373
4.62 -0.0626536
4.63 -0.133375
4.64 -0.197781
4.65 -0.255673
4.66 -0.306662
4.67 -0.350524
4.68 -0.388389
4.69 -0.42006
4.7 -0.447323
4.71 -0.470809
4.72 -0.491753
4.73 -0.511213
4.74 -0.530042
4.75 -0.548994
4.76 -0.568591
4.77 -0.589021
4.78 -0.610281
4.79 -0.632141
4.8 -0.65415
4.81 -0.675691
4.82 -0.696194
4.83 -0.714939
4.84 -0.731327
4.85 -0.745045
4.86 -0.755423
4.87 -0.76279
4.88 -0.766837
4.89 -0.768131
4.9 -0.767062
4.91 -0.764191
4.92 -0.760335
4.93 -0.75617
4.94 -0.752456
4.95 -0.749871
4.96 -0.748972
4.97 -0.750023
4.98 -0.753498
4.99 -0.7591
5 -0.76696
5.01 -0.776589
5.02 -0.787629
5.03 -0.799612
5.04 -0.811979
5.05 -0.824234
5.06 -0.83596
5.07 -0.84677
5.08 -0.856416
5.09 -0.864826
5.1 -0.871791
5.11 -0.877512
5.12 -0.881853
5.13 -0.884923
5.14 -0.886619
5.15 -0.886623
5.16 -0.884747
5.17 -0.879966
5.18 -0.871825
5.19 -0.858969
5.2 -0.840097
5.21 -0.814214
5.22 -0.778772
5.23 -0.733649
5.24 -0.676162
5.25 -0.606178
5.26 -0.522821
5.27 -0.425168
5.28 -0.314996
5.29 -0.191272
5.3 -0.057482
5.31 0.0850313
5.32 0.232992
5.33 0.383016
5.34 0.530955
5.35 0.673178
5.36 0.804499
5.37 0.921481
5.38 1.02027
5.39 1.0962
5.4 1.14917
5.41 1.1731
5.42 1.17094
5.43 1.14034
5.44 1.08274
5.45 1.00116
5.46 0.895776
5.47 0.773028
5.48 0.634837
5.49 0.487043
5.5 0.333831
5.51 0.180059
5.52 0.0297269
5.53 -0.112103
5.54 -0.243257
5.55 -0.360228
5.56 -0.461224
5.57 -0.546097
5.58 -0.612596
5.59 -0.663633
5.6 -0.698362
5.61 -0.719802
5.62 -0.729649
5.63 -0.729797
5.64 -0.723302
5.65 -0.711465
5.66 -0.696881
5.67 -0.680771
5.68 -0.664308
5.69 -0.648051
5.7 -0.632165
5.71 -0.616312
5.72 -0.599805
5.73 -0.581753
5.74 -0.56116
5.75 -0.536744
5.76 -0.508083
5.77 -0.473705
5.78 -0.434067
5.79 -0.388797
5.8 -0.338546
5.81 -0.284443
5.82 -0.227586
5.83 -0.169979
5.84 -0.113591
5.85 -0.0605352
5.86 -0.0128587
5.87 0.0269153
5.88 0.0580165
5.89 0.0773797
5.9 0.0856408
5.91 0.0813954
5.92 0.0648992
5.93 0.0373146
5.94 -0.00150256
5.95 -0.0486479
5.96 -0.103334
5.97 -0.162879
5.98 -0.225394
5.99 -0.288746
6 -0.351144
6.01 -0.410593
6.02 -0.466233
6.03 -0.516898
6.04 -0.562184
6.05 -0.602341
6.06 -0.637134
6.07 -0.667906
6.08 -0.695058
6.09 -0.719932
6.1 -0.743475
6.11 -0.766697
6.12 -0.790357
6.13 -0.815165
6.14 -0.841234
6.15 -0.868629
6.16 -0.896962
6.17 -0.925634
6.18 -0.953755
6.19 -0.980506
6.2 -1.00468
6.21 -1.02553
6.22 -1.04229
6.23 -1.05416
6.24 -1.06144
6.25 -1.06345
6.26 -1.06133
6.27 -1.0554
6.28 -1.04673
6.29 -1.03641
6.3 -1.02543
6.31 -1.01476
6.32 -1.00509
6.33 -0.996567
6.34 -0.988918
6.35 -0.981124
6.36 -0.971726
6.37 -0.957809
6.38 -0.936974
6.39 -0.905146
6.4 -0.858131
6.41 -0.792877
6.42 -0.702226
6.43 -0.585742
6.44 -0.436356
6.45 -0.253711
6.46 -0.0357543
6.47 0.219955
6.48 0.508611
6.49 0.83299
6.5 1.1843
6.51 1.55944
6.52 1.95065
6.53 2.34975
6.54 2.74743
6.55 3.1347
6.56 3.49988
6.57 3.83445
6.58 4.12935
6.59 4.37312
6.6 4.56477
6.61 4.68935
6.62 4.75216
6.63 4.74638
6.64 4.67319
6.65 4.5383
6.66 4.3388
6.67 4.08901
6.68 3.7901
6.69 3.4548
6.7 3.09147
6.71 2.70959
6.72 2.32005
6.73 1.93233
6.74 1.55499
6.75 1.19649
6.76 0.863708
6.77 0.55998
6.78 0.293198
6.79 0.06047
6.8 -0.133017
6.81 -0.290879
6.82 -0.414389
6.83 -0.504753
6.84 -0.568639
6.85 -0.606087
6.86 -0.624784
6.87 -0.627193
6.88 -0.617746
6.89 -0.600285
6.9 -0.577249
6.91 -0.5517
6.92 -0.525216
6.93 -0.499183
6.94 -0.474306
6.95 -0.451019
6.96 -0.429176
6.97 -0.408838
6.98 -0.389582
6.99 -0.37133
7 -0.354034
7.01 -0.337793
7.02 -0.323206
7.03 -0.310665
7.04 -0.301328
7.05 -0.296005
7.06 -0.295748
7.07 -0.30201
7.08 -0.314938
7.09 -0.336432
7.1 -0.365742
7.11 -0.403517
7.12 -0.449223
7.13 -0.501666
7.14 -0.560277
7.15 -0.622695
7.16 -0.687439
7.17 -0.752171
7.18 -0.814888
7.19 -0.873163
7.2 -0.925769
7.21 -0.969994
7.22 -1.0058
7.23 -1.03186
7.24 -1.04812
7.25 -1.05547
7.26 -1.05381
7.27 -1.04562
7.28 -1.0318
7.29 -1.01476
7.3 -0.996331
7.31 -0.978595
7.32 -0.963041
7.33 -0.951585
7.34 -0.944596
7.35 -0.942788
7.36 -0.94585
7.37 -0.952749
7.38 -0.962335
7.39 -0.97238
7.4 -0.980462
7.41 -0.983935
7.42 -0.980128
7.43 -0.965529
7.44 -0.938967
7.45 -0.895983
7.46 -0.837076
7.47 -0.759962
7.48 -0.664495
7.49 -0.55213
7.5 -0.422133
7.51 -0.278808
7.52 -0.123242
7.53 0.0402343
7.54 0.208211
7.55 0.376457
7.56 0.541206
7.57 0.697294
7.58 0.842019
7.59 0.971111
7.6 1.08151
7.61 1.17215
7.62 1.23855
7.63 1.28307
7.64 1.30264
7.65 1.29952
7.66 1.27452
7.67 1.22818
7.68 1.16467
7.69 1.08388
7.7 0.990727
7.71 0.886935
7.72 0.775652
7.73 0.659806
7.74 0.541817
7.75 0.424307
7.76 0.30965
7.77 0.19972
7.78 0.0961809
7.79 0.00107007
7.8 -0.0853884
7.81 -0.160626
7.82 -0.225325
7.83 -0.278096
7.84 -0.318659
7.85 -0.347587
7.86 -0.363463
7.87 -0.368364
7.88 -0.36147
7.89 -0.34451
7.9 -0.318433
7.91 -0.28425
7.92 -0.24431
7.93 -0.199758
7.94 -0.153251
7.95 -0.106751
7.96 -0.0626913
7.97 -0.0229403
7.98 0.00952232
7.99 0.033869
8 0.0473855
8.01 0.0495604
8.02 0.0395673
8.03 0.0163651
8.04 -0.0184178
8.05 -0.0658468
8.06 -0.123024
8.07 -0.189085
8.08 -0.261755
8.09 -0.338592
8.1 -0.41739
8.11 -0.495597
8.12 -0.570786
8.13 -0.641071
8.14 -0.704873
8.15 -0.760462
8.16 -0.808086
8.17 -0.846236
8.18 -0.876482
8.19 -0.898985
8.2 -0.915074
8.21 -0.926417
8.22 -0.934172
8.23 -0.940286
8.24 -0.945943
8.25 -0.952246
8.26 -0.959725
8.27 -0.968453
8.28 -0.977731
8.29 -0.986196
8.3 -0.992003
8.31 -0.992489
8.32 -0.984435
8.33 -0.965334
8.34 -0.929746
8.35 -0.876653
8.36 -0.800555
8.37 -0.700308
8.38 -0.573927
8.39 -0.418653
8.4 -0.237569
8.41 -0.0276541
8.42 0.205088
8.43 0.459105
8.44 0.729357
8.45 1.00996
8.46 1.29513
8.47 1.57779
8.48 1.85026
8.49 2.10582
8.5 2.33797
8.51 2.53824
8.52 2.70507
8.53 2.82793
8.54 2.90922
8.55 2.94384
8.56 2.93149
8.57 2.87569
8.58 2.77318
8.59 2.63358
8.6 2.45679
8.61 2.25106
8.62 2.02184
8.63 1.77489
8.64 1.51812
8.65 1.25717
8.66 0.998731
8.67 0.748378
8.68 0.511337
8.69 0.29044
8.7 0.0913579
8.71 -0.0868891
8.72 -0.240485
8.73 -0.370936
8.74 -0.478701
8.75 -0.563914
8.76 -0.630791
8.77 -0.679006
8.78 -0.713633
8.79 -0.73635
8.8 -0.750264
8.81 -0.75831
8.82 -0.762487
8.83 -0.765333
8.84 -0.768472
8.85 -0.773284
8.86 -0.780651
8.87 -0.791352
8.88 -0.80521
8.89 -0.822631
8.9 -0.842817
8.91 -0.865471
8.92 -0.889891
8.93 -0.915351
8.94 -0.941202
8.95 -0.966782
8.96 -0.99148
8.97 -1.01488
8.98 -1.03667
8.99 -1.0565
9 -1.07449
9.01 -1.09031
9.02 -1.1043
9.03 -1.11641
9.04 -1.12678
9.05 -1.1356
9.06 -1.14273
9.07 -1.14841
9.08 -1.15238
9.09 -1.15457
9.1 -1.15476
9.11 -1.15244
9.12 -1.14751
9.13 -1.13903
9.14 -1.12694
9.15 -1.11049
9.16 -1.08916
9.17 -1.06288
9.18 -1.03058
9.19 -0.992898
9.2 -0.949076
9.21 -0.899657
9.22 -0.844907
9.23 -0.785068
9.24 -0.721351
9.25 -0.654155
9.26 -0.585028
9.27 -0.515041
9.28 -0.445688
9.29 -0.37823
9.3 -0.314598
9.31 -0.255629
9.32 -0.203283
9.33 -0.158345
9.34 -0.121749
9.35 -0.0948303
9.36 -0.0769212
9.37 -0.0696176
9.38 -0.0713591
9.39 -0.0822966
9.4 -0.101479
9.41 -0.127396
9.42 -0.159436
9.43 -0.195331
9.44 -0.233931
9.45 -0.273368
9.46 -0.312199
9.47 -0.348791
9.48 -0.38227
9.49 -0.411038
9.5 -0.435004
9.51 -0.453466
9.52 -0.466402
9.53 -0.474403
9.54 -0.477438
9.55 -0.476962
9.56 -0.473552
9.57 -0.468566
9.58 -0.463076
9.59 -0.458314
9.6 -0.455142
9.61 -0.454801
9.62 -0.457615
9.63 -0.464244
9.64 -0.474892
9.65 -0.489271
9.66 -0.507588
9.67 -0.52887
9.68 -0.552882
9.69 -0.578735
9.7 -0.605784
9.71 -0.633353
9.72 -0.660845
9.73 -0.687712
9.74 -0.713686
9.75 -0.738498
9.76 -0.762045
9.77 -0.784389
9.78 -0.805368
9.79 -0.825125
9.8 -0.843329
9.81 -0.859688
9.82 -0.873587
9.83 -0.883743
9.84 -0.889305
9.85 -0.887515
9.86 -0.877069
9.87 -0.854842
9.88 -0.817743
9.89 -0.763958
9.9 -0.687634
9.91 -0.589007
9.92 -0.462481
9.93 -0.307546
9.94 -0.122658
9.95 0.0950052
9.96 0.341669
9.97 0.620628
9.98 0.925428
9.99 1.2545
10 1.60273
10.01 1.96376
10.02 2.33185
10.03 2.69908
10.04 3.05741
10.05 3.39913
10.06 3.71694
10.07 4.00097
10.08 4.24878
10.09 4.44803
10.1 4.6001
10.11 4.69839
10.12 4.741
10.13 4.73118
10.14 4.66307
10.15 4.54729
10.16 4.38204
10.17 4.17604
10.18 3.93499
10.19 3.66432
10.2 3.37397
10.21 3.0691
10.22 2.75889
10.23 2.44963
10.24 2.14817
10.25 1.85895
10.26 1.58883
10.27 1.33845
10.28 1.11266
10.29 0.911133
10.3 0.734059
10.31 0.582217
10.32 0.451395
10.33 0.342528
10.34 0.250202
10.35 0.172741
10.36 0.106794
10.37 0.0489029
10.38 -0.0030422
10.39 -0.0522561
10.4 -0.100553
10.41 -0.149725
10.42 -0.200869
10.43 -0.254917
10.44 -0.311798
10.45 -0.371845
10.46 -0.434226
10.47 -0.498443
10.48 -0.563567
10.49 -0.628683
10.5 -0.69267
10.51 -0.754773
10.52 -0.813858
10.53 -0.869308
10.54 -0.920516
10.55 -0.966604
10.56 -1.00777
10.57 -1.0429
10.58 -1.07252
10.59 -1.09611
10.6 -1.1136
10.61 -1.12535
10.62 -1.13054
10.63 -1.1301
10.64 -1.12339
10.65 -1.11092
10.66 -1.09283
10.67 -1.06904
10.68 -1.04046
10.69 -1.00685
10.7 -0.969401
10.71 -0.928534
10.72 -0.885161
10.73 -0.840309
10.74 -0.794984
10.75 -0.750337
10.76 -0.70765
10.77 -0.668023
10.78 -0.632494
10.79 -0.602491
10.8 -0.578213
10.81 -0.56137
10.82 -0.551559
10.83 -0.549532
10.84 -0.555326
10.85 -0.568236
10.86 -0.588748
10.87 -0.615165
10.88 -0.647344
10.89 -0.683865
10.9 -0.723687
10.91 -0.765719
10.92 -0.808631
10.93 -0.851279
10.94 -0.892613
10.95 -0.931616
10.96 -0.967401
10.97 -0.9996
10.98 -1.02718
10.99 -1.05055
11 -1.0691
11.01 -1.08326
11.02 -1.09332
11.03 -1.09949
11.04 -1.10272
11.05 -1.10327
11.06 -1.1022
11.07 -1.10013
11.08 -1.09785
11.09 -1.09603
11.1 -1.09544
11.11 -1.09638
11.12 -1.09942
11.13 -1.10461
11.14 -1.11192
11.15 -1.1212
11.16 -1.13176
11.17 -1.14297
11.18 -1.15369
11.19 -1.16267
11.2 -1.16822
11.21 -1.16905
11.22 -1.1623
11.23 -1.14713
11.24 -1.12042
11.25 -1.08079
11.26 -1.02654
11.27 -0.954789
11.28 -0.866276
11.29 -0.757265
11.3 -0.629776
11.31 -0.482628
11.32 -0.316521
11.33 -0.133904
11.34 0.0653373
11.35 0.276402
11.36 0.497501
11.37 0.724126
11.38 0.952437
11.39 1.17758
11.4 1.3957
11.41 1.60055
11.42 1.78921
11.43 1.95655
11.44 2.09841
11.45 2.21367
11.46 2.29567
11.47 2.34745
11.48 2.36446
11.49 2.34891
11.5 2.30178
11.51 2.22286
11.52 2.11806
11.53 1.98684
11.54 1.83621
11.55 1.66885
11.56 1.48949
11.57 1.30295
11.58 1.11315
11.59 0.924453
11.6 0.740748
11.61 0.565057
11.62 0.399745
11.63 0.247717
11.64 0.108636
11.65 -0.0147691
11.66 -0.12441
11.67 -0.219925
11.68 -0.302407
11.69 -0.37401
11.7 -0.435063
11.71 -0.488754
11.72 -0.536009
11.73 -0.579003
11.74 -0.619147
11.75 -0.65762
11.76 -0.695434
11.77 -0.733063
11.78 -0.770664
11.79 -0.807991
11.8 -0.844383
11.81 -0.879081
11.82 -0.910494
11.83 -0.937773
11.84 -0.958908
11.85 -0.972691
11.86 -0.977802
11.87 -0.972127
11.88 -0.955839
11.89 -0.92627
11.9 -0.884413
11.91 -0.829208
11.92 -0.760701
11.93 -0.680212
11.94 -0.586927
11.95 -0.483739
11.96 -0.370923
11.97 -0.250885
11.98 -0.125482
11.99 0.00325169
12 0.132854
12.01 0.260856
12.02 0.385066
12.03 0.503014
12.04 0.612276
12.05 0.711635
12.06 0.797584
12.07 0.870541
12.08 0.927692
12.09 0.969081
12.1 0.99434
12.11 1.00221
12.12 0.994923
12.13 0.970856
12.14 0.933065
12.15 0.881978
12.16 0.819327
12.17 0.747593
12.18 0.667764
12.19 0.582985
12.2 0.494783
12.21 0.40549
12.22 0.316853
12.23 0.230799
12.24 0.148327
12.25 0.0712239
12.26 -0.000371077
12.27 -0.0656945
12.28 -0.124617
12.29 -0.177787
12.3 -0.224937
12.31 -0.267609
12.32 -0.306155
12.33 -0.341838
12.34 -0.37558
12.35 -0.408265
12.36 -0.440724
12.37 -0.473558
12.38 -0.507047
12.39 -0.541268
