# xPDFsuite Configuration #
[PDF]
wavelength = 0.1432
dataformat = twotheta
inputfile = 1_1Pd_CeO2_cycle-00485.chi
backgroundfile = background-00000.chi
mode = xray
bgscale = 1.007
composition = CeO2
outputtype = gr
qmaxinst = 28.8974762299
qmin = 0.5
qmax = 27.9
rmax = 50.0
rmin = 0.0
rstep = 0.01
rpoly = 1.8657

[Misc]
inputdir = G:/SankarDec16/1Pd/Chi
savedir = D:/DATA/APS_CeO2/1Pd
backgroundfilefull = G:/SankarDec16/Background/background-00000.chi

#### start data
#S 1
#L r($\AA$)  G($\AA^{-2}$)
0 0
0.01 -0.00350972
0.02 -0.00675212
0.03 -0.0094522
0.04 -0.0114033
0.05 -0.0124912
0.06 -0.0125326
0.07 -0.0116527
0.08 -0.0097954
0.09 -0.00719839
0.1 -0.00402748
0.11 -0.000534863
0.12 0.00300796
0.13 0.00629309
0.14 0.00910864
0.15 0.0111915
0.16 0.012392
0.17 0.0126539
0.18 0.0118585
0.19 0.0101932
0.2 0.0076744
0.21 0.00458103
0.22 0.00112119
0.23 -0.00242113
0.24 -0.00579314
0.25 -0.00866346
0.26 -0.0108874
0.27 -0.0122285
0.28 -0.0126024
0.29 -0.0120144
0.3 -0.010417
0.31 -0.00804988
0.32 -0.00500093
0.33 -0.00157517
0.34 0.00198854
0.35 0.00538996
0.36 0.00840918
0.37 0.0107098
0.38 0.0122224
0.39 0.0127507
0.4 0.0122806
0.41 0.0108787
0.42 0.00857202
0.43 0.00563916
0.44 0.00223503
0.45 -0.001326
0.46 -0.00478769
0.47 -0.00784995
0.48 -0.0103384
0.49 -0.0119303
0.5 -0.0126359
0.51 -0.0123102
0.52 -0.0110108
0.53 -0.00886211
0.54 -0.00596477
0.55 -0.00262096
0.56 0.000955671
0.57 0.00445874
0.58 0.00762895
0.59 0.010183
0.6 0.0120022
0.61 0.0127958
0.62 0.0126535
0.63 0.0114902
0.64 0.00943224
0.65 0.00665567
0.66 0.0033295
0.67 -0.000237156
0.68 -0.00378356
0.69 -0.00702829
0.7 -0.0097236
0.71 -0.0116187
0.72 -0.0126575
0.73 -0.0125972
0.74 -0.0116023
0.75 -0.00965219
0.76 -0.00693447
0.77 -0.00366635
0.78 -7.47264e-05
0.79 0.00354234
0.8 0.00689386
0.81 0.00974003
0.82 0.0118606
0.83 0.0130533
0.84 0.0133282
0.85 0.0125073
0.86 0.0108188
0.87 0.00830835
0.88 0.0052124
0.89 0.00177368
0.9 -0.0017401
0.91 -0.00506531
0.92 -0.00790646
0.93 -0.0100882
0.94 -0.0114423
0.95 -0.0118428
0.96 -0.0113736
0.97 -0.0099601
0.98 -0.00788408
0.99 -0.0052791
1 -0.00242891
1.01 0.000406058
1.02 0.00290875
1.03 0.00488096
1.04 0.0060216
1.05 0.00625225
1.06 0.00547685
1.07 0.00367429
1.08 0.00103629
1.09 -0.00236845
1.1 -0.00616745
1.11 -0.0100875
1.12 -0.0137463
1.13 -0.0168218
1.14 -0.0188577
1.15 -0.0197015
1.16 -0.0189338
1.17 -0.0165471
1.18 -0.0124465
1.19 -0.00663532
1.2 0.0005681
1.21 0.00909502
1.22 0.0183901
1.23 0.0281041
1.24 0.0377085
1.25 0.0467491
1.26 0.0546039
1.27 0.0609937
1.28 0.0652917
1.29 0.0673643
1.3 0.0669445
1.31 0.0638265
1.32 0.0582877
1.33 0.0500494
1.34 0.0397449
1.35 0.0274885
1.36 0.0137726
1.37 -0.00092443
1.38 -0.01614
1.39 -0.0313265
1.4 -0.0459411
1.41 -0.0595394
1.42 -0.0716775
1.43 -0.0818755
1.44 -0.0900405
1.45 -0.0955309
1.46 -0.0985747
1.47 -0.0988319
1.48 -0.0963608
1.49 -0.0913149
1.5 -0.0835566
1.51 -0.0736098
1.52 -0.0614375
1.53 -0.0475611
1.54 -0.0322751
1.55 -0.0159831
1.56 0.000811395
1.57 0.0176376
1.58 0.0339898
1.59 0.0493122
1.6 0.0630846
1.61 0.0749209
1.62 0.0841039
1.63 0.0906123
1.64 0.0937548
1.65 0.0936297
1.66 0.0900693
1.67 0.0829997
1.68 0.0729361
1.69 0.0597284
1.7 0.0442917
1.71 0.0269639
1.72 0.0085087
1.73 -0.0103689
1.74 -0.0288613
1.75 -0.0463259
1.76 -0.0618955
1.77 -0.0751336
1.78 -0.085545
1.79 -0.0926953
1.8 -0.0968082
1.81 -0.0974491
1.82 -0.0954077
1.83 -0.090872
1.84 -0.0845744
1.85 -0.0772577
1.86 -0.0697346
1.87 -0.0628146
1.88 -0.0574299
1.89 -0.0541766
1.9 -0.0536496
1.91 -0.0563796
1.92 -0.0621922
1.93 -0.0715419
1.94 -0.0835927
1.95 -0.098069
1.96 -0.114092
1.97 -0.13076
1.98 -0.146965
1.99 -0.161748
2 -0.173773
2.01 -0.182258
2.02 -0.186302
2.03 -0.184996
2.04 -0.178488
2.05 -0.165668
2.06 -0.147552
2.07 -0.123957
2.08 -0.0956414
2.09 -0.0634809
2.1 -0.0280561
2.11 0.00932398
2.12 0.0479254
2.13 0.0867277
2.14 0.125019
2.15 0.162122
2.16 0.197804
2.17 0.231616
2.18 0.26387
2.19 0.294641
2.2 0.32437
2.21 0.353532
2.22 0.382631
2.23 0.412109
2.24 0.44239
2.25 0.473584
2.26 0.505669
2.27 0.538337
2.28 0.571012
2.29 0.602717
2.3 0.632513
2.31 0.658954
2.32 0.680631
2.33 0.696439
2.34 0.704184
2.35 0.703781
2.36 0.693117
2.37 0.672481
2.38 0.641438
2.39 0.599857
2.4 0.549438
2.41 0.489985
2.42 0.424376
2.43 0.353885
2.44 0.280946
2.45 0.207732
2.46 0.136803
2.47 0.0698841
2.48 0.00954012
2.49 -0.0432101
2.5 -0.0871366
2.51 -0.121219
2.52 -0.146387
2.53 -0.161623
2.54 -0.169325
2.55 -0.170117
2.56 -0.166004
2.57 -0.158933
2.58 -0.150834
2.59 -0.143653
2.6 -0.139358
2.61 -0.139183
2.62 -0.144213
2.63 -0.155313
2.64 -0.171962
2.65 -0.194677
2.66 -0.221743
2.67 -0.252384
2.68 -0.2849
2.69 -0.317697
2.7 -0.348877
2.71 -0.377142
2.72 -0.40063
2.73 -0.418664
2.74 -0.430495
2.75 -0.43565
2.76 -0.435046
2.77 -0.428524
2.78 -0.418067
2.79 -0.404725
2.8 -0.390356
2.81 -0.376597
2.82 -0.36545
2.83 -0.358008
2.84 -0.356072
2.85 -0.360022
2.86 -0.370347
2.87 -0.387176
2.88 -0.409304
2.89 -0.436426
2.9 -0.466386
2.91 -0.497771
2.92 -0.528535
2.93 -0.556996
2.94 -0.580905
2.95 -0.599455
2.96 -0.61075
2.97 -0.614761
2.98 -0.611207
2.99 -0.600237
3 -0.583436
3.01 -0.561379
3.02 -0.53655
3.03 -0.510613
3.04 -0.485805
3.05 -0.463892
3.06 -0.447226
3.07 -0.436476
3.08 -0.433478
3.09 -0.438026
3.1 -0.450181
3.11 -0.46951
3.12 -0.494224
3.13 -0.523407
3.14 -0.554522
3.15 -0.585732
3.16 -0.614829
3.17 -0.64019
3.18 -0.659622
3.19 -0.672864
3.2 -0.6785
3.21 -0.677258
3.22 -0.669626
3.23 -0.656738
3.24 -0.640703
3.25 -0.623411
3.26 -0.607356
3.27 -0.594971
3.28 -0.588537
3.29 -0.589488
3.3 -0.600207
3.31 -0.620098
3.32 -0.650403
3.33 -0.689443
3.34 -0.736015
3.35 -0.78807
3.36 -0.842681
3.37 -0.89687
3.38 -0.947616
3.39 -0.991649
3.4 -1.02624
3.41 -1.04987
3.42 -1.05967
3.43 -1.05694
3.44 -1.04037
3.45 -1.01254
3.46 -0.97526
3.47 -0.931377
3.48 -0.884662
3.49 -0.83888
3.5 -0.797551
3.51 -0.764358
3.52 -0.741996
3.53 -0.731563
3.54 -0.735034
3.55 -0.749796
3.56 -0.774929
3.57 -0.805603
3.58 -0.837053
3.59 -0.862227
3.6 -0.875244
3.61 -0.865085
3.62 -0.827198
3.63 -0.751588
3.64 -0.631836
3.65 -0.464965
3.66 -0.241295
3.67 0.0333369
3.68 0.365144
3.69 0.746048
3.7 1.17182
3.71 1.63554
3.72 2.12426
3.73 2.6286
3.74 3.13316
3.75 3.62417
3.76 4.08651
3.77 4.50883
3.78 4.87179
3.79 5.17243
3.8 5.39258
3.81 5.53197
3.82 5.5851
3.83 5.5469
3.84 5.42835
3.85 5.22101
3.86 4.94475
3.87 4.60247
3.88 4.20776
3.89 3.77444
3.9 3.31313
3.91 2.84013
3.92 2.36745
3.93 1.90754
3.94 1.47061
3.95 1.06762
3.96 0.701272
3.97 0.383306
3.98 0.109425
3.99 -0.115823
4 -0.29496
4.01 -0.432871
4.02 -0.529744
4.03 -0.595993
4.04 -0.633738
4.05 -0.651751
4.06 -0.655308
4.07 -0.649993
4.08 -0.641145
4.09 -0.632778
4.1 -0.627835
4.11 -0.628564
4.12 -0.635901
4.13 -0.649576
4.14 -0.669445
4.15 -0.693348
4.16 -0.719836
4.17 -0.746454
4.18 -0.771102
4.19 -0.791302
4.2 -0.805795
4.21 -0.811829
4.22 -0.809472
4.23 -0.797301
4.24 -0.775275
4.25 -0.744033
4.26 -0.703135
4.27 -0.654646
4.28 -0.598644
4.29 -0.536951
4.3 -0.470574
4.31 -0.400577
4.32 -0.328286
4.33 -0.254377
4.34 -0.179871
4.35 -0.105362
4.36 -0.0314553
4.37 0.0414334
4.38 0.112663
4.39 0.182009
4.4 0.248672
4.41 0.312249
4.42 0.372022
4.43 0.426924
4.44 0.476661
4.45 0.519273
4.46 0.554803
4.47 0.581701
4.48 0.599236
4.49 0.607232
4.5 0.604024
4.51 0.590883
4.52 0.566555
4.53 0.532361
4.54 0.488767
4.55 0.436433
4.56 0.377378
4.57 0.312103
4.58 0.243051
4.59 0.171487
4.6 0.0992179
4.61 0.0276798
4.62 -0.0414597
4.63 -0.107411
4.64 -0.168792
4.65 -0.225324
4.66 -0.276602
4.67 -0.322313
4.68 -0.363208
4.69 -0.398932
4.7 -0.430773
4.71 -0.459036
4.72 -0.484552
4.73 -0.508084
4.74 -0.530106
4.75 -0.5513
4.76 -0.571944
4.77 -0.592307
4.78 -0.612442
4.79 -0.632246
4.8 -0.651577
4.81 -0.670028
4.82 -0.687393
4.83 -0.703244
4.84 -0.717281
4.85 -0.729379
4.86 -0.739143
4.87 -0.746856
4.88 -0.752339
4.89 -0.755986
4.9 -0.758053
4.91 -0.75889
4.92 -0.759014
4.93 -0.758812
4.94 -0.758756
4.95 -0.759231
4.96 -0.760561
4.97 -0.762903
4.98 -0.766513
4.99 -0.771239
5 -0.777151
5.01 -0.783995
5.02 -0.791592
5.03 -0.799716
5.04 -0.808091
5.05 -0.816501
5.06 -0.824748
5.07 -0.83267
5.08 -0.840153
5.09 -0.847148
5.1 -0.853523
5.11 -0.85929
5.12 -0.86424
5.13 -0.868232
5.14 -0.870956
5.15 -0.871843
5.16 -0.870532
5.17 -0.865756
5.18 -0.85704
5.19 -0.842964
5.2 -0.822315
5.21 -0.794279
5.22 -0.756548
5.23 -0.709323
5.24 -0.650334
5.25 -0.579805
5.26 -0.497229
5.27 -0.402112
5.28 -0.296276
5.29 -0.179145
5.3 -0.0538966
5.31 0.0780976
5.32 0.213918
5.33 0.350662
5.34 0.4847
5.35 0.61312
5.36 0.731525
5.37 0.837194
5.38 0.926989
5.39 0.997073
5.4 1.04751
5.41 1.07317
5.42 1.07659
5.43 1.0557
5.44 1.01156
5.45 0.946548
5.46 0.860443
5.47 0.758497
5.48 0.641822
5.49 0.515125
5.5 0.381618
5.51 0.245005
5.52 0.108789
5.53 -0.0232466
5.54 -0.14878
5.55 -0.264864
5.56 -0.369564
5.57 -0.46221
5.58 -0.540404
5.59 -0.605809
5.6 -0.656958
5.61 -0.695633
5.62 -0.722542
5.63 -0.738416
5.64 -0.745603
5.65 -0.744174
5.66 -0.736606
5.67 -0.723509
5.68 -0.706048
5.69 -0.685165
5.7 -0.661093
5.71 -0.634596
5.72 -0.605539
5.73 -0.574172
5.74 -0.540425
5.75 -0.504116
5.76 -0.465502
5.77 -0.424286
5.78 -0.38105
5.79 -0.336008
5.8 -0.289826
5.81 -0.243265
5.82 -0.197363
5.83 -0.153058
5.84 -0.111788
5.85 -0.0745666
5.86 -0.0425479
5.87 -0.0171889
5.88 0.00139197
5.89 0.0112727
5.9 0.0132118
5.91 0.00638581
5.92 -0.00891537
5.93 -0.0318633
5.94 -0.0626083
5.95 -0.0992437
5.96 -0.141411
5.97 -0.187433
5.98 -0.2362
5.99 -0.286491
6 -0.337113
6.01 -0.386981
6.02 -0.435373
6.03 -0.481555
6.04 -0.525115
6.05 -0.566011
6.06 -0.603908
6.07 -0.639359
6.08 -0.67234
6.09 -0.703418
6.1 -0.732932
6.11 -0.761215
6.12 -0.788678
6.13 -0.815429
6.14 -0.841665
6.15 -0.86732
6.16 -0.892251
6.17 -0.916276
6.18 -0.938926
6.19 -0.96005
6.2 -0.979085
6.21 -0.995875
6.22 -1.01018
6.23 -1.02174
6.24 -1.03085
6.25 -1.03724
6.26 -1.04154
6.27 -1.04386
6.28 -1.04463
6.29 -1.04422
6.3 -1.04271
6.31 -1.0403
6.32 -1.03663
6.33 -1.03123
6.34 -1.0232
6.35 -1.01093
6.36 -0.993252
6.37 -0.966815
6.38 -0.930257
6.39 -0.879966
6.4 -0.812876
6.41 -0.727118
6.42 -0.61701
6.43 -0.483304
6.44 -0.320639
6.45 -0.129642
6.46 0.0907203
6.47 0.341751
6.48 0.619045
6.49 0.924259
6.5 1.25006
6.51 1.59361
6.52 1.9485
6.53 2.30814
6.54 2.66476
6.55 3.01138
6.56 3.33832
6.57 3.63879
6.58 3.90533
6.59 4.12835
6.6 4.307
6.61 4.42834
6.62 4.49659
6.63 4.50538
6.64 4.45505
6.65 4.34989
6.66 4.18622
6.67 3.97599
6.68 3.719
6.69 3.42584
6.7 3.1032
6.71 2.75865
6.72 2.40216
6.73 2.04126
6.74 1.68462
6.75 1.33982
6.76 1.0139
6.77 0.710897
6.78 0.438736
6.79 0.196257
6.8 -0.0107355
6.81 -0.18429
6.82 -0.324541
6.83 -0.431447
6.84 -0.510772
6.85 -0.561448
6.86 -0.590894
6.87 -0.601086
6.88 -0.596465
6.89 -0.581244
6.9 -0.558047
6.91 -0.530845
6.92 -0.501778
6.93 -0.473099
6.94 -0.4462
6.95 -0.42227
6.96 -0.40147
6.97 -0.384492
6.98 -0.370702
6.99 -0.36007
7 -0.352162
7.01 -0.34651
7.02 -0.343109
7.03 -0.341552
7.04 -0.342152
7.05 -0.34501
7.06 -0.350534
7.07 -0.359466
7.08 -0.371979
7.09 -0.389333
7.1 -0.411391
7.11 -0.43889
7.12 -0.471926
7.13 -0.510098
7.14 -0.553604
7.15 -0.601067
7.16 -0.651987
7.17 -0.704839
7.18 -0.758342
7.19 -0.810857
7.2 -0.861121
7.21 -0.907137
7.22 -0.9482
7.23 -0.982917
7.24 -1.01059
7.25 -1.03129
7.26 -1.04415
7.27 -1.05062
7.28 -1.05065
7.29 -1.04577
7.3 -1.03711
7.31 -1.02592
7.32 -1.01368
7.33 -1.00158
7.34 -0.990574
7.35 -0.981393
7.36 -0.974298
7.37 -0.969009
7.38 -0.965017
7.39 -0.961091
7.4 -0.955663
7.41 -0.946906
7.42 -0.932843
7.43 -0.910728
7.44 -0.879473
7.45 -0.835337
7.46 -0.778367
7.47 -0.706361
7.48 -0.618766
7.49 -0.516441
7.5 -0.398256
7.51 -0.267657
7.52 -0.125163
7.53 0.0255809
7.54 0.18169
7.55 0.339496
7.56 0.49538
7.57 0.644659
7.58 0.784419
7.59 0.910466
7.6 1.01953
7.61 1.11022
7.62 1.17788
7.63 1.22441
7.64 1.24651
7.65 1.24615
7.66 1.22398
7.67 1.18043
7.68 1.11967
7.69 1.04168
7.7 0.951528
7.71 0.851153
7.72 0.743953
7.73 0.633018
7.74 0.521091
7.75 0.410747
7.76 0.30452
7.77 0.204095
7.78 0.110947
7.79 0.0267887
7.8 -0.0486124
7.81 -0.113259
7.82 -0.168351
7.83 -0.213145
7.84 -0.247953
7.85 -0.27366
7.86 -0.289606
7.87 -0.297631
7.88 -0.297355
7.89 -0.290098
7.9 -0.276513
7.91 -0.257181
7.92 -0.233574
7.93 -0.206162
7.94 -0.176601
7.95 -0.145944
7.96 -0.115671
7.97 -0.0870463
7.98 -0.0619504
7.99 -0.0412774
8 -0.0270163
8.01 -0.0200003
8.02 -0.0212608
8.03 -0.0321634
8.04 -0.0521051
8.05 -0.082723
8.06 -0.122379
8.07 -0.17118
8.08 -0.227986
8.09 -0.291156
8.1 -0.359722
8.11 -0.431269
8.12 -0.504239
8.13 -0.576557
8.14 -0.64653
8.15 -0.712192
8.16 -0.772754
8.17 -0.826176
8.18 -0.872679
8.19 -0.911396
8.2 -0.942408
8.21 -0.966468
8.22 -0.983339
8.23 -0.994721
8.24 -1.00077
8.25 -1.00267
8.26 -1.001
8.27 -0.995974
8.28 -0.987982
8.29 -0.976131
8.3 -0.960105
8.31 -0.938354
8.32 -0.909114
8.33 -0.871016
8.34 -0.820324
8.35 -0.756511
8.36 -0.675512
8.37 -0.57636
8.38 -0.457342
8.39 -0.315985
8.4 -0.154289
8.41 0.0306799
8.42 0.234636
8.43 0.456908
8.44 0.693962
8.45 0.941307
8.46 1.19483
8.47 1.44853
8.48 1.69638
8.49 1.93243
8.5 2.15095
8.51 2.34438
8.52 2.5106
8.53 2.63999
8.54 2.7336
8.55 2.78613
8.56 2.79627
8.57 2.76633
8.58 2.69213
8.59 2.58181
8.6 2.43417
8.61 2.25627
8.62 2.05262
8.63 1.82794
8.64 1.58989
8.65 1.34309
8.66 1.09459
8.67 0.849691
8.68 0.613876
8.69 0.390583
8.7 0.185605
8.71 -0.00095833
8.72 -0.164889
8.73 -0.306811
8.74 -0.426547
8.75 -0.523547
8.76 -0.601542
8.77 -0.659583
8.78 -0.702571
8.79 -0.731859
8.8 -0.750452
8.81 -0.761408
8.82 -0.766607
8.83 -0.769023
8.84 -0.770348
8.85 -0.772356
8.86 -0.776207
8.87 -0.782976
8.88 -0.792791
8.89 -0.806328
8.9 -0.822983
8.91 -0.84265
8.92 -0.864754
8.93 -0.888591
8.94 -0.913637
8.95 -0.939101
8.96 -0.964413
8.97 -0.989033
8.98 -1.01256
8.99 -1.03456
9 -1.05501
9.01 -1.07352
9.02 -1.09029
9.03 -1.1052
9.04 -1.11829
9.05 -1.1297
9.06 -1.13922
9.07 -1.14706
9.08 -1.1529
9.09 -1.15668
9.1 -1.15814
9.11 -1.15678
9.12 -1.15252
9.13 -1.1444
9.14 -1.13243
9.15 -1.11585
9.16 -1.09422
9.17 -1.06749
9.18 -1.03467
9.19 -0.996427
9.2 -0.952084
9.21 -0.902236
9.22 -0.847198
9.23 -0.787273
9.24 -0.723681
9.25 -0.656882
9.26 -0.588399
9.27 -0.519314
9.28 -0.451095
9.29 -0.384955
9.3 -0.322792
9.31 -0.265362
9.32 -0.214561
9.33 -0.171096
9.34 -0.135833
9.35 -0.110019
9.36 -0.0929573
9.37 -0.0861448
9.38 -0.0880323
9.39 -0.0987276
9.4 -0.11728
9.41 -0.142219
9.42 -0.172921
9.43 -0.207212
9.44 -0.243968
9.45 -0.281406
9.46 -0.318149
9.47 -0.352636
9.48 -0.384059
9.49 -0.410896
9.5 -0.433101
9.51 -0.450027
9.52 -0.461693
9.53 -0.468696
9.54 -0.471067
9.55 -0.470219
9.56 -0.466768
9.57 -0.462043
9.58 -0.457104
9.59 -0.453182
9.6 -0.451085
9.61 -0.45206
9.62 -0.456366
9.63 -0.464635
9.64 -0.477019
9.65 -0.493172
9.66 -0.51323
9.67 -0.536152
9.68 -0.561603
9.69 -0.588611
9.7 -0.616435
9.71 -0.644266
9.72 -0.671471
9.73 -0.69731
9.74 -0.721527
9.75 -0.74374
9.76 -0.763809
9.77 -0.781845
9.78 -0.797602
9.79 -0.811415
9.8 -0.822975
9.81 -0.832193
9.82 -0.838632
9.83 -0.841245
9.84 -0.839429
9.85 -0.830767
9.86 -0.814195
9.87 -0.786933
9.88 -0.74621
9.89 -0.690371
9.9 -0.614059
9.91 -0.517418
9.92 -0.395249
9.93 -0.246976
9.94 -0.0710722
9.95 0.135198
9.96 0.368448
9.97 0.631879
9.98 0.919584
9.99 1.23022
10 1.55911
10.01 1.90036
10.02 2.24874
10.03 2.59678
10.04 2.93706
10.05 3.26231
10.06 3.5657
10.07 3.83795
10.08 4.0767
10.09 4.27039
10.1 4.42022
10.11 4.51996
10.12 4.56776
10.13 4.5666
10.14 4.51091
10.15 4.41057
10.16 4.26379
10.17 4.07864
10.18 3.86034
10.19 3.6138
10.2 3.34824
10.21 3.06819
10.22 2.78216
10.23 2.49578
10.24 2.21523
10.25 1.94458
10.26 1.68983
10.27 1.45171
10.28 1.2344
10.29 1.0377
10.3 0.861794
10.31 0.707356
10.32 0.57083
10.33 0.453071
10.34 0.349548
10.35 0.258964
10.36 0.17865
10.37 0.105816
10.38 0.039027
10.39 -0.0243447
10.4 -0.0854383
10.41 -0.145617
10.42 -0.205615
10.43 -0.265914
10.44 -0.326604
10.45 -0.387615
10.46 -0.448594
10.47 -0.509112
10.48 -0.568625
10.49 -0.626731
10.5 -0.682677
10.51 -0.736352
10.52 -0.787109
10.53 -0.834841
10.54 -0.87935
10.55 -0.920233
10.56 -0.957768
10.57 -0.991264
10.58 -1.02106
10.59 -1.04671
10.6 -1.06796
10.61 -1.08483
10.62 -1.09636
10.63 -1.10298
10.64 -1.10374
10.65 -1.09876
10.66 -1.08788
10.67 -1.07065
10.68 -1.0479
10.69 -1.0191
10.7 -0.985508
10.71 -0.947504
10.72 -0.906101
10.73 -0.86252
10.74 -0.817883
10.75 -0.773617
10.76 -0.731176
10.77 -0.691853
10.78 -0.656812
10.79 -0.627582
10.8 -0.604337
10.81 -0.588767
10.82 -0.580306
10.83 -0.579532
10.84 -0.586232
10.85 -0.59949
10.86 -0.619421
10.87 -0.644235
10.88 -0.67347
10.89 -0.705668
10.9 -0.739766
10.91 -0.774654
10.92 -0.809324
10.93 -0.842767
10.94 -0.87443
10.95 -0.903698
10.96 -0.930231
10.97 -0.9541
10.98 -0.974993
10.99 -0.993518
11 -1.00971
11.01 -1.02412
11.02 -1.03716
11.03 -1.04921
11.04 -1.06073
11.05 -1.07199
11.06 -1.08326
11.07 -1.09467
11.08 -1.10627
11.09 -1.11798
11.1 -1.12964
11.11 -1.14101
11.12 -1.15173
11.13 -1.16146
11.14 -1.16979
11.15 -1.1761
11.16 -1.18015
11.17 -1.18095
11.18 -1.17826
11.19 -1.17121
11.2 -1.15895
11.21 -1.14108
11.22 -1.11577
11.23 -1.08309
11.24 -1.04103
11.25 -0.989035
11.26 -0.926083
11.27 -0.850223
11.28 -0.762025
11.29 -0.658644
11.3 -0.541373
11.31 -0.409047
11.32 -0.261801
11.33 -0.101169
11.34 0.0735122
11.35 0.258742
11.36 0.453635
11.37 0.654809
11.38 0.859353
11.39 1.06356
11.4 1.26397
11.41 1.45553
11.42 1.63522
11.43 1.79839
11.44 1.94093
11.45 2.06121
11.46 2.15278
11.47 2.21754
11.48 2.25069
11.49 2.25348
11.5 2.22615
11.51 2.16772
11.52 2.08333
11.53 1.97165
11.54 1.83917
11.55 1.68803
11.56 1.52253
11.57 1.34744
11.58 1.16621
11.59 0.983634
11.6 0.803411
11.61 0.628963
11.62 0.462938
11.63 0.308493
11.64 0.165832
11.65 0.0379325
11.66 -0.0766219
11.67 -0.177154
11.68 -0.264408
11.69 -0.340309
11.7 -0.404873
11.71 -0.461245
11.72 -0.51015
11.73 -0.553785
11.74 -0.593578
11.75 -0.630711
11.76 -0.666406
11.77 -0.701179
11.78 -0.735455
11.79 -0.769152
11.8 -0.801849
11.81 -0.833
11.82 -0.861302
11.83 -0.886066
11.84 -0.905576
11.85 -0.918774
11.86 -0.924492
11.87 -0.920845
11.88 -0.907926
11.89 -0.883315
11.9 -0.847794
11.91 -0.800316
11.92 -0.740778
11.93 -0.670234
11.94 -0.587722
11.95 -0.495733
11.96 -0.394253
11.97 -0.285304
11.98 -0.170409
11.99 -0.0511641
12 0.0701508
12.01 0.19157
12.02 0.310921
12.03 0.425992
12.04 0.534445
12.05 0.634905
12.06 0.724031
12.07 0.801774
12.08 0.865257
12.09 0.914104
12.1 0.947615
12.11 0.964163
12.12 0.9656
12.13 0.949905
12.14 0.919863
12.15 0.875615
12.16 0.818687
12.17 0.751544
12.18 0.67498
12.19 0.592387
12.2 0.505298
12.21 0.416314
12.22 0.327411
12.23 0.240776
12.24 0.157694
12.25 0.0802333
12.26 0.00872904
12.27 -0.0558613
12.28 -0.113287
12.29 -0.164216
12.3 -0.208316
12.31 -0.247345
12.32 -0.281761
12.33 -0.313083
12.34 -0.34247
12.35 -0.371101
12.36 -0.400008
12.37 -0.430123
