# xPDFsuite Configuration #
[PDF]
wavelength = 0.1432
dataformat = twotheta
inputfile = 1_1Pd_CeO2_cycle-00103.chi
backgroundfile = background-00000.chi
mode = xray
bgscale = 1.007
composition = CeO2
outputtype = gr
qmaxinst = 28.8974762299
qmin = 0.5
qmax = 27.9
rmax = 50.0
rmin = 0.0
rstep = 0.01
rpoly = 1.8657

[Misc]
inputdir = G:/SankarDec16/1Pd/Chi
savedir = D:/DATA/APS_CeO2/1Pd
backgroundfilefull = G:/SankarDec16/Background/background-00000.chi

#### start data
#S 1
#L r($\AA$)  G($\AA^{-2}$)
0 0
0.01 -0.006193
0.02 -0.0119181
0.03 -0.0166934
0.04 -0.0201566
0.05 -0.022106
0.06 -0.0222182
0.07 -0.02071
0.08 -0.017479
0.09 -0.0129385
0.1 -0.00737555
0.11 -0.0012283
0.12 0.00502692
0.13 0.0108542
0.14 0.0158767
0.15 0.0196316
0.16 0.0218497
0.17 0.0224253
0.18 0.0211407
0.19 0.0183167
0.2 0.0139701
0.21 0.008584
0.22 0.00251628
0.23 -0.00374062
0.24 -0.00973962
0.25 -0.0149036
0.26 -0.0189655
0.27 -0.0215046
0.28 -0.0223586
0.29 -0.0215229
0.3 -0.018897
0.31 -0.0148894
0.32 -0.00963582
0.33 -0.00366519
0.34 0.00261152
0.35 0.00867178
0.36 0.0141203
0.37 0.0183676
0.38 0.0212697
0.39 0.0224692
0.4 0.021919
0.41 0.0197164
0.42 0.0158831
0.43 0.0108956
0.44 0.00500178
0.45 -0.00124957
0.46 -0.00741502
0.47 -0.0129677
0.48 -0.0175842
0.49 -0.020692
0.5 -0.0222779
0.51 -0.0220661
0.52 -0.0201276
0.53 -0.0166567
0.54 -0.0117972
0.55 -0.00606994
0.56 0.000177087
0.57 0.00640238
0.58 0.0121523
0.59 0.0169218
0.6 0.0204759
0.61 0.0222881
0.62 0.022477
0.63 0.0208625
0.64 0.0176305
0.65 0.0130635
0.66 0.00742058
0.67 0.00124091
0.68 -0.00504454
0.69 -0.0109284
0.7 -0.01597
0.71 -0.0197108
0.72 -0.022017
0.73 -0.022434
0.74 -0.0212066
0.75 -0.0182595
0.76 -0.013884
0.77 -0.00843571
0.78 -0.00227527
0.79 0.00406784
0.8 0.0101036
0.81 0.0153854
0.82 0.01951
0.83 0.0220912
0.84 0.0231033
0.85 0.0221915
0.86 0.0197129
0.87 0.0157026
0.88 0.0105418
0.89 0.00463876
0.9 -0.00156479
0.91 -0.00758231
0.92 -0.0128968
0.93 -0.0171542
0.94 -0.0200205
0.95 -0.0212171
0.96 -0.0208381
0.97 -0.0186736
0.98 -0.015181
0.99 -0.0105303
1 -0.00518842
1.01 0.000394681
1.02 0.00568928
1.03 0.0102883
1.04 0.013648
1.05 0.0155422
1.06 0.0157265
1.07 0.0140566
1.08 0.0107778
1.09 0.00585697
1.1 -0.000114864
1.11 -0.00679238
1.12 -0.0135799
1.13 -0.0199486
1.14 -0.0252048
1.15 -0.028998
1.16 -0.0306569
1.17 -0.0300488
1.18 -0.0269445
1.19 -0.0212438
1.2 -0.0133432
1.21 -0.00322497
1.22 0.00832116
1.23 0.0208678
1.24 0.0336754
1.25 0.0460928
1.26 0.0572837
1.27 0.0667924
1.28 0.0737818
1.29 0.0780208
1.3 0.079144
1.31 0.0768808
1.32 0.071587
1.33 0.0629449
1.34 0.0517822
1.35 0.0382941
1.36 0.0231398
1.37 0.00694164
1.38 -0.00968675
1.39 -0.0261003
1.4 -0.0416423
1.41 -0.0558515
1.42 -0.068276
1.43 -0.0784724
1.44 -0.0864495
1.45 -0.0916624
1.46 -0.0944828
1.47 -0.0947113
1.48 -0.0925402
1.49 -0.0882087
1.5 -0.0817078
1.51 -0.0735195
1.52 -0.0636538
1.53 -0.052506
1.54 -0.0402647
1.55 -0.0271584
1.56 -0.0134966
1.57 0.000513695
1.58 0.0145411
1.59 0.0282852
1.6 0.0413958
1.61 0.0535716
1.62 0.0642849
1.63 0.0733645
1.64 0.0801888
1.65 0.084608
1.66 0.0862815
1.67 0.084869
1.68 0.0805731
1.69 0.0728903
1.7 0.0624518
1.71 0.0492457
1.72 0.0337802
1.73 0.0166198
1.74 -0.00171164
1.75 -0.020414
1.76 -0.0387679
1.77 -0.0560633
1.78 -0.0716425
1.79 -0.0848072
1.8 -0.0954056
1.81 -0.102676
1.82 -0.107026
1.83 -0.108277
1.84 -0.106841
1.85 -0.103258
1.86 -0.0979996
1.87 -0.0919588
1.88 -0.0858466
1.89 -0.0804617
1.9 -0.076489
1.91 -0.0746347
1.92 -0.0750682
1.93 -0.0784443
1.94 -0.0843239
1.95 -0.0927189
1.96 -0.103065
1.97 -0.114681
1.98 -0.126777
1.99 -0.138421
2 -0.148521
2.01 -0.156233
2.02 -0.160675
2.03 -0.160916
2.04 -0.156899
2.05 -0.14753
2.06 -0.133538
2.07 -0.114652
2.08 -0.091445
2.09 -0.0646398
2.1 -0.0346844
2.11 -0.00275309
2.12 0.0305469
2.13 0.0642943
2.14 0.0978823
2.15 0.130764
2.16 0.162756
2.17 0.193636
2.18 0.223729
2.19 0.253314
2.2 0.282952
2.21 0.313186
2.22 0.34478
2.23 0.37807
2.24 0.413707
2.25 0.451657
2.26 0.491866
2.27 0.533919
2.28 0.576918
2.29 0.619706
2.3 0.660872
2.31 0.698579
2.32 0.730918
2.33 0.756366
2.34 0.772069
2.35 0.777738
2.36 0.770592
2.37 0.750839
2.38 0.717803
2.39 0.67118
2.4 0.613053
2.41 0.543034
2.42 0.46479
2.43 0.379887
2.44 0.291455
2.45 0.202334
2.46 0.115854
2.47 0.0343715
2.48 -0.0386978
2.49 -0.10188
2.5 -0.153433
2.51 -0.191851
2.52 -0.218238
2.53 -0.231047
2.54 -0.233385
2.55 -0.225939
2.56 -0.211319
2.57 -0.192124
2.58 -0.170888
2.59 -0.150372
2.6 -0.133274
2.61 -0.121472
2.62 -0.116624
2.63 -0.120168
2.64 -0.131623
2.65 -0.152074
2.66 -0.179352
2.67 -0.212733
2.68 -0.250099
2.69 -0.289362
2.7 -0.328206
2.71 -0.364647
2.72 -0.396293
2.73 -0.421926
2.74 -0.440356
2.75 -0.450685
2.76 -0.453774
2.77 -0.449108
2.78 -0.43899
2.79 -0.424495
2.8 -0.407823
2.81 -0.390986
2.82 -0.376361
2.83 -0.365479
2.84 -0.360551
2.85 -0.36225
2.86 -0.371304
2.87 -0.388017
2.88 -0.411071
2.89 -0.440208
2.9 -0.472887
2.91 -0.507447
2.92 -0.541424
2.93 -0.572757
2.94 -0.598701
2.95 -0.618224
2.96 -0.62899
2.97 -0.630927
2.98 -0.623679
2.99 -0.607441
3 -0.584166
3.01 -0.554639
3.02 -0.52195
3.03 -0.488252
3.04 -0.456391
3.05 -0.428607
3.06 -0.407951
3.07 -0.395222
3.08 -0.39281
3.09 -0.400389
3.1 -0.418005
3.11 -0.445045
3.12 -0.479114
3.13 -0.518931
3.14 -0.561106
3.15 -0.603122
3.16 -0.641972
3.17 -0.675442
3.18 -0.700463
3.19 -0.716665
3.2 -0.721984
3.21 -0.717357
3.22 -0.703346
3.23 -0.681363
3.24 -0.65429
3.25 -0.624507
3.26 -0.595539
3.27 -0.570638
3.28 -0.553013
3.29 -0.544763
3.3 -0.549248
3.31 -0.56593
3.32 -0.596717
3.33 -0.639605
3.34 -0.693216
3.35 -0.755078
3.36 -0.821336
3.37 -0.888326
3.38 -0.951889
3.39 -1.00778
3.4 -1.05225
3.41 -1.08312
3.42 -1.09651
3.43 -1.09381
3.44 -1.07318
3.45 -1.03775
3.46 -0.989782
3.47 -0.932905
3.48 -0.872081
3.49 -0.8123
3.5 -0.758383
3.51 -0.715437
3.52 -0.687407
3.53 -0.676135
3.54 -0.684983
3.55 -0.710878
3.56 -0.753637
3.57 -0.807384
3.58 -0.866618
3.59 -0.923038
3.6 -0.968929
3.61 -0.991373
3.62 -0.983819
3.63 -0.934016
3.64 -0.833505
3.65 -0.677998
3.66 -0.45529
3.67 -0.171657
3.68 0.180931
3.69 0.593265
3.7 1.06066
3.71 1.5752
3.72 2.12134
3.73 2.68826
3.74 3.25723
3.75 3.8119
3.76 4.33408
3.77 4.81006
3.78 5.2169
3.79 5.55091
3.8 5.79075
3.81 5.9362
3.82 5.98108
3.83 5.91994
3.84 5.76609
3.85 5.51068
3.86 5.17738
3.87 4.77066
3.88 4.30721
3.89 3.80362
3.9 3.27359
3.91 2.73575
3.92 2.20518
3.93 1.6958
3.94 1.21946
3.95 0.788643
3.96 0.405264
3.97 0.0827286
3.98 -0.185691
3.99 -0.39563
4 -0.551437
4.01 -0.659977
4.02 -0.722931
4.03 -0.753167
4.04 -0.754519
4.05 -0.737589
4.06 -0.709076
4.07 -0.675996
4.08 -0.64399
4.09 -0.618379
4.1 -0.601364
4.11 -0.595443
4.12 -0.600893
4.13 -0.616566
4.14 -0.64178
4.15 -0.673045
4.16 -0.708194
4.17 -0.743748
4.18 -0.776889
4.19 -0.804442
4.2 -0.824874
4.21 -0.834915
4.22 -0.83485
4.23 -0.823199
4.24 -0.800209
4.25 -0.766883
4.26 -0.723071
4.27 -0.671304
4.28 -0.611968
4.29 -0.547176
4.3 -0.47811
4.31 -0.40594
4.32 -0.331915
4.33 -0.256641
4.34 -0.180881
4.35 -0.104986
4.36 -0.0292564
4.37 0.0461185
4.38 0.120838
4.39 0.194694
4.4 0.26709
4.41 0.337475
4.42 0.405002
4.43 0.46835
4.44 0.526828
4.45 0.578033
4.46 0.621554
4.47 0.655314
4.48 0.678107
4.49 0.689471
4.5 0.687162
4.51 0.67259
4.52 0.644118
4.53 0.603361
4.54 0.550933
4.55 0.487748
4.56 0.416418
4.57 0.337773
4.58 0.254951
4.59 0.169723
4.6 0.084466
4.61 0.00101799
4.62 -0.0783748
4.63 -0.152863
4.64 -0.220641
4.65 -0.281536
4.66 -0.335145
4.67 -0.381215
4.68 -0.420898
4.69 -0.453888
4.7 -0.48199
4.71 -0.505725
4.72 -0.526257
4.73 -0.544606
4.74 -0.561459
4.75 -0.577634
4.76 -0.593517
4.77 -0.609384
4.78 -0.625273
4.79 -0.641037
4.8 -0.656451
4.81 -0.671057
4.82 -0.684595
4.83 -0.69663
4.84 -0.706899
4.85 -0.715345
4.86 -0.721736
4.87 -0.726471
4.88 -0.729623
4.89 -0.731735
4.9 -0.733247
4.91 -0.734716
4.92 -0.736614
4.93 -0.739539
4.94 -0.743703
4.95 -0.749433
4.96 -0.756765
4.97 -0.765529
4.98 -0.775598
4.99 -0.786426
5 -0.797601
5.01 -0.808538
5.02 -0.818738
5.03 -0.82765
5.04 -0.835088
5.05 -0.840575
5.06 -0.844362
5.07 -0.846456
5.08 -0.847241
5.09 -0.847202
5.1 -0.846858
5.11 -0.846774
5.12 -0.847493
5.13 -0.849296
5.14 -0.852296
5.15 -0.856327
5.16 -0.860786
5.17 -0.864678
5.18 -0.866759
5.19 -0.865225
5.2 -0.858013
5.21 -0.843441
5.22 -0.818068
5.23 -0.78127
5.24 -0.729487
5.25 -0.66229
5.26 -0.578446
5.27 -0.476712
5.28 -0.359289
5.29 -0.224895
5.3 -0.077927
5.31 0.0799016
5.32 0.244488
5.33 0.411637
5.34 0.576281
5.35 0.734038
5.36 0.878741
5.37 1.00641
5.38 1.11264
5.39 1.19218
5.4 1.24518
5.41 1.26497
5.42 1.2553
5.43 1.21392
5.44 1.1429
5.45 1.04603
5.46 0.924091
5.47 0.784424
5.48 0.629703
5.49 0.46647
5.5 0.299503
5.51 0.134288
5.52 -0.0251061
5.53 -0.173007
5.54 -0.307624
5.55 -0.425345
5.56 -0.524695
5.57 -0.605969
5.58 -0.667173
5.59 -0.711889
5.6 -0.739636
5.61 -0.753954
5.62 -0.75691
5.63 -0.75077
5.64 -0.738731
5.65 -0.722372
5.66 -0.704179
5.67 -0.685395
5.68 -0.667037
5.69 -0.649452
5.7 -0.632626
5.71 -0.615953
5.72 -0.59854
5.73 -0.57932
5.74 -0.557176
5.75 -0.530738
5.76 -0.499641
5.77 -0.462426
5.78 -0.419737
5.79 -0.37136
5.8 -0.318171
5.81 -0.261487
5.82 -0.202688
5.83 -0.143856
5.84 -0.0871904
5.85 -0.0347981
5.86 0.0112612
5.87 0.0484971
5.88 0.076363
5.89 0.0919015
5.9 0.0960712
5.91 0.0877065
5.92 0.0673594
5.93 0.0364124
5.94 -0.00496572
5.95 -0.053819
5.96 -0.109144
5.97 -0.16832
5.98 -0.229494
5.99 -0.290633
6 -0.350216
6.01 -0.406431
6.02 -0.458757
6.03 -0.506313
6.04 -0.548998
6.05 -0.587267
6.06 -0.621201
6.07 -0.65213
6.08 -0.680644
6.09 -0.707954
6.1 -0.734915
6.11 -0.76237
6.12 -0.790763
6.13 -0.820545
6.14 -0.851474
6.15 -0.883289
6.16 -0.915287
6.17 -0.946678
6.18 -0.976248
6.19 -1.00325
6.2 -1.0263
6.21 -1.04486
6.22 -1.0583
6.23 -1.06605
6.24 -1.06878
6.25 -1.06617
6.26 -1.05973
6.27 -1.0502
6.28 -1.03899
6.29 -1.0274
6.3 -1.01684
6.31 -1.00814
6.32 -1.00224
6.33 -0.999041
6.34 -0.998098
6.35 -0.998135
6.36 -0.997231
6.37 -0.992075
6.38 -0.979748
6.39 -0.955659
6.4 -0.915092
6.41 -0.854648
6.42 -0.766504
6.43 -0.650229
6.44 -0.498215
6.45 -0.310198
6.46 -0.0840817
6.47 0.182605
6.48 0.484566
6.49 0.824609
6.5 1.19322
6.51 1.58697
6.52 1.99751
6.53 2.41611
6.54 2.83278
6.55 3.23806
6.56 3.61954
6.57 3.96827
6.58 4.27472
6.59 4.5268
6.6 4.72356
6.61 4.8492
6.62 4.90943
6.63 4.89705
6.64 4.81334
6.65 4.66437
6.66 4.44705
6.67 4.17657
6.68 3.85423
6.69 3.49352
6.7 3.10341
6.71 2.69409
6.72 2.2772
6.73 1.86313
6.74 1.46108
6.75 1.08035
6.76 0.728575
6.77 0.409431
6.78 0.131823
6.79 -0.10743
6.8 -0.302388
6.81 -0.457041
6.82 -0.572767
6.83 -0.650916
6.84 -0.699096
6.85 -0.717525
6.86 -0.71513
6.87 -0.695067
6.88 -0.662798
6.89 -0.623041
6.9 -0.579337
6.91 -0.535307
6.92 -0.493544
6.93 -0.455751
6.94 -0.423001
6.95 -0.396105
6.96 -0.374404
6.97 -0.358274
6.98 -0.346286
6.99 -0.338
7 -0.332523
7.01 -0.329094
7.02 -0.327445
7.03 -0.327144
7.04 -0.328442
7.05 -0.33157
7.06 -0.337073
7.07 -0.345876
7.08 -0.358341
7.09 -0.375942
7.1 -0.398652
7.11 -0.427329
7.12 -0.462106
7.13 -0.502526
7.14 -0.548752
7.15 -0.599209
7.16 -0.653247
7.17 -0.709118
7.18 -0.765345
7.19 -0.820055
7.2 -0.871895
7.21 -0.918635
7.22 -0.95963
7.23 -0.99343
7.24 -1.01943
7.25 -1.03787
7.26 -1.04804
7.27 -1.05166
7.28 -1.04894
7.29 -1.0417
7.3 -1.03129
7.31 -1.01927
7.32 -1.00718
7.33 -0.996512
7.34 -0.988097
7.35 -0.982722
7.36 -0.980522
7.37 -0.980988
7.38 -0.983433
7.39 -0.986244
7.4 -0.98753
7.41 -0.985082
7.42 -0.97657
7.43 -0.958806
7.44 -0.930536
7.45 -0.887478
7.46 -0.829717
7.47 -0.754758
7.48 -0.661998
7.49 -0.55243
7.5 -0.424765
7.51 -0.282913
7.52 -0.127414
7.53 0.0376394
7.54 0.20904
7.55 0.382729
7.56 0.554633
7.57 0.719589
7.58 0.874271
7.59 1.01399
7.6 1.13502
7.61 1.2357
7.62 1.31071
7.63 1.362
7.64 1.38568
7.65 1.38376
7.66 1.35675
7.67 1.30488
7.68 1.23276
7.69 1.14005
7.7 1.03252
7.71 0.912268
7.72 0.783202
7.73 0.649022
7.74 0.513002
7.75 0.37848
7.76 0.248727
7.77 0.126152
7.78 0.0129208
7.79 -0.0883592
7.8 -0.177675
7.81 -0.251904
7.82 -0.312407
7.83 -0.357863
7.84 -0.388522
7.85 -0.405617
7.86 -0.408208
7.87 -0.3992
7.88 -0.37837
7.89 -0.348084
7.9 -0.309793
7.91 -0.265053
7.92 -0.216319
7.93 -0.165234
7.94 -0.114215
7.95 -0.0653215
7.96 -0.0207882
7.97 0.0178517
7.98 0.0477646
7.99 0.0686423
8 0.0780116
8.01 0.0757529
8.02 0.0613083
8.03 0.0338991
8.04 -0.00471741
8.05 -0.0554311
8.06 -0.115383
8.07 -0.183695
8.08 -0.25818
8.09 -0.336524
8.1 -0.416633
8.11 -0.496108
8.12 -0.572648
8.13 -0.644466
8.14 -0.710046
8.15 -0.767706
8.16 -0.817653
8.17 -0.858367
8.18 -0.891312
8.19 -0.916562
8.2 -0.935331
8.21 -0.949195
8.22 -0.959184
8.23 -0.967214
8.24 -0.974386
8.25 -0.981813
8.26 -0.990042
8.27 -0.99917
8.28 -1.00859
8.29 -1.01697
8.3 -1.02258
8.31 -1.02278
8.32 -1.01438
8.33 -0.994872
8.34 -0.958756
8.35 -0.904935
8.36 -0.827746
8.37 -0.725892
8.38 -0.597202
8.39 -0.438649
8.4 -0.253247
8.41 -0.0376181
8.42 0.202168
8.43 0.464709
8.44 0.744919
8.45 1.03671
8.46 1.33423
8.47 1.62992
8.48 1.91577
8.49 2.18454
8.5 2.42922
8.51 2.64066
8.52 2.81695
8.53 2.94669
8.54 3.03212
8.55 3.06759
8.56 3.05254
8.57 2.99061
8.58 2.8781
8.59 2.72535
8.6 2.53224
8.61 2.30773
8.62 2.05782
8.63 1.78896
8.64 1.50986
8.65 1.22699
8.66 0.947755
8.67 0.678508
8.68 0.425146
8.69 0.190813
8.7 -0.0180104
8.71 -0.202602
8.72 -0.35866
8.73 -0.488074
8.74 -0.591527
8.75 -0.669391
8.76 -0.726667
8.77 -0.763305
8.78 -0.785259
8.79 -0.794733
8.8 -0.795496
8.81 -0.790979
8.82 -0.783802
8.83 -0.776692
8.84 -0.771717
8.85 -0.770275
8.86 -0.773277
8.87 -0.781518
8.88 -0.794446
8.89 -0.812428
8.9 -0.834157
8.91 -0.859084
8.92 -0.886126
8.93 -0.91424
8.94 -0.942458
8.95 -0.969938
8.96 -0.995844
8.97 -1.01972
8.98 -1.04124
8.99 -1.06007
9 -1.07651
9.01 -1.09035
9.02 -1.10217
9.03 -1.11211
9.04 -1.12054
9.05 -1.12781
9.06 -1.134
9.07 -1.13938
9.08 -1.14381
9.09 -1.14717
9.1 -1.14918
9.11 -1.14924
9.12 -1.14704
9.13 -1.14148
9.14 -1.13226
9.15 -1.1184
9.16 -1.09916
9.17 -1.07432
9.18 -1.04255
9.19 -1.0045
9.2 -0.959243
9.21 -0.907399
9.22 -0.849284
9.23 -0.78521
9.24 -0.716634
9.25 -0.644084
9.26 -0.569409
9.27 -0.493912
9.28 -0.419369
9.29 -0.347245
9.3 -0.279804
9.31 -0.217947
9.32 -0.163905
9.33 -0.118481
9.34 -0.0826529
9.35 -0.0578105
9.36 -0.0430748
9.37 -0.040073
9.38 -0.0469224
9.39 -0.0636233
9.4 -0.088956
9.41 -0.121151
9.42 -0.159311
9.43 -0.200946
9.44 -0.244621
9.45 -0.288302
9.46 -0.330399
9.47 -0.369094
9.48 -0.403592
9.49 -0.432121
9.5 -0.454809
9.51 -0.470982
9.52 -0.480787
9.53 -0.485036
9.54 -0.483861
9.55 -0.47899
9.56 -0.47121
9.57 -0.462098
9.58 -0.452899
9.59 -0.445038
9.6 -0.43941
9.61 -0.437424
9.62 -0.43931
9.63 -0.445742
9.64 -0.456828
9.65 -0.472135
9.66 -0.49177
9.67 -0.514556
9.68 -0.540125
9.69 -0.567439
9.7 -0.59575
9.71 -0.624295
9.72 -0.652491
9.73 -0.679786
9.74 -0.706037
9.75 -0.731101
9.76 -0.755076
9.77 -0.778203
9.78 -0.800622
9.79 -0.822592
9.8 -0.844069
9.81 -0.86483
9.82 -0.884318
9.83 -0.9013
9.84 -0.914673
9.85 -0.921576
9.86 -0.920251
9.87 -0.907178
9.88 -0.878696
9.89 -0.832499
9.9 -0.761887
9.91 -0.666772
9.92 -0.540695
9.93 -0.382835
9.94 -0.191297
9.95 0.0372292
9.96 0.298543
9.97 0.596372
9.98 0.923359
9.99 1.27762
10 1.65318
10.01 2.04273
10.02 2.43943
10.03 2.83426
10.04 3.21782
10.05 3.58135
10.06 3.91655
10.07 4.21219
10.08 4.46583
10.09 4.66363
10.1 4.80767
10.11 4.89097
10.12 4.91205
10.13 4.87519
10.14 4.77483
10.15 4.62344
10.16 4.42014
10.17 4.17532
10.18 3.89606
10.19 3.58945
10.2 3.26638
10.21 2.93383
10.22 2.60129
10.23 2.27607
10.24 1.96542
10.25 1.67338
10.26 1.4074
10.27 1.16664
10.28 0.955792
10.29 0.773137
10.3 0.617795
10.31 0.489348
10.32 0.382264
10.33 0.296207
10.34 0.224802
10.35 0.16537
10.36 0.113817
10.37 0.0665119
10.38 0.0205961
10.39 -0.0264574
10.4 -0.0766415
10.41 -0.130963
10.42 -0.189904
10.43 -0.253703
10.44 -0.321315
10.45 -0.392291
10.46 -0.464983
10.47 -0.538181
10.48 -0.610348
10.49 -0.680336
10.5 -0.746467
10.51 -0.80833
10.52 -0.864637
10.53 -0.915234
10.54 -0.9599
10.55 -0.998204
10.56 -1.03098
10.57 -1.05762
10.58 -1.07921
10.59 -1.09567
10.6 -1.10731
10.61 -1.11463
10.62 -1.11712
10.63 -1.11545
10.64 -1.10902
10.65 -1.098
10.66 -1.08222
10.67 -1.06125
10.68 -1.0356
10.69 -1.00465
10.7 -0.969292
10.71 -0.929674
10.72 -0.886531
10.73 -0.840896
10.74 -0.793674
10.75 -0.746292
10.76 -0.700144
10.77 -0.65666
10.78 -0.617164
10.79 -0.583436
10.8 -0.555924
10.81 -0.536712
10.82 -0.525493
10.83 -0.523208
10.84 -0.529937
10.85 -0.544854
10.86 -0.568444
10.87 -0.598669
10.88 -0.635209
10.89 -0.676304
10.9 -0.720633
10.91 -0.766779
10.92 -0.813226
10.93 -0.858526
10.94 -0.901612
10.95 -0.941365
10.96 -0.976938
10.97 -1.00813
10.98 -1.034
10.99 -1.05526
11 -1.07154
11.01 -1.08354
11.02 -1.09178
11.03 -1.09672
11.04 -1.09938
11.05 -1.10023
11.06 -1.10022
11.07 -1.09995
11.08 -1.10007
11.09 -1.101
11.1 -1.10331
11.11 -1.10702
11.12 -1.11242
11.13 -1.11933
11.14 -1.12755
11.15 -1.13675
11.16 -1.14632
11.17 -1.15549
11.18 -1.1634
11.19 -1.16892
11.2 -1.17067
11.21 -1.16761
11.22 -1.15724
11.23 -1.13895
11.24 -1.10994
11.25 -1.06896
11.26 -1.01439
11.27 -0.943415
11.28 -0.856529
11.29 -0.74988
11.3 -0.625066
11.31 -0.480539
11.32 -0.316505
11.33 -0.135032
11.34 0.064638
11.35 0.277853
11.36 0.503328
11.37 0.736585
11.38 0.973785
11.39 1.21005
11.4 1.44098
11.41 1.66004
11.42 1.86348
11.43 2.0455
11.44 2.20103
11.45 2.32825
11.46 2.4193
11.47 2.47692
11.48 2.4955
11.49 2.47707
11.5 2.42238
11.51 2.3309
11.52 2.20933
11.53 2.057
11.54 1.88216
11.55 1.68817
11.56 1.48092
11.57 1.26632
11.58 1.04967
11.59 0.836269
11.6 0.631341
11.61 0.438656
11.62 0.261216
11.63 0.102782
11.64 -0.0374554
11.65 -0.156042
11.66 -0.255992
11.67 -0.337228
11.68 -0.401755
11.69 -0.452896
11.7 -0.491918
11.71 -0.523359
11.72 -0.549302
11.73 -0.572996
11.74 -0.596711
11.75 -0.622662
11.76 -0.651887
11.77 -0.685771
11.78 -0.723878
11.79 -0.765988
11.8 -0.810912
11.81 -0.857007
11.82 -0.902121
11.83 -0.944172
11.84 -0.980268
11.85 -1.00816
11.86 -1.02571
11.87 -1.0298
11.88 -1.02034
11.89 -0.993736
11.9 -0.951245
11.91 -0.89158
11.92 -0.815017
11.93 -0.72349
11.94 -0.616409
11.95 -0.497716
11.96 -0.36826
11.97 -0.231351
11.98 -0.0895745
11.99 0.0541886
12 0.19705
12.01 0.335704
12.02 0.467904
12.03 0.590809
12.04 0.701928
12.05 0.800343
12.06 0.882402
12.07 0.949258
12.08 0.998249
12.09 1.03003
12.1 1.0447
12.11 1.04146
12.12 1.02301
12.13 0.988149
12.14 0.940215
12.15 0.87991
12.16 0.809152
12.17 0.73042
12.18 0.644882
12.19 0.555464
12.2 0.463737
12.21 0.371846
12.22 0.28142
12.23 0.194302
12.24 0.111308
12.25 0.0342065
12.26 -0.0369942
12.27 -0.101546
12.28 -0.159341
12.29 -0.211056
12.3 -0.25637
12.31 -0.296871
12.32 -0.332874
12.33 -0.36568
12.34 -0.396249
12.35 -0.425514
12.36 -0.454417
12.37 -0.483661
12.38 -0.513662
12.39 -0.544639
12.4 -0.576457
12.41 -0.608665
12.42 -0.640459
