# xPDFsuite Configuration #
[PDF]
wavelength = 0.1432
dataformat = twotheta
inputfile = 1_1Pd_CeO2_cycle-00170.chi
backgroundfile = background-00000.chi
mode = xray
bgscale = 1.007
composition = CeO2
outputtype = gr
qmaxinst = 28.8974762299
qmin = 0.5
qmax = 27.9
rmax = 50.0
rmin = 0.0
rstep = 0.01
rpoly = 1.8657

[Misc]
inputdir = G:/SankarDec16/1Pd/Chi
savedir = D:/DATA/APS_CeO2/1Pd
backgroundfilefull = G:/SankarDec16/Background/background-00000.chi

#### start data
#S 1
#L r($\AA$)  G($\AA^{-2}$)
0 0
0.01 -0.00727825
0.02 -0.0140087
0.03 -0.0196275
0.04 -0.0237095
0.05 -0.0260182
0.06 -0.0261731
0.07 -0.0244269
0.08 -0.0206568
0.09 -0.0153453
0.1 -0.00882624
0.11 -0.00161059
0.12 0.00574342
0.13 0.0126102
0.14 0.0185454
0.15 0.0230053
0.16 0.0256709
0.17 0.0264139
0.18 0.0249736
0.19 0.0217209
0.2 0.0166687
0.21 0.0103794
0.22 0.00326833
0.23 -0.00409075
0.24 -0.0111716
0.25 -0.0173
0.26 -0.0221553
0.27 -0.0252401
0.28 -0.0263558
0.29 -0.025489
0.3 -0.0225111
0.31 -0.0178944
0.32 -0.0117869
0.33 -0.00480538
0.34 0.00257292
0.35 0.0097375
0.36 0.016219
0.37 0.0213259
0.38 0.0248763
0.39 0.0264427
0.4 0.0259567
0.41 0.0235206
0.42 0.0191447
0.43 0.0133809
0.44 0.00650608
0.45 -0.000837186
0.46 -0.00813177
0.47 -0.0147586
0.48 -0.0203275
0.49 -0.024162
0.5 -0.026228
0.51 -0.0261885
0.52 -0.0241089
0.53 -0.0202033
0.54 -0.014621
0.55 -0.00796858
0.56 -0.000639156
0.57 0.00672829
0.58 0.0136011
0.59 0.0193801
0.6 0.0237734
0.61 0.0261512
0.62 0.0266299
0.63 0.0249791
0.64 0.0213962
0.65 0.0161977
0.66 0.00966644
0.67 0.00243515
0.68 -0.00500409
0.69 -0.0120455
0.7 -0.0181657
0.71 -0.0228133
0.72 -0.0258087
0.73 -0.0265985
0.74 -0.0254445
0.75 -0.022234
0.76 -0.0172877
0.77 -0.0110093
0.78 -0.00380218
0.79 0.00370456
0.8 0.0109441
0.81 0.0173723
0.82 0.022501
0.83 0.0258528
0.84 0.0273692
0.85 0.0266002
0.86 0.0239395
0.87 0.0193965
0.88 0.0133975
0.89 0.00641148
0.9 -0.00106265
0.91 -0.00843381
0.92 -0.0150975
0.93 -0.0206038
0.94 -0.0245339
0.95 -0.0265207
0.96 -0.0266351
0.97 -0.0245753
0.98 -0.0208471
0.99 -0.0155993
1 -0.00934897
1.01 -0.00260821
1.02 0.0040398
1.03 0.0100888
1.04 0.0149216
1.05 0.0182289
1.06 0.0196996
1.07 0.019124
1.08 0.016733
1.09 0.0124371
1.1 0.00686878
1.11 0.00037101
1.12 -0.0064166
1.13 -0.0129176
1.14 -0.0183968
1.15 -0.0224476
1.16 -0.0243616
1.17 -0.0239787
1.18 -0.0210595
1.19 -0.0155127
1.2 -0.00776343
1.21 0.0021521
1.22 0.0133908
1.23 0.0254449
1.24 0.0375017
1.25 0.0488582
1.26 0.058584
1.27 0.0662447
1.28 0.0709459
1.29 0.0725274
1.3 0.0706752
1.31 0.06522
1.32 0.0566592
1.33 0.0448494
1.34 0.030783
1.35 0.014869
1.36 -0.00204752
1.37 -0.0192146
1.38 -0.0357754
1.39 -0.0511261
1.4 -0.0644245
1.41 -0.0753328
1.42 -0.0834435
1.43 -0.0884345
1.44 -0.090583
1.45 -0.0895269
1.46 -0.0859919
1.47 -0.0800809
1.48 -0.0723252
1.49 -0.0632248
1.5 -0.0531732
1.51 -0.0427093
1.52 -0.0321908
1.53 -0.0219508
1.54 -0.0122184
1.55 -0.0031794
1.56 0.00517045
1.57 0.0127027
1.58 0.0195784
1.59 0.0257954
1.6 0.0314439
1.61 0.0365902
1.62 0.0411939
1.63 0.0452911
1.64 0.0487179
1.65 0.0513927
1.66 0.0531265
1.67 0.0536606
1.68 0.0529313
1.69 0.0505048
1.7 0.0464929
1.71 0.040663
1.72 0.0330735
1.73 0.0238846
1.74 0.0131479
1.75 0.00133419
1.76 -0.0113134
1.77 -0.0242781
1.78 -0.0371357
1.79 -0.0493752
1.8 -0.0606791
1.81 -0.0704731
1.82 -0.0787221
1.83 -0.0851307
1.84 -0.0897322
1.85 -0.0927026
1.86 -0.0941362
1.87 -0.0945542
1.88 -0.0942651
1.89 -0.0938134
1.9 -0.093637
1.91 -0.0942219
1.92 -0.0958056
1.93 -0.098832
1.94 -0.103177
1.95 -0.1089
1.96 -0.115713
1.97 -0.123216
1.98 -0.130886
1.99 -0.138109
2 -0.144087
2.01 -0.148198
2.02 -0.149753
2.03 -0.147994
2.04 -0.14283
2.05 -0.133308
2.06 -0.119937
2.07 -0.102393
2.08 -0.0810407
2.09 -0.0563941
2.1 -0.0286839
2.11 0.00112952
2.12 0.0326636
2.13 0.0651311
2.14 0.0980443
2.15 0.130944
2.16 0.163578
2.17 0.195762
2.18 0.227615
2.19 0.259305
2.2 0.291182
2.21 0.323596
2.22 0.357069
2.23 0.391797
2.24 0.428199
2.25 0.466176
2.26 0.505592
2.27 0.545988
2.28 0.586594
2.29 0.62625
2.3 0.663804
2.31 0.697565
2.32 0.72587
2.33 0.747412
2.34 0.75961
2.35 0.762319
2.36 0.753016
2.37 0.731972
2.38 0.698603
2.39 0.652659
2.4 0.596083
2.41 0.528523
2.42 0.453364
2.43 0.372049
2.44 0.287465
2.45 0.202236
2.46 0.119445
2.47 0.041282
2.48 -0.0290691
2.49 -0.0902162
2.5 -0.140512
2.51 -0.178513
2.52 -0.205218
2.53 -0.219119
2.54 -0.223098
2.55 -0.217743
2.56 -0.205473
2.57 -0.188708
2.58 -0.169795
2.59 -0.15136
2.6 -0.135932
2.61 -0.12533
2.62 -0.121153
2.63 -0.124812
2.64 -0.135917
2.65 -0.155563
2.66 -0.181756
2.67 -0.213878
2.68 -0.24997
2.69 -0.288082
2.7 -0.326065
2.71 -0.362004
2.72 -0.393647
2.73 -0.419781
2.74 -0.439237
2.75 -0.451099
2.76 -0.456115
2.77 -0.453718
2.78 -0.446029
2.79 -0.433999
2.8 -0.419661
2.81 -0.404898
2.82 -0.391905
2.83 -0.382168
2.84 -0.377752
2.85 -0.379341
2.86 -0.387646
2.87 -0.402984
2.88 -0.424166
2.89 -0.45096
2.9 -0.481018
2.91 -0.512786
2.92 -0.543957
2.93 -0.572595
2.94 -0.596109
2.95 -0.613528
2.96 -0.62264
2.97 -0.623381
2.98 -0.61542
2.99 -0.598951
3 -0.575842
3.01 -0.546871
3.02 -0.514989
3.03 -0.482288
3.04 -0.45151
3.05 -0.424815
3.06 -0.405175
3.07 -0.393349
3.08 -0.391677
3.09 -0.399836
3.1 -0.417883
3.11 -0.445233
3.12 -0.479545
3.13 -0.519592
3.14 -0.562047
3.15 -0.604456
3.16 -0.643862
3.17 -0.678077
3.18 -0.704073
3.19 -0.721449
3.2 -0.72814
3.21 -0.725018
3.22 -0.712585
3.23 -0.692169
3.24 -0.666574
3.25 -0.638059
3.26 -0.610092
3.27 -0.585824
3.28 -0.568406
3.29 -0.55992
3.3 -0.563656
3.31 -0.579151
3.32 -0.608292
3.33 -0.649177
3.34 -0.700498
3.35 -0.759878
3.36 -0.82358
3.37 -0.888058
3.38 -0.949256
3.39 -1.00304
3.4 -1.04576
3.41 -1.07526
3.42 -1.08778
3.43 -1.08466
3.44 -1.0641
3.45 -1.02917
3.46 -0.982095
3.47 -0.926438
3.48 -0.867053
3.49 -0.808864
3.5 -0.756578
3.51 -0.715213
3.52 -0.688625
3.53 -0.678594
3.54 -0.688393
3.55 -0.714947
3.56 -0.75801
3.57 -0.811731
3.58 -0.870614
3.59 -0.926377
3.6 -0.971376
3.61 -0.992716
3.62 -0.983939
3.63 -0.932851
3.64 -0.831072
3.65 -0.674379
3.66 -0.450651
3.67 -0.166204
3.68 0.18691
3.69 0.599459
3.7 1.06672
3.71 1.58074
3.72 2.12602
3.73 2.69168
3.74 3.25907
3.75 3.81185
3.76 4.33191
3.77 4.8056
3.78 5.21008
3.79 5.54175
3.8 5.77937
3.81 5.92283
3.82 5.96605
3.83 5.90373
3.84 5.74918
3.85 5.49374
3.86 5.16104
3.87 4.75562
3.88 4.29415
3.89 3.79316
3.9 3.26633
3.91 2.73211
3.92 2.2055
3.93 1.70021
3.94 1.22793
3.95 0.800917
3.96 0.420942
3.97 0.10113
3.98 -0.165312
3.99 -0.374218
4 -0.530016
4.01 -0.639563
4.02 -0.704648
4.03 -0.73793
4.04 -0.743243
4.05 -0.730935
4.06 -0.70752
4.07 -0.679762
4.08 -0.653043
4.09 -0.632369
4.1 -0.619734
4.11 -0.617358
4.12 -0.625325
4.13 -0.642405
4.14 -0.667697
4.15 -0.697872
4.16 -0.730664
4.17 -0.762828
4.18 -0.791701
4.19 -0.814326
4.2 -0.829482
4.21 -0.83417
4.22 -0.828975
4.23 -0.812711
4.24 -0.785875
4.25 -0.749613
4.26 -0.704035
4.27 -0.651579
4.28 -0.592773
4.29 -0.529543
4.3 -0.462957
4.31 -0.394002
4.32 -0.323635
4.33 -0.252232
4.34 -0.180253
4.35 -0.107787
4.36 -0.0348952
4.37 0.0383714
4.38 0.111936
4.39 0.185515
4.4 0.258607
4.41 0.330485
4.42 0.400168
4.43 0.466134
4.44 0.52742
4.45 0.581352
4.46 0.627266
4.47 0.662815
4.48 0.686585
4.49 0.698019
4.5 0.694677
4.51 0.678115
4.52 0.646655
4.53 0.602158
4.54 0.545438
4.55 0.477695
4.56 0.401851
4.57 0.319122
4.58 0.232903
4.59 0.145308
4.6 0.0589481
4.61 -0.0242524
4.62 -0.101799
4.63 -0.17307
4.64 -0.236195
4.65 -0.291333
4.66 -0.33833
4.67 -0.377283
4.68 -0.40975
4.69 -0.435876
4.7 -0.457819
4.71 -0.476522
4.72 -0.493466
4.73 -0.50981
4.74 -0.526585
4.75 -0.544382
4.76 -0.563733
4.77 -0.584571
4.78 -0.606698
4.79 -0.629633
4.8 -0.652681
4.81 -0.674964
4.82 -0.695774
4.83 -0.714235
4.84 -0.729706
4.85 -0.74193
4.86 -0.750281
4.87 -0.755313
4.88 -0.756902
4.89 -0.755876
4.9 -0.752861
4.91 -0.748696
4.92 -0.744303
4.93 -0.740636
4.94 -0.73837
4.95 -0.738238
4.96 -0.740656
4.97 -0.745674
4.98 -0.753547
4.99 -0.763629
5 -0.775713
5.01 -0.788987
5.02 -0.802801
5.03 -0.816372
5.04 -0.829113
5.05 -0.840244
5.06 -0.849591
5.07 -0.856802
5.08 -0.861913
5.09 -0.865199
5.1 -0.866835
5.11 -0.867453
5.12 -0.867405
5.13 -0.867158
5.14 -0.866943
5.15 -0.866781
5.16 -0.866416
5.17 -0.865094
5.18 -0.861943
5.19 -0.855459
5.2 -0.843877
5.21 -0.8257
5.22 -0.797777
5.23 -0.759444
5.24 -0.70731
5.25 -0.640811
5.26 -0.558635
5.27 -0.459413
5.28 -0.345084
5.29 -0.214216
5.3 -0.0709245
5.31 0.083269
5.32 0.244462
5.33 0.408582
5.34 0.570719
5.35 0.726474
5.36 0.869744
5.37 0.996458
5.38 1.10214
5.39 1.18145
5.4 1.23439
5.41 1.25418
5.42 1.24447
5.43 1.20291
5.44 1.13154
5.45 1.03413
5.46 0.911513
5.47 0.771104
5.48 0.615686
5.49 0.451936
5.5 0.284767
5.51 0.119834
5.52 -0.0387384
5.53 -0.185086
5.54 -0.317477
5.55 -0.432249
5.56 -0.528012
5.57 -0.605205
5.58 -0.661974
5.59 -0.70216
5.6 -0.725529
5.61 -0.735888
5.62 -0.735558
5.63 -0.727106
5.64 -0.713812
5.65 -0.697593
5.66 -0.680818
5.67 -0.664833
5.68 -0.650539
5.69 -0.638066
5.7 -0.627253
5.71 -0.617085
5.72 -0.606373
5.73 -0.593648
5.74 -0.577443
5.75 -0.55597
5.76 -0.528692
5.77 -0.493683
5.78 -0.451653
5.79 -0.402188
5.8 -0.346225
5.81 -0.285282
5.82 -0.220803
5.83 -0.155339
5.84 -0.0913326
5.85 -0.0313541
5.86 0.0221578
5.87 0.0662625
5.88 0.100145
5.89 0.120354
5.9 0.127798
5.91 0.121045
5.92 0.100612
5.93 0.0680055
5.94 0.0233485
5.95 -0.0299856
5.96 -0.0908598
5.97 -0.156229
5.98 -0.223917
5.99 -0.291506
6 -0.35717
6.01 -0.41869
6.02 -0.475398
6.03 -0.526154
6.04 -0.570754
6.05 -0.609689
6.06 -0.642935
6.07 -0.672108
6.08 -0.697835
6.09 -0.721631
6.1 -0.744567
6.11 -0.767742
6.12 -0.791851
6.13 -0.817602
6.14 -0.84491
6.15 -0.873696
6.16 -0.903356
6.17 -0.933111
6.18 -0.961832
6.19 -0.988625
6.2 -1.01212
6.21 -1.0316
6.22 -1.04634
6.23 -1.05565
6.24 -1.06007
6.25 -1.05918
6.26 -1.0544
6.27 -1.04641
6.28 -1.0366
6.29 -1.02627
6.3 -1.01682
6.31 -1.00915
6.32 -1.00419
6.33 -1.00192
6.34 -1.00191
6.35 -1.00291
6.36 -1.00298
6.37 -0.998794
6.38 -0.987391
6.39 -0.964118
6.4 -0.924178
6.41 -0.86411
6.42 -0.775967
6.43 -0.659305
6.44 -0.506413
6.45 -0.317037
6.46 -0.0890822
6.47 0.179901
6.48 0.4845
6.49 0.827454
6.5 1.19907
6.51 1.59579
6.52 2.00906
6.53 2.43002
6.54 2.84846
6.55 3.25488
6.56 3.63669
6.57 3.98495
6.58 4.2901
6.59 4.54009
6.6 4.73413
6.61 4.85648
6.62 4.9131
6.63 4.89697
6.64 4.8096
6.65 4.65724
6.66 4.43707
6.67 4.16436
6.68 3.8406
6.69 3.47931
6.7 3.08947
6.71 2.68126
6.72 2.26615
6.73 1.85446
6.74 1.45512
6.75 1.07728
6.76 0.728298
6.77 0.411685
6.78 0.13609
6.79 -0.101742
6.8 -0.296055
6.81 -0.450827
6.82 -0.567429
6.83 -0.647168
6.84 -0.697456
6.85 -0.718394
6.86 -0.71864
6.87 -0.701133
6.88 -0.67108
6.89 -0.633018
6.9 -0.590205
6.91 -0.546237
6.92 -0.503509
6.93 -0.463787
6.94 -0.428178
6.95 -0.397577
6.96 -0.371579
6.97 -0.350724
6.98 -0.333906
6.99 -0.320958
7 -0.311297
7.01 -0.304381
7.02 -0.300297
7.03 -0.298645
7.04 -0.299939
7.05 -0.304357
7.06 -0.312425
7.07 -0.325024
7.08 -0.342224
7.09 -0.365394
7.1 -0.394117
7.11 -0.428993
7.12 -0.469814
7.13 -0.515857
7.14 -0.566921
7.15 -0.621319
7.16 -0.678104
7.17 -0.735513
7.18 -0.79202
7.19 -0.84573
7.2 -0.895518
7.21 -0.939165
7.22 -0.976374
7.23 -1.00587
7.24 -1.02734
7.25 -1.04127
7.26 -1.04722
7.27 -1.04709
7.28 -1.04129
7.29 -1.03175
7.3 -1.01987
7.31 -1.00727
7.32 -0.995362
7.33 -0.985656
7.34 -0.978756
7.35 -0.975344
7.36 -0.975363
7.37 -0.978137
7.38 -0.982796
7.39 -0.987602
7.4 -0.990508
7.41 -0.98924
7.42 -0.981412
7.43 -0.963788
7.44 -0.935183
7.45 -0.891288
7.46 -0.832322
7.47 -0.755844
7.48 -0.661357
7.49 -0.549959
7.5 -0.420453
7.51 -0.276838
7.52 -0.119741
7.53 0.0466915
7.54 0.219208
7.55 0.393697
7.56 0.566104
7.57 0.731206
7.58 0.885726
7.59 1.02496
7.6 1.14519
7.61 1.24479
7.62 1.31843
7.63 1.36811
7.64 1.38995
7.65 1.386
7.66 1.35681
7.67 1.30265
7.68 1.22821
7.69 1.13322
7.7 1.02354
7.71 0.901375
7.72 0.770738
7.73 0.635407
7.74 0.498819
7.75 0.364313
7.76 0.235304
7.77 0.114179
7.78 0.00311056
7.79 -0.0953019
7.8 -0.181198
7.81 -0.25151
7.82 -0.307834
7.83 -0.349022
7.84 -0.375574
7.85 -0.388929
7.86 -0.388465
7.87 -0.377202
7.88 -0.355217
7.89 -0.32494
7.9 -0.28791
7.91 -0.245765
7.92 -0.200762
7.93 -0.154575
7.94 -0.109257
7.95 -0.0666645
7.96 -0.0286775
7.97 0.0035057
7.98 0.0274824
7.99 0.0432119
8 0.0486553
8.01 0.0438829
8.02 0.0285271
8.03 0.00201769
8.04 -0.0340797
8.05 -0.0805004
8.06 -0.134818
8.07 -0.196334
8.08 -0.263269
8.09 -0.333734
8.1 -0.406108
8.11 -0.478407
8.12 -0.548842
8.13 -0.615938
8.14 -0.678465
8.15 -0.735058
8.16 -0.785783
8.17 -0.829377
8.18 -0.866871
8.19 -0.8982
8.2 -0.924167
8.21 -0.945881
8.22 -0.963897
8.23 -0.979624
8.24 -0.993613
8.25 -1.00658
8.26 -1.01872
8.27 -1.02974
8.28 -1.03913
8.29 -1.04522
8.3 -1.04668
8.31 -1.04098
8.32 -1.02533
8.33 -0.99769
8.34 -0.953022
8.35 -0.890789
8.36 -0.805883
8.37 -0.697459
8.38 -0.563734
8.39 -0.402117
8.4 -0.215581
8.41 -0.00113096
8.42 0.235542
8.43 0.493086
8.44 0.766777
8.45 1.05099
8.46 1.34029
8.47 1.62767
8.48 1.90566
8.49 2.16747
8.5 2.40648
8.51 2.61398
8.52 2.78804
8.53 2.91761
8.54 3.00464
8.55 3.0434
8.56 3.03302
8.57 2.97669
8.58 2.87037
8.59 2.72384
8.6 2.53652
8.61 2.31694
8.62 2.07077
8.63 1.8041
8.64 1.52566
8.65 1.24166
8.66 0.959809
8.67 0.68658
8.68 0.428224
8.69 0.188304
8.7 -0.0262625
8.71 -0.216287
8.72 -0.376962
8.73 -0.509818
8.74 -0.615232
8.75 -0.693246
8.76 -0.748972
8.77 -0.782126
8.78 -0.799078
8.79 -0.802197
8.8 -0.795684
8.81 -0.783446
8.82 -0.768626
8.83 -0.754438
8.84 -0.743528
8.85 -0.737666
8.86 -0.738087
8.87 -0.745946
8.88 -0.760533
8.89 -0.782483
8.9 -0.809997
8.91 -0.842343
8.92 -0.877956
8.93 -0.915257
8.94 -0.952708
8.95 -0.98891
8.96 -1.0224
8.97 -1.05228
8.98 -1.07785
8.99 -1.09837
9 -1.11428
9.01 -1.12502
9.02 -1.13169
9.03 -1.13457
9.04 -1.1345
9.05 -1.1324
9.06 -1.1289
9.07 -1.12488
9.08 -1.12082
9.09 -1.11711
9.1 -1.11385
9.11 -1.11091
9.12 -1.1079
9.13 -1.10408
9.14 -1.09869
9.15 -1.09066
9.16 -1.0788
9.17 -1.06234
9.18 -1.03947
9.19 -1.0102
9.2 -0.973014
9.21 -0.928023
9.22 -0.875133
9.23 -0.814192
9.24 -0.746708
9.25 -0.672823
9.26 -0.594795
9.27 -0.514011
9.28 -0.432648
9.29 -0.352682
9.3 -0.276843
9.31 -0.206646
9.32 -0.1449
9.33 -0.0929078
9.34 -0.0520602
9.35 -0.0242247
9.36 -0.00849558
9.37 -0.00691074
9.38 -0.0172145
9.39 -0.0393613
9.4 -0.0717703
9.41 -0.112188
9.42 -0.159302
9.43 -0.210009
9.44 -0.262328
9.45 -0.313718
9.46 -0.362162
9.47 -0.405351
9.48 -0.442463
9.49 -0.47128
9.5 -0.492231
9.51 -0.504626
9.52 -0.508894
9.53 -0.506278
9.54 -0.49722
9.55 -0.484048
9.56 -0.468002
9.57 -0.451164
9.58 -0.435186
9.59 -0.421964
9.6 -0.412488
9.61 -0.408602
9.62 -0.410341
9.63 -0.41845
9.64 -0.432849
9.65 -0.452767
9.66 -0.478104
9.67 -0.507166
9.68 -0.53923
9.69 -0.572817
9.7 -0.606822
9.71 -0.640073
9.72 -0.671855
9.73 -0.701235
9.74 -0.728172
9.75 -0.752428
9.76 -0.774208
9.77 -0.794
9.78 -0.812064
9.79 -0.829077
9.8 -0.845246
9.81 -0.86071
9.82 -0.875205
9.83 -0.887829
9.84 -0.897622
9.85 -0.902044
9.86 -0.899304
9.87 -0.885995
9.88 -0.858421
9.89 -0.81412
9.9 -0.746362
9.91 -0.654751
9.92 -0.532691
9.93 -0.379094
9.94 -0.191858
9.95 0.0325573
9.96 0.290095
9.97 0.584701
9.98 0.909062
9.99 1.2614
10 1.63577
10.01 2.02481
10.02 2.42173
10.03 2.81734
10.04 3.20223
10.05 3.56752
10.06 3.90481
10.07 4.20279
10.08 4.45891
10.09 4.65929
10.1 4.80591
10.11 4.89176
10.12 4.91529
10.13 4.88077
10.14 4.78257
10.15 4.63314
10.16 4.43156
10.17 4.18818
10.18 3.91004
10.19 3.60414
10.2 3.2814
10.21 2.94868
10.22 2.61549
10.23 2.28913
10.24 1.97681
10.25 1.68267
10.26 1.41415
10.27 1.17055
10.28 0.956644
10.29 0.770879
10.3 0.612515
10.31 0.481327
10.32 0.371902
10.33 0.284143
10.34 0.211728
10.35 0.152125
10.36 0.101303
10.37 0.0555829
10.38 0.012172
10.39 -0.0316791
10.4 -0.0780335
10.41 -0.128148
10.42 -0.182724
10.43 -0.242283
10.44 -0.306008
10.45 -0.373801
10.46 -0.44416
10.47 -0.516122
10.48 -0.588297
10.49 -0.659518
10.5 -0.72827
10.51 -0.793866
10.52 -0.854986
10.53 -0.911164
10.54 -0.961906
10.55 -1.00644
10.56 -1.04526
10.57 -1.07734
10.58 -1.10349
10.59 -1.12331
10.6 -1.13687
10.61 -1.1446
10.62 -1.14575
10.63 -1.14128
10.64 -1.13054
10.65 -1.11403
10.66 -1.09191
10.67 -1.06406
10.68 -1.03146
10.69 -0.993918
10.7 -0.952708
10.71 -0.908376
10.72 -0.861989
10.73 -0.814682
10.74 -0.767716
10.75 -0.722256
10.76 -0.679797
10.77 -0.64143
10.78 -0.608194
10.79 -0.58151
10.8 -0.561337
10.81 -0.549285
10.82 -0.544599
10.83 -0.547756
10.84 -0.558428
10.85 -0.575624
10.86 -0.599379
10.87 -0.627881
10.88 -0.660633
10.89 -0.696186
10.9 -0.733489
10.91 -0.77145
10.92 -0.809098
10.93 -0.845439
10.94 -0.879946
10.95 -0.912007
10.96 -0.941266
10.97 -0.967772
10.98 -0.99114
10.99 -1.01194
11 -1.03008
11.01 -1.04605
11.02 -1.06015
11.03 -1.07265
11.04 -1.084
11.05 -1.09434
11.06 -1.10402
11.07 -1.11317
11.08 -1.12191
11.09 -1.13035
11.1 -1.13845
11.11 -1.14626
11.12 -1.15369
11.13 -1.16066
11.14 -1.16704
11.15 -1.17256
11.16 -1.17706
11.17 -1.17993
11.18 -1.18084
11.19 -1.17898
11.2 -1.17341
11.21 -1.16342
11.22 -1.14693
11.23 -1.12345
11.24 -1.09047
11.25 -1.04678
11.26 -0.990737
11.27 -0.919553
11.28 -0.833456
11.29 -0.728552
11.3 -0.606107
11.31 -0.464394
11.32 -0.303378
11.33 -0.124929
11.34 0.0719001
11.35 0.282549
11.36 0.505837
11.37 0.737285
11.38 0.973026
11.39 1.20813
11.4 1.43808
11.41 1.65624
11.42 1.85877
11.43 2.03973
11.44 2.19401
11.45 2.31976
11.46 2.40912
11.47 2.46491
11.48 2.48161
11.49 2.46138
11.5 2.40514
11.51 2.31256
11.52 2.19044
11.53 2.03837
11.54 1.86459
11.55 1.67258
11.56 1.46823
11.57 1.25732
11.58 1.04511
11.59 0.8366
11.6 0.636811
11.61 0.449193
11.62 0.276461
11.63 0.122007
11.64 -0.0151559
11.65 -0.131982
11.66 -0.231499
11.67 -0.31381
11.68 -0.380926
11.69 -0.435984
11.7 -0.48023
11.71 -0.517758
11.72 -0.55041
11.73 -0.580987
11.74 -0.611372
11.75 -0.643302
11.76 -0.677539
11.77 -0.714952
11.78 -0.75503
11.79 -0.797304
11.8 -0.840532
11.81 -0.883263
11.82 -0.923315
11.83 -0.959117
11.84 -0.988013
11.85 -1.00827
11.86 -1.01817
11.87 -1.01514
11.88 -0.999421
11.89 -0.967991
11.9 -0.922228
11.91 -0.86114
11.92 -0.785089
11.93 -0.695839
11.94 -0.592861
11.95 -0.479575
11.96 -0.356613
11.97 -0.226764
11.98 -0.0921716
11.99 0.0448052
12 0.181643
12.01 0.315583
12.02 0.444527
12.03 0.565916
12.04 0.677346
12.05 0.77773
12.06 0.863461
12.07 0.935187
12.08 0.990019
12.09 1.02811
12.1 1.04913
12.11 1.05177
12.12 1.03841
12.13 1.00734
12.14 0.96179
12.15 0.902234
12.16 0.830555
12.17 0.749439
12.18 0.660087
12.19 0.56593
12.2 0.468826
12.21 0.371425
12.22 0.275773
12.23 0.184226
12.24 0.0978533
12.25 0.0189205
12.26 -0.0525605
12.27 -0.115681
12.28 -0.170399
12.29 -0.217682
12.3 -0.257371
12.31 -0.291617
12.32 -0.321144
12.33 -0.347808
12.34 -0.373036
12.35 -0.398346
12.36 -0.424881
12.37 -0.453906
12.38 -0.485737
12.39 -0.520725
12.4 -0.558588
12.41 -0.598469
