# xPDFsuite Configuration #
[PDF]
wavelength = 0.1432
dataformat = twotheta
inputfile = 1_1Pd_CeO2_cycle-00448.chi
backgroundfile = background-00000.chi
mode = xray
bgscale = 1.007
composition = CeO2
outputtype = gr
qmaxinst = 28.8974762299
qmin = 0.5
qmax = 27.9
rmax = 50.0
rmin = 0.0
rstep = 0.01
rpoly = 1.8657

[Misc]
inputdir = G:/SankarDec16/1Pd/Chi
savedir = D:/DATA/APS_CeO2/1Pd
backgroundfilefull = G:/SankarDec16/Background/background-00000.chi

#### start data
#S 1
#L r($\AA$)  G($\AA^{-2}$)
0 0
0.01 -0.00409201
0.02 -0.00787436
0.03 -0.0110283
0.04 -0.013314
0.05 -0.0145984
0.06 -0.0146676
0.07 -0.0136655
0.08 -0.0115248
0.09 -0.00851928
0.1 -0.00483934
0.11 -0.000775322
0.12 0.0033577
0.13 0.00720471
0.14 0.0105171
0.15 0.0129888
0.16 0.0144427
0.17 0.0148095
0.18 0.0139467
0.19 0.0120671
0.2 0.00918348
0.21 0.00561613
0.22 0.00160264
0.23 -0.00253053
0.24 -0.0064881
0.25 -0.0098878
0.26 -0.0125546
0.27 -0.0142109
0.28 -0.0147512
0.29 -0.014174
0.3 -0.012415
0.31 -0.00974597
0.32 -0.00625884
0.33 -0.00230427
0.34 0.00184489
0.35 0.00584247
0.36 0.00942816
0.37 0.0122119
0.38 0.0141012
0.39 0.0148612
0.4 0.0144636
0.41 0.0129751
0.42 0.0104131
0.43 0.00709455
0.44 0.00318621
0.45 -0.000948502
0.46 -0.00501549
0.47 -0.00866623
0.48 -0.0116889
0.49 -0.0137057
0.5 -0.0147115
0.51 -0.0145266
0.52 -0.0132015
0.53 -0.0108679
0.54 -0.007625
0.55 -0.00381837
0.56 0.000318356
0.57 0.00442741
0.58 0.00820851
0.59 0.0113284
0.6 0.013635
0.61 0.0147818
0.62 0.0148523
0.63 0.0137309
0.64 0.0115453
0.65 0.00848558
0.66 0.00472795
0.67 0.000629622
0.68 -0.00352072
0.69 -0.0073889
0.7 -0.0106837
0.71 -0.0131039
0.72 -0.014565
0.73 -0.0147693
0.74 -0.0138842
0.75 -0.0118644
0.76 -0.00890732
0.77 -0.00525159
0.78 -0.00114062
0.79 0.00307534
0.8 0.00706883
0.81 0.0105463
0.82 0.0132417
0.83 0.0149014
0.84 0.0155122
0.85 0.0148409
0.86 0.0131279
0.87 0.0103982
0.88 0.00690556
0.89 0.00292035
0.9 -0.00126658
0.91 -0.00533523
0.92 -0.00894805
0.93 -0.0118745
0.94 -0.0138986
0.95 -0.0148417
0.96 -0.0147669
0.97 -0.0135418
0.98 -0.0114639
0.99 -0.00864431
1 -0.0053831
1.01 -0.00196657
1.02 0.00127257
1.03 0.00408221
1.04 0.00613233
1.05 0.00729525
1.06 0.00743853
1.07 0.00650226
1.08 0.00465839
1.09 0.00194005
1.1 -0.00127515
1.11 -0.00472732
1.12 -0.00802649
1.13 -0.0108383
1.14 -0.0127033
1.15 -0.013446
1.16 -0.0126471
1.17 -0.0102882
1.18 -0.00627865
1.19 -0.000635355
1.2 0.00631471
1.21 0.0144587
1.22 0.0232304
1.23 0.0322342
1.24 0.0409133
1.25 0.0487976
1.26 0.0552217
1.27 0.0599386
1.28 0.0623023
1.29 0.0622381
1.3 0.059524
1.31 0.054031
1.32 0.0461271
1.33 0.035659
1.34 0.0233554
1.35 0.00947219
1.36 -0.00538519
1.37 -0.0206623
1.38 -0.0357421
1.39 -0.0501163
1.4 -0.0631256
1.41 -0.0744157
1.42 -0.0835777
1.43 -0.0902175
1.44 -0.0944227
1.45 -0.0956783
1.46 -0.0944471
1.47 -0.0905934
1.48 -0.0844027
1.49 -0.0762025
1.5 -0.0661276
1.51 -0.0547375
1.52 -0.0422303
1.53 -0.0290825
1.54 -0.0156131
1.55 -0.0021907
1.56 0.0109005
1.57 0.0232573
1.58 0.0347187
1.59 0.0449523
1.6 0.0537571
1.61 0.0610142
1.62 0.0663731
1.63 0.0699568
1.64 0.0714223
1.65 0.0709108
1.66 0.0683657
1.67 0.063767
1.68 0.0574142
1.69 0.0491906
1.7 0.0395928
1.71 0.0287544
1.72 0.0170557
1.73 0.00485505
1.74 -0.00747519
1.75 -0.0195646
1.76 -0.030999
1.77 -0.0415063
1.78 -0.0508129
1.79 -0.0586647
1.8 -0.0651165
1.81 -0.0699198
1.82 -0.0734129
1.83 -0.0756524
1.84 -0.0769646
1.85 -0.0776923
1.86 -0.0781985
1.87 -0.0788756
1.88 -0.0801387
1.89 -0.0822658
1.9 -0.0855096
1.91 -0.0900699
1.92 -0.0958365
1.93 -0.102897
1.94 -0.110825
1.95 -0.119351
1.96 -0.127959
1.97 -0.13615
1.98 -0.143208
1.99 -0.148715
2 -0.15185
2.01 -0.152304
2.02 -0.14962
2.03 -0.143367
2.04 -0.133774
2.05 -0.120275
2.06 -0.103599
2.07 -0.0837179
2.08 -0.0611392
2.09 -0.0363954
2.1 -0.00981333
2.11 0.0179151
2.12 0.0464882
2.13 0.0754736
2.14 0.104665
2.15 0.13396
2.16 0.163382
2.17 0.193145
2.18 0.223467
2.19 0.254738
2.2 0.287321
2.21 0.321462
2.22 0.357603
2.23 0.395573
2.24 0.435512
2.25 0.476896
2.26 0.519197
2.27 0.561498
2.28 0.602811
2.29 0.64145
2.3 0.676344
2.31 0.705594
2.32 0.727675
2.33 0.741547
2.34 0.744864
2.35 0.738065
2.36 0.719112
2.37 0.688898
2.38 0.647416
2.39 0.595096
2.4 0.534154
2.41 0.465044
2.42 0.390995
2.43 0.313804
2.44 0.236202
2.45 0.160472
2.46 0.0895118
2.47 0.0246957
2.48 -0.0312843
2.49 -0.0778832
2.5 -0.114166
2.51 -0.139535
2.52 -0.155457
2.53 -0.161403
2.54 -0.160263
2.55 -0.153157
2.56 -0.142494
2.57 -0.130452
2.58 -0.119388
2.59 -0.111088
2.6 -0.107767
2.61 -0.110355
2.62 -0.119773
2.63 -0.13661
2.64 -0.159875
2.65 -0.189752
2.66 -0.224016
2.67 -0.26147
2.68 -0.299998
2.69 -0.337733
2.7 -0.372359
2.71 -0.402611
2.72 -0.42636
2.73 -0.443117
2.74 -0.452228
2.75 -0.453413
2.76 -0.447988
2.77 -0.436058
2.78 -0.420077
2.79 -0.401469
2.8 -0.382489
2.81 -0.365044
2.82 -0.351539
2.83 -0.34306
2.84 -0.34167
2.85 -0.347586
2.86 -0.361212
2.87 -0.382483
2.88 -0.409809
2.89 -0.442596
2.9 -0.478219
2.91 -0.514855
2.92 -0.550038
2.93 -0.581792
2.94 -0.607409
2.95 -0.626098
2.96 -0.635643
2.97 -0.636196
2.98 -0.62756
2.99 -0.610087
3 -0.585811
3.01 -0.555625
3.02 -0.522579
3.03 -0.488825
3.04 -0.45713
3.05 -0.429641
3.06 -0.409315
3.07 -0.396859
3.08 -0.394578
3.09 -0.402118
3.1 -0.419522
3.11 -0.446215
3.12 -0.479888
3.13 -0.519385
3.14 -0.561442
3.15 -0.603699
3.16 -0.643286
3.17 -0.678059
3.18 -0.705076
3.19 -0.723878
3.2 -0.732403
3.21 -0.731387
3.22 -0.721201
3.23 -0.702966
3.24 -0.679296
3.25 -0.652139
3.26 -0.624818
3.27 -0.600224
3.28 -0.581375
3.29 -0.570334
3.3 -0.570284
3.31 -0.581037
3.32 -0.604588
3.33 -0.639448
3.34 -0.684688
3.35 -0.738462
3.36 -0.797445
3.37 -0.858825
3.38 -0.918777
3.39 -0.97371
3.4 -1.0202
3.41 -1.05608
3.42 -1.07776
3.43 -1.08596
3.44 -1.07868
3.45 -1.05812
3.46 -1.02573
3.47 -0.984049
3.48 -0.937082
3.49 -0.888322
3.5 -0.841954
3.51 -0.801867
3.52 -0.771345
3.53 -0.752067
3.54 -0.746618
3.55 -0.752955
3.56 -0.770795
3.57 -0.795686
3.58 -0.823214
3.59 -0.846632
3.6 -0.859882
3.61 -0.852166
3.62 -0.818362
3.63 -0.748248
3.64 -0.634846
3.65 -0.474626
3.66 -0.257261
3.67 0.011924
3.68 0.339832
3.69 0.71873
3.7 1.14475
3.71 1.6113
3.72 2.10519
3.73 2.61733
3.74 3.13164
3.75 3.63412
3.76 4.10901
3.77 4.54432
3.78 4.91998
3.79 5.2324
3.8 5.46258
3.81 5.60977
3.82 5.66798
3.83 5.63161
3.84 5.51183
3.85 5.29967
3.86 5.01564
3.87 4.66272
3.88 4.25509
3.89 3.80721
3.9 3.33029
3.91 2.84144
3.92 2.35344
3.93 1.87936
3.94 1.43007
3.95 1.01712
3.96 0.643308
3.97 0.321034
3.98 0.0455923
3.99 -0.178333
4 -0.353613
4.01 -0.48561
4.02 -0.574832
4.03 -0.632449
4.04 -0.661067
4.05 -0.6701
4.06 -0.665327
4.07 -0.652869
4.08 -0.638266
4.09 -0.626032
4.1 -0.618943
4.11 -0.619374
4.12 -0.628054
4.13 -0.644397
4.14 -0.668013
4.15 -0.696214
4.16 -0.727168
4.17 -0.757957
4.18 -0.786099
4.19 -0.808718
4.2 -0.824441
4.21 -0.830144
4.22 -0.826086
4.23 -0.810796
4.24 -0.784458
4.25 -0.748019
4.26 -0.701326
4.27 -0.646892
4.28 -0.585203
4.29 -0.518474
4.3 -0.448058
4.31 -0.375389
4.32 -0.301841
4.33 -0.228451
4.34 -0.155987
4.35 -0.0850716
4.36 -0.016049
4.37 0.0510005
4.38 0.115746
4.39 0.178439
4.4 0.238714
4.41 0.296583
4.42 0.351704
4.43 0.403415
4.44 0.451484
4.45 0.494367
4.46 0.531858
4.47 0.562475
4.48 0.585243
4.49 0.599649
4.5 0.603749
4.51 0.59829
4.52 0.581588
4.53 0.554489
4.54 0.51704
4.55 0.469421
4.56 0.413517
4.57 0.349309
4.58 0.279415
4.59 0.204925
4.6 0.127804
4.61 0.0497735
4.62 -0.0273386
4.63 -0.102182
4.64 -0.173031
4.65 -0.239066
4.66 -0.29943
4.67 -0.353278
4.68 -0.401084
4.69 -0.441888
4.7 -0.476972
4.71 -0.506316
4.72 -0.53073
4.73 -0.551125
4.74 -0.567911
4.75 -0.582283
4.76 -0.594656
4.77 -0.605832
4.78 -0.616258
4.79 -0.626325
4.8 -0.636303
4.81 -0.646347
4.82 -0.656502
4.83 -0.666761
4.84 -0.677054
4.85 -0.687299
4.86 -0.697392
4.87 -0.707282
4.88 -0.716887
4.89 -0.726207
4.9 -0.73524
4.91 -0.743996
4.92 -0.752531
4.93 -0.760838
4.94 -0.76896
4.95 -0.776869
4.96 -0.784521
4.97 -0.791864
4.98 -0.798752
4.99 -0.80514
5 -0.810845
5.01 -0.815827
5.02 -0.820022
5.03 -0.823389
5.04 -0.826071
5.05 -0.828101
5.06 -0.829773
5.07 -0.831303
5.08 -0.833007
5.09 -0.835137
5.1 -0.83803
5.11 -0.841737
5.12 -0.846395
5.13 -0.85177
5.14 -0.857526
5.15 -0.862991
5.16 -0.867406
5.17 -0.869299
5.18 -0.867648
5.19 -0.860608
5.2 -0.846443
5.21 -0.823927
5.22 -0.790131
5.23 -0.745107
5.24 -0.686053
5.25 -0.613191
5.26 -0.525934
5.27 -0.423769
5.28 -0.308965
5.29 -0.181031
5.3 -0.0438664
5.31 0.1007
5.32 0.249055
5.33 0.397697
5.34 0.542167
5.35 0.679166
5.36 0.803492
5.37 0.9122
5.38 1.00184
5.39 1.06829
5.4 1.11203
5.41 1.12768
5.42 1.11864
5.43 1.08315
5.44 1.02306
5.45 0.941501
5.46 0.839109
5.47 0.721874
5.48 0.591846
5.49 0.454285
5.5 0.31296
5.51 0.172164
5.52 0.0352021
5.53 -0.0935584
5.54 -0.212552
5.55 -0.318932
5.56 -0.411427
5.57 -0.490133
5.58 -0.553358
5.59 -0.603711
5.6 -0.640609
5.61 -0.666612
5.62 -0.683116
5.63 -0.691604
5.64 -0.694466
5.65 -0.692513
5.66 -0.687687
5.67 -0.680663
5.68 -0.672104
5.69 -0.662278
5.7 -0.650866
5.71 -0.637658
5.72 -0.621724
5.73 -0.602466
5.74 -0.579089
5.75 -0.550603
5.76 -0.517084
5.77 -0.477426
5.78 -0.432588
5.79 -0.382611
5.8 -0.328534
5.81 -0.271703
5.82 -0.213574
5.83 -0.156041
5.84 -0.101232
5.85 -0.051018
5.86 -0.00726956
5.87 0.0277467
5.88 0.0536444
5.89 0.0676835
5.9 0.070866
5.91 0.0621246
5.92 0.0420056
5.93 0.0118183
5.94 -0.028302
5.95 -0.0755758
5.96 -0.129094
5.97 -0.18639
5.98 -0.245718
5.99 -0.305145
6 -0.363184
6.01 -0.418063
6.02 -0.4692
6.03 -0.515654
6.04 -0.557212
6.05 -0.594219
6.06 -0.626594
6.07 -0.655597
6.08 -0.681675
6.09 -0.70603
6.1 -0.729508
6.11 -0.752996
6.12 -0.777096
6.13 -0.802406
6.14 -0.828934
6.15 -0.856677
6.16 -0.885225
6.17 -0.913998
6.18 -0.942158
6.19 -0.968973
6.2 -0.993354
6.21 -1.01465
6.22 -1.0322
6.23 -1.04529
6.24 -1.05423
6.25 -1.0584
6.26 -1.05879
6.27 -1.05565
6.28 -1.04984
6.29 -1.04225
6.3 -1.03358
6.31 -1.02459
6.32 -1.01564
6.33 -1.00672
6.34 -0.997393
6.35 -0.986465
6.36 -0.972633
6.37 -0.95288
6.38 -0.925208
6.39 -0.885762
6.4 -0.830795
6.41 -0.757706
6.42 -0.659952
6.43 -0.537515
6.44 -0.38403
6.45 -0.199496
6.46 0.0177396
6.47 0.269666
6.48 0.551676
6.49 0.866085
6.5 1.20473
6.51 1.56465
6.52 1.93865
6.53 2.31925
6.54 2.69781
6.55 3.06624
6.56 3.41376
6.57 3.73261
6.58 4.01448
6.59 4.2488
6.6 4.43465
6.61 4.55808
6.62 4.62393
6.63 4.62563
6.64 4.56406
6.65 4.44428
6.66 4.2631
6.67 4.0337
6.68 3.75666
6.69 3.44364
6.7 3.10217
6.71 2.74076
6.72 2.36976
6.73 1.9976
6.74 1.63276
6.75 1.28314
6.76 0.955554
6.77 0.653583
6.78 0.384951
6.79 0.147615
6.8 -0.0530755
6.81 -0.219929
6.82 -0.353646
6.83 -0.454787
6.84 -0.529412
6.85 -0.576945
6.86 -0.604718
6.87 -0.614796
6.88 -0.611412
6.89 -0.598431
6.9 -0.578156
6.91 -0.554037
6.92 -0.527747
6.93 -0.501094
6.94 -0.475106
6.95 -0.450588
6.96 -0.427705
6.97 -0.406867
6.98 -0.387786
6.99 -0.370554
7 -0.355144
7.01 -0.341548
7.02 -0.330286
7.03 -0.321445
7.04 -0.315941
7.05 -0.314255
7.06 -0.317142
7.07 -0.325704
7.08 -0.339951
7.09 -0.361417
7.1 -0.389427
7.11 -0.424518
7.12 -0.466256
7.13 -0.513672
7.14 -0.566346
7.15 -0.622332
7.16 -0.680457
7.17 -0.738781
7.18 -0.79565
7.19 -0.849045
7.2 -0.897892
7.21 -0.939909
7.22 -0.974979
7.23 -1.00192
7.24 -1.02061
7.25 -1.0317
7.26 -1.03499
7.27 -1.03251
7.28 -1.0249
7.29 -1.01413
7.3 -1.00169
7.31 -0.989238
7.32 -0.978062
7.33 -0.969643
7.34 -0.964356
7.35 -0.962719
7.36 -0.964444
7.37 -0.968661
7.38 -0.974243
7.39 -0.979369
7.4 -0.981809
7.41 -0.979312
7.42 -0.969529
7.43 -0.949329
7.44 -0.917791
7.45 -0.870871
7.46 -0.809152
7.47 -0.730595
7.48 -0.635133
7.49 -0.524155
7.5 -0.397039
7.51 -0.257774
7.52 -0.107418
7.53 0.0500094
7.54 0.21132
7.55 0.372543
7.56 0.530189
7.57 0.67937
7.58 0.817593
7.59 0.940819
7.6 1.04617
7.61 1.13265
7.62 1.196
7.63 1.23848
7.64 1.25717
7.65 1.25425
7.66 1.23049
7.67 1.18642
7.68 1.12604
7.69 1.04928
7.7 0.96083
7.71 0.862374
7.72 0.75693
7.73 0.647288
7.74 0.535774
7.75 0.424848
7.76 0.316751
7.77 0.213206
7.78 0.115734
7.79 0.0261775
7.8 -0.0553272
7.81 -0.126483
7.82 -0.188001
7.83 -0.238688
7.84 -0.278366
7.85 -0.307606
7.86 -0.325187
7.87 -0.332991
7.88 -0.330295
7.89 -0.318624
7.9 -0.298795
7.91 -0.271647
7.92 -0.23923
7.93 -0.202459
7.94 -0.163661
7.95 -0.124498
7.96 -0.0870768
7.97 -0.0530525
7.98 -0.0249983
7.99 -0.00372576
8 0.00837531
8.01 0.0107589
8.02 0.00262023
8.03 -0.0170582
8.04 -0.0469528
8.05 -0.088136
8.06 -0.138153
8.07 -0.196373
8.08 -0.260899
8.09 -0.329635
8.1 -0.400791
8.11 -0.472075
8.12 -0.541467
8.13 -0.60726
8.14 -0.668054
8.15 -0.722329
8.16 -0.770171
8.17 -0.810259
8.18 -0.843799
8.19 -0.870847
8.2 -0.892422
8.21 -0.909842
8.22 -0.923932
8.23 -0.936248
8.24 -0.947585
8.25 -0.958729
8.26 -0.969937
8.27 -0.980967
8.28 -0.991139
8.29 -0.998797
8.3 -1.00236
8.31 -0.999172
8.32 -0.986279
8.33 -0.961514
8.34 -0.919758
8.35 -0.860461
8.36 -0.778587
8.37 -0.673438
8.38 -0.543436
8.39 -0.386334
8.4 -0.205308
8.41 0.00209996
8.42 0.230086
8.43 0.476927
8.44 0.73774
8.45 1.007
8.46 1.27912
8.47 1.54769
8.48 1.80551
8.49 2.04657
8.5 2.26497
8.51 2.45304
8.52 2.60965
8.53 2.72523
8.54 2.80228
8.55 2.83627
8.56 2.82711
8.57 2.77813
8.58 2.68642
8.59 2.56077
8.6 2.40102
8.61 2.21457
8.62 2.00621
8.63 1.78091
8.64 1.5457
8.65 1.30525
8.66 1.06552
8.67 0.831235
8.68 0.606921
8.69 0.395151
8.7 0.200727
8.71 0.0231342
8.72 -0.134272
8.73 -0.272435
8.74 -0.39144
8.75 -0.490981
8.76 -0.574288
8.77 -0.640469
8.78 -0.693535
8.79 -0.734354
8.8 -0.765127
8.81 -0.788183
8.82 -0.80454
8.83 -0.816656
8.84 -0.825457
8.85 -0.832436
8.86 -0.838508
8.87 -0.8445
8.88 -0.850967
8.89 -0.858472
8.9 -0.867175
8.91 -0.877338
8.92 -0.889042
8.93 -0.902205
8.94 -0.916965
8.95 -0.933011
8.96 -0.950362
8.97 -0.968745
8.98 -0.987964
8.99 -1.00779
9 -1.0279
9.01 -1.04799
9.02 -1.06769
9.03 -1.08662
9.04 -1.10435
9.05 -1.12057
9.06 -1.13461
9.07 -1.14636
9.08 -1.15513
9.09 -1.16075
9.1 -1.16286
9.11 -1.16093
9.12 -1.15515
9.13 -1.14465
9.14 -1.12987
9.15 -1.11035
9.16 -1.08604
9.17 -1.05719
9.18 -1.02321
9.19 -0.984864
9.2 -0.941743
9.21 -0.89438
9.22 -0.843021
9.23 -0.787838
9.24 -0.729685
9.25 -0.668741
9.26 -0.606076
9.27 -0.542362
9.28 -0.478624
9.29 -0.415797
9.3 -0.355275
9.31 -0.297843
9.32 -0.245088
9.33 -0.197868
9.34 -0.157168
9.35 -0.124409
9.36 -0.0993727
9.37 -0.083865
9.38 -0.0769025
9.39 -0.0790591
9.4 -0.0899059
9.41 -0.108316
9.42 -0.13425
9.43 -0.165552
9.44 -0.20149
9.45 -0.240178
9.46 -0.280168
9.47 -0.319805
9.48 -0.357797
9.49 -0.392423
9.5 -0.423033
9.51 -0.448568
9.52 -0.468526
9.53 -0.48312
9.54 -0.491834
9.55 -0.495951
9.56 -0.495686
9.57 -0.492367
9.58 -0.487042
9.59 -0.480935
9.6 -0.475228
9.61 -0.471244
9.62 -0.469746
9.63 -0.471663
9.64 -0.477566
9.65 -0.487453
9.66 -0.501879
9.67 -0.519992
9.68 -0.541789
9.69 -0.566377
9.7 -0.593086
9.71 -0.621184
9.72 -0.64982
9.73 -0.678296
9.74 -0.706026
9.75 -0.732495
9.76 -0.757325
9.77 -0.780401
9.78 -0.80129
9.79 -0.820149
9.8 -0.836518
9.81 -0.850216
9.82 -0.860744
9.83 -0.86699
9.84 -0.868385
9.85 -0.862449
9.86 -0.848177
9.87 -0.822759
9.88 -0.7834
9.89 -0.728441
9.9 -0.652378
9.91 -0.555353
9.92 -0.431971
9.93 -0.281574
9.94 -0.102514
9.95 0.108147
9.96 0.346973
9.97 0.617414
9.98 0.913382
9.99 1.23356
10 1.57311
10.01 1.92588
10.02 2.2864
10.03 2.64679
10.04 2.9992
10.05 3.33591
10.06 3.64963
10.07 3.9305
10.08 4.17595
10.09 4.37368
10.1 4.52491
10.11 4.62307
10.12 4.66622
10.13 4.65759
10.14 4.59143
10.15 4.47833
10.16 4.31666
10.17 4.11518
10.18 3.87968
10.19 3.61573
10.2 3.33317
10.21 3.03733
10.22 2.73714
10.23 2.43887
10.24 2.14912
10.25 1.87205
10.26 1.61422
10.27 1.37588
10.28 1.16144
10.29 0.970206
10.3 0.801998
10.31 0.65711
10.32 0.531284
10.33 0.424911
10.34 0.332789
10.35 0.253086
10.36 0.182585
10.37 0.118183
10.38 0.0578772
10.39 -0.000893596
10.4 -0.0596042
10.41 -0.119455
10.42 -0.181061
10.43 -0.244783
10.44 -0.310235
10.45 -0.377161
10.46 -0.444668
10.47 -0.511987
10.48 -0.578148
10.49 -0.642444
10.5 -0.703713
10.51 -0.761743
10.52 -0.815609
10.53 -0.865206
10.54 -0.910337
10.55 -0.950599
10.56 -0.986532
10.57 -1.01749
10.58 -1.04415
10.59 -1.06625
10.6 -1.08377
10.61 -1.09696
10.62 -1.10507
10.63 -1.10862
10.64 -1.10683
10.65 -1.09982
10.66 -1.08745
10.67 -1.06927
10.68 -1.04595
10.69 -1.01692
10.7 -0.983281
10.71 -0.94529
10.72 -0.90383
10.73 -0.860029
10.74 -0.814896
10.75 -0.769851
10.76 -0.726298
10.77 -0.685581
10.78 -0.648919
10.79 -0.617929
10.8 -0.592907
10.81 -0.575686
10.82 -0.565828
10.83 -0.564056
10.84 -0.570291
10.85 -0.583673
10.86 -0.604479
10.87 -0.630845
10.88 -0.662385
10.89 -0.697544
10.9 -0.735173
10.91 -0.774063
10.92 -0.813009
10.93 -0.85085
10.94 -0.88682
10.95 -0.920109
10.96 -0.950165
10.97 -0.976934
10.98 -0.99984
10.99 -1.0195
11 -1.03576
11.01 -1.04922
11.02 -1.06027
11.03 -1.0693
11.04 -1.07699
11.05 -1.08364
11.06 -1.08981
11.07 -1.09579
11.08 -1.10188
11.09 -1.10822
11.1 -1.11496
11.11 -1.12203
11.12 -1.12936
11.13 -1.13672
11.14 -1.14385
11.15 -1.15032
11.16 -1.15576
11.17 -1.15937
11.18 -1.16068
11.19 -1.15875
11.2 -1.15256
11.21 -1.14143
11.22 -1.12332
11.23 -1.09795
11.24 -1.06301
11.25 -1.01761
11.26 -0.960447
11.27 -0.889185
11.28 -0.804294
11.29 -0.70249
11.3 -0.585127
11.31 -0.450845
11.32 -0.299763
11.33 -0.133601
11.34 0.0483886
11.35 0.242254
11.36 0.44699
11.37 0.65879
11.38 0.874398
11.39 1.08968
11.4 1.30082
11.41 1.50224
11.42 1.69064
11.43 1.861
11.44 2.00887
11.45 2.13257
11.46 2.22523
11.47 2.28903
11.48 2.31897
11.49 2.31657
11.5 2.28229
11.51 2.21532
11.52 2.1213
11.53 1.99916
11.54 1.8559
11.55 1.69401
11.56 1.51826
11.57 1.33368
11.58 1.14423
11.59 0.95475
11.6 0.769296
11.61 0.591295
11.62 0.423407
11.63 0.268843
11.64 0.127489
11.65 0.00232576
11.66 -0.10849
11.67 -0.204498
11.68 -0.286782
11.69 -0.357587
11.7 -0.417265
11.71 -0.469203
11.72 -0.514429
11.73 -0.555293
11.74 -0.593343
11.75 -0.629906
11.76 -0.666075
11.77 -0.70246
11.78 -0.739226
11.79 -0.776186
11.8 -0.81269
11.81 -0.847941
11.82 -0.880389
11.83 -0.909095
11.84 -0.93207
11.85 -0.948055
11.86 -0.955711
11.87 -0.952933
11.88 -0.939842
11.89 -0.913804
11.9 -0.875755
11.91 -0.824626
11.92 -0.76042
11.93 -0.684388
11.94 -0.595649
11.95 -0.496987
11.96 -0.388556
11.97 -0.272633
11.98 -0.150947
11.99 -0.0253519
12 0.101739
12.01 0.228072
12.02 0.351426
12.03 0.469416
12.04 0.579611
12.05 0.680676
12.06 0.769094
12.07 0.845029
12.08 0.905537
12.09 0.950416
12.1 0.979089
12.11 0.99004
12.12 0.985369
12.13 0.963187
12.14 0.926529
12.15 0.875722
12.16 0.812516
12.17 0.739527
12.18 0.657817
12.19 0.570822
12.2 0.480293
12.21 0.388869
12.22 0.298568
12.23 0.211666
12.24 0.129293
12.25 0.0535956
12.26 -0.015328
12.27 -0.0766036
12.28 -0.130163
12.29 -0.176885
12.3 -0.216622
12.31 -0.251356
12.32 -0.281755
12.33 -0.309522
12.34 -0.33596
12.35 -0.362441
12.36 -0.389989
12.37 -0.419715
