# xPDFsuite Configuration #
[PDF]
wavelength = 0.1432
dataformat = twotheta
inputfile = 1_1Pd_CeO2_cycle-00263.chi
backgroundfile = background-00000.chi
mode = xray
bgscale = 1.007
composition = CeO2
outputtype = gr
qmaxinst = 28.8974762299
qmin = 0.5
qmax = 27.9
rmax = 50.0
rmin = 0.0
rstep = 0.01
rpoly = 1.8657

[Misc]
inputdir = G:/SankarDec16/1Pd/Chi
savedir = D:/DATA/APS_CeO2/1Pd
backgroundfilefull = G:/SankarDec16/Background/background-00000.chi

#### start data
#S 1
#L r($\AA$)  G($\AA^{-2}$)
0 0
0.01 -0.00639967
0.02 -0.0123178
0.03 -0.0172584
0.04 -0.020848
0.05 -0.0228786
0.06 -0.0230155
0.07 -0.0214808
0.08 -0.0181666
0.09 -0.0134969
0.1 -0.00776519
0.11 -0.00142059
0.12 0.00504613
0.13 0.0110851
0.14 0.0163054
0.15 0.0202293
0.16 0.022576
0.17 0.0232326
0.18 0.0219697
0.19 0.0191134
0.2 0.0146744
0.21 0.00914721
0.22 0.00289657
0.23 -0.00357319
0.24 -0.00979947
0.25 -0.0151898
0.26 -0.019462
0.27 -0.0221788
0.28 -0.0231653
0.29 -0.0224094
0.3 -0.0197978
0.31 -0.0157451
0.32 -0.010381
0.33 -0.00424726
0.34 0.00223694
0.35 0.00853531
0.36 0.0142352
0.37 0.0187292
0.38 0.0218569
0.39 0.0232425
0.4 0.0228253
0.41 0.0206947
0.42 0.0168591
0.43 0.011803
0.44 0.00576873
0.45 -0.000679292
0.46 -0.00708722
0.47 -0.0129115
0.48 -0.017809
0.49 -0.0211859
0.5 -0.0230114
0.51 -0.022989
0.52 -0.0211756
0.53 -0.0177583
0.54 -0.0128674
0.55 -0.0070349
0.56 -0.000605057
0.57 0.00586137
0.58 0.0118971
0.59 0.0169765
0.6 0.0208425
0.61 0.0229427
0.62 0.0233779
0.63 0.0219455
0.64 0.0188175
0.65 0.0142706
0.66 0.00855199
0.67 0.00221612
0.68 -0.00430654
0.69 -0.0104846
0.7 -0.0158596
0.71 -0.0199476
0.72 -0.0225905
0.73 -0.0233027
0.74 -0.0223123
0.75 -0.0195194
0.76 -0.0152035
0.77 -0.00971726
0.78 -0.00341205
0.79 0.00316137
0.8 0.0095085
0.81 0.0151528
0.82 0.0196676
0.83 0.0226354
0.84 0.0240039
0.85 0.0233801
0.86 0.0211065
0.87 0.0171908
0.88 0.0120043
0.89 0.00595581
0.9 -0.00052059
0.91 -0.00690995
0.92 -0.0126869
0.93 -0.0174607
0.94 -0.0208685
0.95 -0.0225943
0.96 -0.0227018
0.97 -0.0209358
0.98 -0.0177387
0.99 -0.0132478
1 -0.00791844
1.01 -0.00220006
1.02 0.00339045
1.03 0.00841536
1.04 0.0123296
1.05 0.01487
1.06 0.0157678
1.07 0.0148469
1.08 0.0123216
1.09 0.00812631
1.1 0.00283133
1.11 -0.00324295
1.12 -0.00951447
1.13 -0.0154593
1.14 -0.0203977
1.15 -0.0239648
1.16 -0.0254979
1.17 -0.0248495
1.18 -0.021788
1.19 -0.0162123
1.2 -0.0085104
1.21 0.00131812
1.22 0.0124892
1.23 0.0245549
1.24 0.0367629
1.25 0.048452
1.26 0.0587555
1.27 0.0672275
1.28 0.0730053
1.29 0.0758789
1.3 0.0754937
1.31 0.0716065
1.32 0.0646231
1.33 0.0542801
1.34 0.0414754
1.35 0.0264881
1.36 0.0100644
1.37 -0.00710272
1.38 -0.0242739
1.39 -0.0407899
1.4 -0.0558718
1.41 -0.0690716
1.42 -0.0799107
1.43 -0.0879435
1.44 -0.0932779
1.45 -0.0953744
1.46 -0.0947795
1.47 -0.0913928
1.48 -0.0855727
1.49 -0.0777075
1.5 -0.0679891
1.51 -0.0570099
1.52 -0.0449951
1.53 -0.0324098
1.54 -0.0195515
1.55 -0.00674292
1.56 0.00578175
1.57 0.0176983
1.58 0.0288846
1.59 0.0390712
1.6 0.0480809
1.61 0.0557874
1.62 0.0618362
1.63 0.0662648
1.64 0.0686591
1.65 0.0690374
1.66 0.0672211
1.67 0.0630367
1.68 0.0567015
1.69 0.0479062
1.7 0.037161
1.71 0.0245122
1.72 0.0103808
1.73 -0.00478004
1.74 -0.0205015
1.75 -0.036181
1.76 -0.0511836
1.77 -0.0649651
1.78 -0.076979
1.79 -0.0866439
1.8 -0.0938799
1.81 -0.0980237
1.82 -0.0994908
1.83 -0.0981466
1.84 -0.0943986
1.85 -0.0887685
1.86 -0.0817391
1.87 -0.0741522
1.88 -0.0667382
1.89 -0.0602727
1.9 -0.0554575
1.91 -0.0530371
1.92 -0.0531887
1.93 -0.0566758
1.94 -0.0630582
1.95 -0.0724433
1.96 -0.0843066
1.97 -0.0979786
1.98 -0.112738
1.99 -0.127556
2 -0.141352
2.01 -0.153137
2.02 -0.161911
2.03 -0.166566
2.04 -0.16686
2.05 -0.161428
2.06 -0.150831
2.07 -0.134527
2.08 -0.112898
2.09 -0.0865592
2.1 -0.0557078
2.11 -0.0216461
2.12 0.0151673
2.13 0.0535882
2.14 0.0928778
2.15 0.13226
2.16 0.1712
2.17 0.209149
2.18 0.246041
2.19 0.281747
2.2 0.316447
2.21 0.350426
2.22 0.38399
2.23 0.417525
2.24 0.451343
2.25 0.4856
2.26 0.520307
2.27 0.555227
2.28 0.589911
2.29 0.623464
2.3 0.655066
2.31 0.683339
2.32 0.706913
2.33 0.72468
2.34 0.734393
2.35 0.735875
2.36 0.726858
2.37 0.707482
2.38 0.677132
2.39 0.635454
2.4 0.584083
2.41 0.522529
2.42 0.453759
2.43 0.37893
2.44 0.300563
2.45 0.220989
2.46 0.142884
2.47 0.0683189
2.48 0.000112166
2.49 -0.060353
2.5 -0.111519
2.51 -0.151975
2.52 -0.182468
2.53 -0.201513
2.54 -0.21155
2.55 -0.212964
2.56 -0.207793
2.57 -0.198124
2.58 -0.185904
2.59 -0.173501
2.6 -0.163045
2.61 -0.156205
2.62 -0.154391
2.63 -0.158853
2.64 -0.169344
2.65 -0.18679
2.66 -0.209566
2.67 -0.237135
2.68 -0.267843
2.69 -0.300035
2.7 -0.331855
2.71 -0.361706
2.72 -0.387651
2.73 -0.408702
2.74 -0.423897
2.75 -0.432518
2.76 -0.435279
2.77 -0.431801
2.78 -0.423987
2.79 -0.41277
2.8 -0.399995
2.81 -0.38734
2.82 -0.376827
2.83 -0.369695
2.84 -0.367812
2.85 -0.371693
2.86 -0.381913
2.87 -0.398674
2.88 -0.4208
2.89 -0.447992
2.9 -0.478041
2.91 -0.509457
2.92 -0.540088
2.93 -0.568149
2.94 -0.59123
2.95 -0.608488
2.96 -0.617893
2.97 -0.619446
2.98 -0.612886
2.99 -0.598443
3 -0.577887
3.01 -0.551984
3.02 -0.523474
3.03 -0.494307
3.04 -0.467007
3.05 -0.443541
3.06 -0.42661
3.07 -0.416853
3.08 -0.416345
3.09 -0.424712
3.1 -0.441912
3.11 -0.467296
3.12 -0.49867
3.13 -0.534753
3.14 -0.572516
3.15 -0.609629
3.16 -0.6434
3.17 -0.671889
3.18 -0.692353
3.19 -0.704608
3.2 -0.706892
3.21 -0.700223
3.22 -0.685273
3.23 -0.663531
3.24 -0.637727
3.25 -0.610305
3.26 -0.584485
3.27 -0.563409
3.28 -0.55004
3.29 -0.546249
3.3 -0.555163
3.31 -0.576048
3.32 -0.610585
3.33 -0.656654
3.34 -0.712759
3.35 -0.776319
3.36 -0.843537
3.37 -0.910633
3.38 -0.973615
3.39 -1.02824
3.4 -1.07088
3.41 -1.09946
3.42 -1.11017
3.43 -1.10455
3.44 -1.08081
3.45 -1.04219
3.46 -0.991014
3.47 -0.930974
3.48 -0.86707
3.49 -0.804357
3.5 -0.747674
3.51 -0.702184
3.52 -0.671873
3.53 -0.658614
3.54 -0.665865
3.55 -0.690554
3.56 -0.73261
3.57 -0.786172
3.58 -0.845789
3.59 -0.903217
3.6 -0.950687
3.61 -0.97536
3.62 -0.970547
3.63 -0.92397
3.64 -0.827045
3.65 -0.675349
3.66 -0.456525
3.67 -0.176682
3.68 0.172406
3.69 0.581678
3.7 1.0466
3.71 1.55942
3.72 2.10459
3.73 2.67146
3.74 3.24118
3.75 3.79739
3.76 4.32178
3.77 4.80047
3.78 5.21039
3.79 5.54759
3.8 5.79052
3.81 5.93876
3.82 5.98596
3.83 5.92648
3.84 5.7736
3.85 5.51831
3.86 5.18441
3.87 4.77639
3.88 4.31107
3.89 3.80525
3.9 3.27282
3.91 2.73264
3.92 2.20006
3.93 1.68919
3.94 1.21206
3.95 0.781329
3.96 0.398891
3.97 0.0782978
3.98 -0.187387
3.99 -0.393865
4 -0.545714
4.01 -0.650053
4.02 -0.708853
4.03 -0.735256
4.04 -0.733443
4.05 -0.714226
4.06 -0.684518
4.07 -0.651543
4.08 -0.620866
4.09 -0.59799
4.1 -0.584809
4.11 -0.583729
4.12 -0.594724
4.13 -0.616321
4.14 -0.647481
4.15 -0.684369
4.16 -0.724404
4.17 -0.763847
4.18 -0.799628
4.19 -0.828322
4.2 -0.848482
4.21 -0.856618
4.22 -0.853364
4.23 -0.837333
4.24 -0.809106
4.25 -0.770043
4.26 -0.720372
4.27 -0.663009
4.28 -0.598769
4.29 -0.530046
4.3 -0.458285
4.31 -0.384909
4.32 -0.311081
4.33 -0.237618
4.34 -0.164925
4.35 -0.0932488
4.36 -0.0225492
4.37 0.0473434
4.38 0.116507
4.39 0.185101
4.4 0.25294
4.41 0.319721
4.42 0.384827
4.43 0.447136
4.44 0.505844
4.45 0.558678
4.46 0.604861
4.47 0.642158
4.48 0.669003
4.49 0.684582
4.5 0.686252
4.51 0.675123
4.52 0.64917
4.53 0.609845
4.54 0.557615
4.55 0.493297
4.56 0.419712
4.57 0.337708
4.58 0.250858
4.59 0.16122
4.6 0.0716172
4.61 -0.0157321
4.62 -0.0980608
4.63 -0.174304
4.64 -0.242199
4.65 -0.301519
4.66 -0.351775
4.67 -0.392711
4.68 -0.425848
4.69 -0.451018
4.7 -0.470641
4.71 -0.485685
4.72 -0.497929
4.73 -0.508896
4.74 -0.519999
4.75 -0.53229
4.76 -0.546792
4.77 -0.563819
4.78 -0.583528
4.79 -0.605802
4.8 -0.629908
4.81 -0.655295
4.82 -0.680866
4.83 -0.705668
4.84 -0.728656
4.85 -0.74911
4.86 -0.765906
4.87 -0.779054
4.88 -0.787813
4.89 -0.792561
4.9 -0.793494
4.91 -0.790993
4.92 -0.786038
4.93 -0.779141
4.94 -0.771442
4.95 -0.763719
4.96 -0.756836
4.97 -0.751373
4.98 -0.748095
4.99 -0.747036
5 -0.74865
5.01 -0.752694
5.02 -0.75904
5.03 -0.767468
5.04 -0.777425
5.05 -0.788706
5.06 -0.800728
5.07 -0.813205
5.08 -0.825804
5.09 -0.838303
5.1 -0.850485
5.11 -0.862253
5.12 -0.873394
5.13 -0.883747
5.14 -0.893014
5.15 -0.900635
5.16 -0.906204
5.17 -0.908386
5.18 -0.906555
5.19 -0.899061
5.2 -0.884375
5.21 -0.861374
5.22 -0.82715
5.23 -0.781667
5.24 -0.721937
5.25 -0.647941
5.26 -0.558803
5.27 -0.453621
5.28 -0.334512
5.29 -0.200481
5.3 -0.0555144
5.31 0.0987565
5.32 0.258595
5.33 0.420202
5.34 0.578871
5.35 0.730659
5.36 0.869791
5.37 0.992598
5.38 1.09493
5.39 1.17179
5.4 1.22329
5.41 1.24296
5.42 1.2343
5.43 1.19502
5.44 1.12698
5.45 1.0337
5.46 0.91578
5.47 0.78027
5.48 0.629634
5.49 0.470224
5.5 0.306672
5.51 0.144326
5.52 -0.0127445
5.53 -0.158977
5.54 -0.292478
5.55 -0.409638
5.56 -0.508914
5.57 -0.59052
5.58 -0.652442
5.59 -0.698172
5.6 -0.727235
5.61 -0.743135
5.62 -0.747948
5.63 -0.743969
5.64 -0.734381
5.65 -0.720823
5.66 -0.70573
5.67 -0.690344
5.68 -0.675611
5.69 -0.661779
5.7 -0.648697
5.71 -0.635599
5.72 -0.621365
5.73 -0.604734
5.74 -0.584379
5.75 -0.558663
5.76 -0.527178
5.77 -0.488138
5.78 -0.442328
5.79 -0.389437
5.8 -0.330474
5.81 -0.266988
5.82 -0.200537
5.83 -0.133639
5.84 -0.0688459
5.85 -0.00871452
5.86 0.044283
5.87 0.0871527
5.88 0.119152
5.89 0.136738
5.9 0.140955
5.91 0.130385
5.92 0.105653
5.93 0.0684034
5.94 0.0188909
5.95 -0.0393132
5.96 -0.104868
5.97 -0.174526
5.98 -0.245913
5.99 -0.316364
6 -0.383992
6.01 -0.446281
6.02 -0.50265
6.03 -0.551847
6.04 -0.593737
6.05 -0.628973
6.06 -0.657608
6.07 -0.681603
6.08 -0.701797
6.09 -0.720052
6.1 -0.737733
6.11 -0.756299
6.12 -0.776626
6.13 -0.799818
6.14 -0.825783
6.15 -0.854625
6.16 -0.885711
6.17 -0.918106
6.18 -0.950623
6.19 -0.981968
6.2 -1.01054
6.21 -1.0352
6.22 -1.05488
6.23 -1.06847
6.24 -1.07628
6.25 -1.07742
6.26 -1.07333
6.27 -1.06446
6.28 -1.05226
6.29 -1.03819
6.3 -1.02377
6.31 -1.01033
6.32 -0.999123
6.33 -0.990593
6.34 -0.984729
6.35 -0.980773
6.36 -0.977048
6.37 -0.970761
6.38 -0.958928
6.39 -0.937125
6.4 -0.900495
6.41 -0.845334
6.42 -0.763581
6.43 -0.654228
6.44 -0.509207
6.45 -0.32769
6.46 -0.107095
6.47 0.155618
6.48 0.455322
6.49 0.795391
6.5 1.1661
6.51 1.56415
6.52 1.98093
6.53 2.40729
6.54 2.83289
6.55 3.24758
6.56 3.63836
6.57 3.99563
6.58 4.30929
6.59 4.56661
6.6 4.76646
6.61 4.8924
6.62 4.95041
6.63 4.93315
6.64 4.84222
6.65 4.68416
6.66 4.4563
6.67 4.17461
6.68 3.84102
6.69 3.46979
6.7 3.0705
6.71 2.65406
6.72 2.23234
6.73 1.81643
6.74 1.41526
6.75 1.03832
6.76 0.69293
6.77 0.382266
6.78 0.114876
6.79 -0.113271
6.8 -0.296858
6.81 -0.440646
6.82 -0.54666
6.83 -0.616987
6.84 -0.659468
6.85 -0.675044
6.86 -0.672405
6.87 -0.654885
6.88 -0.627676
6.89 -0.595009
6.9 -0.560082
6.91 -0.525697
6.92 -0.493845
6.93 -0.465483
6.94 -0.441062
6.95 -0.420685
6.96 -0.403474
6.97 -0.389121
6.98 -0.376429
6.99 -0.364807
7 -0.353637
7.01 -0.342637
7.02 -0.331898
7.03 -0.321779
7.04 -0.313139
7.05 -0.306934
7.06 -0.304318
7.07 -0.306918
7.08 -0.315298
7.09 -0.331626
7.1 -0.355628
7.11 -0.388332
7.12 -0.429608
7.13 -0.478525
7.14 -0.534933
7.15 -0.596459
7.16 -0.661889
7.17 -0.728754
7.18 -0.794973
7.19 -0.857986
7.2 -0.916198
7.21 -0.966689
7.22 -1.00899
7.23 -1.04143
7.24 -1.06359
7.25 -1.07612
7.26 -1.07849
7.27 -1.07317
7.28 -1.06078
7.29 -1.04382
7.3 -1.02415
7.31 -1.00394
7.32 -0.984993
7.33 -0.969374
7.34 -0.957858
7.35 -0.951437
7.36 -0.950146
7.37 -0.953199
7.38 -0.959791
7.39 -0.967751
7.4 -0.974887
7.41 -0.978489
7.42 -0.975836
7.43 -0.963309
7.44 -0.939436
7.45 -0.899537
7.46 -0.843729
7.47 -0.769385
7.48 -0.67598
7.49 -0.564713
7.5 -0.434401
7.51 -0.289337
7.52 -0.130293
7.53 0.0383048
7.54 0.212989
7.55 0.389419
7.56 0.563412
7.57 0.729566
7.58 0.884627
7.59 1.02387
7.6 1.14368
7.61 1.24256
7.62 1.31534
7.63 1.36423
7.64 1.38555
7.65 1.38152
7.66 1.35281
7.67 1.29983
7.68 1.22719
7.69 1.13469
7.7 1.02797
7.71 0.909081
7.72 0.7818
7.73 0.649652
7.74 0.515739
7.75 0.383212
7.76 0.255155
7.77 0.133843
7.78 0.0213387
7.79 -0.0798543
7.8 -0.169669
7.81 -0.245044
7.82 -0.307178
7.83 -0.354675
7.84 -0.387629
7.85 -0.407117
7.86 -0.41203
7.87 -0.405141
7.88 -0.386072
7.89 -0.357115
7.9 -0.319667
7.91 -0.275238
7.92 -0.226364
7.93 -0.174684
7.94 -0.122768
7.95 -0.0727622
7.96 -0.0270361
7.97 0.0127623
7.98 0.043671
7.99 0.0653227
8 0.075159
8.01 0.0730626
8.02 0.0584898
8.03 0.030704
8.04 -0.00843492
8.05 -0.0597219
8.06 -0.120172
8.07 -0.188785
8.08 -0.263258
8.09 -0.341213
8.1 -0.420442
8.11 -0.498594
8.12 -0.573338
8.13 -0.642988
8.14 -0.706126
8.15 -0.761211
8.16 -0.808615
8.17 -0.847021
8.18 -0.878042
8.19 -0.90194
8.2 -0.920071
8.21 -0.934059
8.22 -0.945089
8.23 -0.954947
8.24 -0.964769
8.25 -0.975489
8.26 -0.987499
8.27 -1.0007
8.28 -1.01423
8.29 -1.0265
8.3 -1.03553
8.31 -1.03846
8.32 -1.03189
8.33 -1.01321
8.34 -0.9767
8.35 -0.921396
8.36 -0.841536
8.37 -0.736016
8.38 -0.602813
8.39 -0.439088
8.4 -0.248157
8.41 -0.0268963
8.42 0.218323
8.43 0.485811
8.44 0.770205
8.45 1.06527
8.46 1.36481
8.47 1.66135
8.48 1.94666
8.49 2.2136
8.5 2.45524
8.51 2.66248
8.52 2.8337
8.53 2.9576
8.54 3.03676
8.55 3.06575
8.56 3.04429
8.57 2.97624
8.58 2.85821
8.59 2.70063
8.6 2.50366
8.61 2.2763
8.62 2.02465
8.63 1.75524
8.64 1.47668
8.65 1.19553
8.66 0.91896
8.67 0.653286
8.68 0.404242
8.69 0.174775
8.7 -0.0287661
8.71 -0.207899
8.72 -0.3585
8.73 -0.482661
8.74 -0.581237
8.75 -0.654817
8.76 -0.708475
8.77 -0.742418
8.78 -0.762579
8.79 -0.771295
8.8 -0.772357
8.81 -0.769123
8.82 -0.764278
8.83 -0.76031
8.84 -0.759243
8.85 -0.762232
8.86 -0.769996
8.87 -0.783084
8.88 -0.800708
8.89 -0.82293
8.9 -0.848261
8.91 -0.875895
8.92 -0.904567
8.93 -0.933184
8.94 -0.960552
8.95 -0.986019
8.96 -1.00868
8.97 -1.02833
8.98 -1.04482
8.99 -1.05808
9 -1.06876
9.01 -1.077
9.02 -1.08371
9.03 -1.08941
9.04 -1.09478
9.05 -1.10032
9.06 -1.10649
9.07 -1.1134
9.08 -1.12109
9.09 -1.12921
9.1 -1.13726
9.11 -1.1444
9.12 -1.14985
9.13 -1.15211
9.14 -1.15039
9.15 -1.14325
9.16 -1.12947
9.17 -1.10855
9.18 -1.07864
9.19 -1.04047
9.2 -0.992806
9.21 -0.93648
9.22 -0.871974
9.23 -0.799828
9.24 -0.722061
9.25 -0.639575
9.26 -0.554873
9.27 -0.469807
9.28 -0.386761
9.29 -0.307601
9.3 -0.235282
9.31 -0.170721
9.32 -0.116621
9.33 -0.0736549
9.34 -0.0427155
9.35 -0.0250717
9.36 -0.0192492
9.37 -0.0266112
9.38 -0.044523
9.39 -0.0724465
9.4 -0.108491
9.41 -0.150387
9.42 -0.196507
9.43 -0.244198
9.44 -0.291481
9.45 -0.33633
9.46 -0.377143
9.47 -0.412114
9.48 -0.440973
9.49 -0.462091
9.5 -0.476319
9.51 -0.48344
9.52 -0.484228
9.53 -0.479998
9.54 -0.471532
9.55 -0.460796
9.56 -0.449073
9.57 -0.437997
9.58 -0.428855
9.59 -0.423092
9.6 -0.421169
9.61 -0.42438
9.62 -0.432336
9.63 -0.445313
9.64 -0.462875
9.65 -0.484154
9.66 -0.50869
9.67 -0.535113
9.68 -0.562632
9.69 -0.590179
9.7 -0.616992
9.71 -0.642323
9.72 -0.665986
9.73 -0.687574
9.74 -0.707494
9.75 -0.725981
9.76 -0.743622
9.77 -0.76103
9.78 -0.778863
9.79 -0.797511
9.8 -0.817296
9.81 -0.837983
9.82 -0.859
9.83 -0.879068
9.84 -0.8967
9.85 -0.908877
9.86 -0.91334
9.87 -0.906218
9.88 -0.883414
9.89 -0.842302
9.9 -0.775734
9.91 -0.683532
9.92 -0.558936
9.93 -0.401165
9.94 -0.208361
9.95 0.0227177
9.96 0.28753
9.97 0.589644
9.98 0.921283
9.99 1.28027
10 1.66028
10.01 2.05375
10.02 2.45354
10.03 2.85057
10.04 3.23526
10.05 3.59893
10.06 3.93336
10.07 4.22743
10.08 4.47898
10.09 4.67436
10.1 4.81594
10.11 4.89699
10.12 4.91623
10.13 4.87806
10.14 4.77713
10.15 4.6258
10.16 4.42323
10.17 4.17965
10.18 3.90196
10.19 3.597
10.2 3.27547
10.21 2.94404
10.22 2.61202
10.23 2.28653
10.24 1.97467
10.25 1.68054
10.26 1.4115
10.27 1.16697
10.28 0.951777
10.29 0.764514
10.3 0.6046
10.31 0.471999
10.32 0.36144
10.33 0.273035
10.34 0.200518
10.35 0.141465
10.36 0.0918618
10.37 0.0479553
10.38 0.00693339
10.39 -0.0341637
10.4 -0.0775303
10.41 -0.124643
10.42 -0.17639
10.43 -0.233518
10.44 -0.295319
10.45 -0.361916
10.46 -0.431793
10.47 -0.504055
10.48 -0.577268
10.49 -0.650128
10.5 -0.72104
10.51 -0.78907
10.52 -0.852723
10.53 -0.911307
10.54 -0.964145
10.55 -1.01026
10.56 -1.05009
10.57 -1.08244
10.58 -1.1082
10.59 -1.127
10.6 -1.13902
10.61 -1.1449
10.62 -1.14406
10.63 -1.1377
10.64 -1.12542
10.65 -1.10791
10.66 -1.08547
10.67 -1.05817
10.68 -1.02694
10.69 -0.991653
10.7 -0.953381
10.71 -0.912535
10.72 -0.869917
10.73 -0.826386
10.74 -0.782849
10.75 -0.740227
10.76 -0.699651
10.77 -0.662036
10.78 -0.628274
10.79 -0.599625
10.8 -0.576239
10.81 -0.559677
10.82 -0.549585
10.83 -0.546688
10.84 -0.551088
10.85 -0.562194
10.86 -0.580583
10.87 -0.604747
10.88 -0.6347
10.89 -0.669199
10.9 -0.707362
10.91 -0.74829
10.92 -0.790704
10.93 -0.833659
10.94 -0.876049
10.95 -0.91691
10.96 -0.9553
10.97 -0.990718
10.98 -1.02206
10.99 -1.04948
11 -1.07222
11.01 -1.09049
11.02 -1.10435
11.03 -1.11379
11.04 -1.11966
11.05 -1.12196
11.06 -1.12179
11.07 -1.11966
11.08 -1.1164
11.09 -1.11281
11.1 -1.10969
11.11 -1.10764
11.12 -1.10736
11.13 -1.10918
11.14 -1.11328
11.15 -1.11978
11.16 -1.12813
11.17 -1.13794
11.18 -1.14809
11.19 -1.15739
11.2 -1.16417
11.21 -1.16694
11.22 -1.1628
11.23 -1.15057
11.24 -1.12692
11.25 -1.09013
11.26 -1.03822
11.27 -0.967936
11.28 -0.879853
11.29 -0.769811
11.3 -0.639832
11.31 -0.488542
11.32 -0.316618
11.33 -0.126686
11.34 0.0813996
11.35 0.302393
11.36 0.534316
11.37 0.772212
11.38 1.01186
11.39 1.2479
11.4 1.47615
11.41 1.68976
11.42 1.88559
11.43 2.05809
11.44 2.20284
11.45 2.31869
11.46 2.39857
11.47 2.44592
11.48 2.45596
11.49 2.43127
11.5 2.37303
11.51 2.28126
11.52 2.16238
11.53 2.01606
11.54 1.84981
11.55 1.66669
11.56 1.47181
11.57 1.2703
11.58 1.06654
11.59 0.86502
11.6 0.670003
11.61 0.48463
11.62 0.3114
11.63 0.153464
11.64 0.0103182
11.65 -0.114991
11.66 -0.224651
11.67 -0.318229
11.68 -0.396907
11.69 -0.463082
11.7 -0.517038
11.71 -0.562384
11.72 -0.600134
11.73 -0.632812
11.74 -0.662106
11.75 -0.689517
11.76 -0.716388
11.77 -0.743595
11.78 -0.771573
11.79 -0.800436
11.8 -0.829842
11.81 -0.859143
11.82 -0.887179
11.83 -0.912912
11.84 -0.934565
11.85 -0.950712
11.86 -0.959855
11.87 -0.959687
11.88 -0.94988
11.89 -0.927432
11.9 -0.892766
11.91 -0.844323
11.92 -0.781579
11.93 -0.705479
11.94 -0.614512
11.95 -0.511532
11.96 -0.396321
11.97 -0.27134
11.98 -0.138506
11.99 9.67408e-05
12 0.141404
12.01 0.282692
12.02 0.420962
12.03 0.553123
12.04 0.675935
12.05 0.787546
12.06 0.883429
12.07 0.963707
12.08 1.02471
12.09 1.06629
12.1 1.08793
12.11 1.0881
12.12 1.06969
12.13 1.03099
12.14 0.97609
12.15 0.905986
12.16 0.823359
12.17 0.731607
12.18 0.63282
12.19 0.530889
12.2 0.428416
12.21 0.328298
12.22 0.232749
12.23 0.144324
12.24 0.0635757
12.25 -0.00724849
12.26 -0.0689598
12.27 -0.121155
12.28 -0.164553
12.29 -0.200803
12.3 -0.230588
12.31 -0.256499
12.32 -0.279968
12.33 -0.303095
12.34 -0.327472
12.35 -0.354829
12.36 -0.385832
12.37 -0.421772
12.38 -0.462204
12.39 -0.507044
12.4 -0.555328
12.41 -0.605574
