# xPDFsuite Configuration #
[PDF]
wavelength = 0.1432
dataformat = twotheta
inputfile = 1_1Pd_CeO2_cycle-00436.chi
backgroundfile = background-00000.chi
mode = xray
bgscale = 1.007
composition = CeO2
outputtype = gr
qmaxinst = 28.8974762299
qmin = 0.5
qmax = 27.9
rmax = 50.0
rmin = 0.0
rstep = 0.01
rpoly = 1.8657

[Misc]
inputdir = G:/SankarDec16/1Pd/Chi
savedir = D:/DATA/APS_CeO2/1Pd
backgroundfilefull = G:/SankarDec16/Background/background-00000.chi

#### start data
#S 1
#L r($\AA$)  G($\AA^{-2}$)
0 0
0.01 -0.00435584
0.02 -0.00838212
0.03 -0.0117396
0.04 -0.014173
0.05 -0.0155406
0.06 -0.0156149
0.07 -0.014549
0.08 -0.0122711
0.09 -0.00907275
0.1 -0.00515641
0.11 -0.000831095
0.12 0.00356788
0.13 0.00766276
0.14 0.0111889
0.15 0.0138206
0.16 0.0153693
0.17 0.0157614
0.18 0.0148449
0.19 0.0128464
0.2 0.00977938
0.21 0.00598456
0.22 0.00171471
0.23 -0.00268287
0.24 -0.00689399
0.25 -0.010512
0.26 -0.0133506
0.27 -0.0151145
0.28 -0.0156912
0.29 -0.0150792
0.3 -0.0132101
0.31 -0.0103727
0.32 -0.00666474
0.33 -0.00245926
0.34 0.00195366
0.35 0.00620588
0.36 0.0100205
0.37 0.0129828
0.38 0.0149943
0.39 0.0158052
0.4 0.0153853
0.41 0.0138053
0.42 0.011084
0.43 0.00755789
0.44 0.00340434
0.45 -0.000990403
0.46 -0.00531375
0.47 -0.0091953
0.48 -0.0124099
0.49 -0.0145558
0.5 -0.0156277
0.51 -0.0154346
0.52 -0.0140299
0.53 -0.0115535
0.54 -0.00811055
0.55 -0.00406833
0.56 0.000325214
0.57 0.00469003
0.58 0.00870721
0.59 0.0120229
0.6 0.0144754
0.61 0.0156968
0.62 0.0157756
0.63 0.0145891
0.64 0.0122725
0.65 0.00902744
0.66 0.00504085
0.67 0.00069169
0.68 -0.00371402
0.69 -0.00782174
0.7 -0.0113228
0.71 -0.0138976
0.72 -0.0154567
0.73 -0.0156846
0.74 -0.0147585
0.75 -0.0126304
0.76 -0.00950954
0.77 -0.00564832
0.78 -0.00130421
0.79 0.00315221
0.8 0.00737518
0.81 0.0110548
0.82 0.0139106
0.83 0.0156763
0.84 0.016339
0.85 0.0156557
0.86 0.0138816
0.87 0.0110467
0.88 0.00742153
0.89 0.00329328
0.9 -0.00102677
0.91 -0.0052023
0.92 -0.00887397
0.93 -0.0118018
0.94 -0.0137598
0.95 -0.0145641
0.96 -0.0142885
0.97 -0.0128026
0.98 -0.0104304
0.99 -0.00730326
1 -0.00375245
1.01 -9.27306e-05
1.02 0.0033006
1.03 0.00615646
1.04 0.00809857
1.05 0.00898865
1.06 0.00867328
1.07 0.00707682
1.08 0.00439257
1.09 0.000636293
1.1 -0.00376173
1.11 -0.00852286
1.12 -0.0132065
1.13 -0.0174282
1.14 -0.0206648
1.15 -0.022687
1.16 -0.0229944
1.17 -0.0215193
1.18 -0.018108
1.19 -0.0127086
1.2 -0.00564361
1.21 0.00307474
1.22 0.0128307
1.23 0.0232744
1.24 0.0338231
1.25 0.0439648
1.26 0.0530245
1.27 0.0606502
1.28 0.066154
1.29 0.0693489
1.3 0.0699234
1.31 0.0676326
1.32 0.0627554
1.33 0.0549821
1.34 0.0449878
1.35 0.0328959
1.36 0.0192388
1.37 0.00453484
1.38 -0.0107151
1.39 -0.0259253
1.4 -0.0405199
1.41 -0.0540382
1.42 -0.0660285
1.43 -0.076016
1.44 -0.0839328
1.45 -0.0891687
1.46 -0.0919957
1.47 -0.0921265
1.48 -0.0896729
1.49 -0.0848278
1.5 -0.0775219
1.51 -0.0682757
1.52 -0.0571033
1.53 -0.0444963
1.54 -0.0307364
1.55 -0.016191
1.56 -0.00128932
1.57 0.0135574
1.58 0.0279403
1.59 0.0413938
1.6 0.0534925
1.61 0.063921
1.62 0.0720745
1.63 0.0779372
1.64 0.0809095
1.65 0.08106
1.66 0.0782215
1.67 0.0722953
1.68 0.0637008
1.69 0.0522526
1.7 0.0387287
1.71 0.0233796
1.72 0.00685207
1.73 -0.0102416
1.74 -0.0272157
1.75 -0.0434665
1.76 -0.0582293
1.77 -0.0710646
1.78 -0.0814948
1.79 -0.0890797
1.8 -0.093962
1.81 -0.0956892
1.82 -0.0949211
1.83 -0.0917692
1.84 -0.0868528
1.85 -0.0808207
1.86 -0.0743655
1.87 -0.0682453
1.88 -0.0632842
1.89 -0.0600642
1.9 -0.0591486
1.91 -0.0610547
1.92 -0.0656752
1.93 -0.0734579
1.94 -0.0836912
1.95 -0.0961599
1.96 -0.110096
1.97 -0.124695
1.98 -0.138976
1.99 -0.152053
2 -0.162723
2.01 -0.170257
2.02 -0.173825
2.03 -0.172589
2.04 -0.166664
2.05 -0.155034
2.06 -0.138609
2.07 -0.117215
2.08 -0.091533
2.09 -0.0623497
2.1 -0.0301766
2.11 0.00381341
2.12 0.0389918
2.13 0.0744698
2.14 0.109658
2.15 0.14403
2.16 0.177423
2.17 0.209595
2.18 0.240861
2.19 0.271438
2.2 0.30181
2.21 0.332445
2.22 0.363944
2.23 0.396601
2.24 0.430878
2.25 0.466713
2.26 0.503977
2.27 0.542204
2.28 0.580614
2.29 0.618021
2.3 0.653276
2.31 0.684692
2.32 0.710642
2.33 0.729872
2.34 0.739901
2.35 0.740666
2.36 0.729812
2.37 0.707714
2.38 0.67393
2.39 0.628372
2.4 0.572988
2.41 0.507636
2.42 0.435566
2.43 0.358266
2.44 0.278493
2.45 0.198697
2.46 0.121797
2.47 0.0496888
2.48 -0.0147158
2.49 -0.0703176
2.5 -0.115752
2.51 -0.149899
2.52 -0.173858
2.53 -0.186511
2.54 -0.190619
2.55 -0.186927
2.56 -0.177748
2.57 -0.165318
2.58 -0.151877
2.59 -0.13964
2.6 -0.130894
2.61 -0.127048
2.62 -0.129361
2.63 -0.138847
2.64 -0.1549
2.65 -0.178164
2.66 -0.20665
2.67 -0.239501
2.68 -0.274773
2.69 -0.310631
2.7 -0.344927
2.71 -0.376132
2.72 -0.402135
2.73 -0.422119
2.74 -0.435217
2.75 -0.44087
2.76 -0.440091
2.77 -0.432701
2.78 -0.420929
2.79 -0.405971
2.8 -0.389939
2.81 -0.374687
2.82 -0.362504
2.83 -0.354616
2.84 -0.353073
2.85 -0.35828
2.86 -0.370767
2.87 -0.390635
2.88 -0.416463
2.89 -0.447814
2.9 -0.482178
2.91 -0.517835
2.92 -0.55237
2.93 -0.583803
2.94 -0.609428
2.95 -0.628352
2.96 -0.638293
2.97 -0.639274
2.98 -0.630989
2.99 -0.613661
3 -0.589256
3.01 -0.558533
3.02 -0.524558
3.03 -0.489438
3.04 -0.455978
3.05 -0.426404
3.06 -0.403743
3.07 -0.388847
3.08 -0.384151
3.09 -0.389443
3.1 -0.404899
3.11 -0.430092
3.12 -0.462757
3.13 -0.501903
3.14 -0.544203
3.15 -0.587354
3.16 -0.628426
3.17 -0.665188
3.18 -0.694644
3.19 -0.716165
3.2 -0.727593
3.21 -0.729515
3.22 -0.722184
3.23 -0.706596
3.24 -0.685306
3.25 -0.660138
3.26 -0.634433
3.27 -0.611033
3.28 -0.592973
3.29 -0.582359
3.3 -0.582378
3.31 -0.59293
3.32 -0.616025
3.33 -0.650235
3.34 -0.694656
3.35 -0.747454
3.36 -0.805322
3.37 -0.865413
3.38 -0.923907
3.39 -0.977173
3.4 -1.02177
3.41 -1.05551
3.42 -1.0748
3.43 -1.08041
3.44 -1.07035
3.45 -1.04692
3.46 -1.01168
3.47 -0.967291
3.48 -0.91789
3.49 -0.867199
3.5 -0.819491
3.51 -0.778853
3.52 -0.748689
3.53 -0.730714
3.54 -0.727668
3.55 -0.737348
3.56 -0.759513
3.57 -0.789478
3.58 -0.822653
3.59 -0.852028
3.6 -0.871245
3.61 -0.869134
3.62 -0.840298
3.63 -0.774141
3.64 -0.663398
3.65 -0.504388
3.66 -0.286437
3.67 -0.015034
3.68 0.31692
3.69 0.701413
3.7 1.1344
3.71 1.60901
3.72 2.11161
3.73 2.63269
3.74 3.15572
3.75 3.66619
3.76 4.14789
3.77 4.58853
3.78 4.96751
3.79 5.2813
3.8 5.51053
3.81 5.65465
3.82 5.70777
3.83 5.66447
3.84 5.53643
3.85 5.31491
3.86 5.02108
3.87 4.65838
3.88 4.2415
3.89 3.78531
3.9 3.30158
3.91 2.80751
3.92 2.31629
3.93 1.84094
3.94 1.39229
3.95 0.981828
3.96 0.611929
3.97 0.29483
3.98 0.02525
3.99 -0.192489
4 -0.361735
4.01 -0.488208
4.02 -0.572872
4.03 -0.627019
4.04 -0.653575
4.05 -0.66189
4.06 -0.657722
4.07 -0.647071
4.08 -0.635128
4.09 -0.626187
4.1 -0.62257
4.11 -0.626297
4.12 -0.637707
4.13 -0.655946
4.14 -0.680245
4.15 -0.707927
4.16 -0.736944
4.17 -0.764564
4.18 -0.788445
4.19 -0.805964
4.2 -0.816155
4.21 -0.81629
4.22 -0.807066
4.23 -0.787468
4.24 -0.758084
4.25 -0.720089
4.26 -0.673756
4.27 -0.621437
4.28 -0.563823
4.29 -0.502786
4.3 -0.439434
4.31 -0.374808
4.32 -0.309733
4.33 -0.24469
4.34 -0.179894
4.35 -0.115366
4.36 -0.0509447
4.37 0.0135703
4.38 0.078402
4.39 0.143575
4.4 0.209001
4.41 0.27426
4.42 0.33871
4.43 0.401223
4.44 0.460866
4.45 0.51545
4.46 0.564043
4.47 0.604431
4.48 0.634981
4.49 0.654794
4.5 0.661203
4.51 0.655155
4.52 0.634547
4.53 0.600663
4.54 0.553823
4.55 0.494656
4.56 0.425852
4.57 0.34801
4.58 0.264644
4.59 0.177635
4.6 0.0897327
4.61 0.00316648
4.62 -0.0793922
4.63 -0.156685
4.64 -0.226442
4.65 -0.288207
4.66 -0.341322
4.67 -0.385309
4.68 -0.421469
4.69 -0.449374
4.7 -0.471284
4.71 -0.487964
4.72 -0.501071
4.73 -0.512097
4.74 -0.522347
4.75 -0.533034
4.76 -0.545185
4.77 -0.559331
4.78 -0.575792
4.79 -0.594669
4.8 -0.615441
4.81 -0.637809
4.82 -0.660825
4.83 -0.68373
4.84 -0.705591
4.85 -0.725711
4.86 -0.743073
4.87 -0.757533
4.88 -0.768356
4.89 -0.775736
4.9 -0.779737
4.91 -0.780585
4.92 -0.779086
4.93 -0.775605
4.94 -0.771168
4.95 -0.766453
4.96 -0.762274
4.97 -0.759213
4.98 -0.758025
4.99 -0.758828
5 -0.762114
5.01 -0.767729
5.02 -0.7756
5.03 -0.785549
5.04 -0.79703
5.05 -0.8098
5.06 -0.823204
5.07 -0.836825
5.08 -0.85016
5.09 -0.862835
5.1 -0.874333
5.11 -0.884484
5.12 -0.892766
5.13 -0.898988
5.14 -0.902773
5.15 -0.903522
5.16 -0.901076
5.17 -0.894159
5.18 -0.882615
5.19 -0.865146
5.2 -0.840755
5.21 -0.808799
5.22 -0.767104
5.23 -0.715964
5.24 -0.653163
5.25 -0.578915
5.26 -0.492678
5.27 -0.393886
5.28 -0.284287
5.29 -0.163203
5.3 -0.0337825
5.31 0.102643
5.32 0.243116
5.33 0.384647
5.34 0.52345
5.35 0.656421
5.36 0.778866
5.37 0.887805
5.38 0.979799
5.39 1.05063
5.4 1.10029
5.41 1.12315
5.42 1.12191
5.43 1.09432
5.44 1.04159
5.45 0.966391
5.46 0.868669
5.47 0.754285
5.48 0.624783
5.49 0.485501
5.5 0.340221
5.51 0.193347
5.52 0.0487157
5.53 -0.0890536
5.54 -0.217665
5.55 -0.33374
5.56 -0.435347
5.57 -0.522076
5.58 -0.59151
5.59 -0.646101
5.6 -0.684701
5.61 -0.709915
5.62 -0.723114
5.63 -0.725834
5.64 -0.721004
5.65 -0.709608
5.66 -0.694361
5.67 -0.67644
5.68 -0.657197
5.69 -0.637449
5.7 -0.617617
5.71 -0.597749
5.72 -0.577533
5.73 -0.556426
5.74 -0.533749
5.75 -0.508566
5.76 -0.480488
5.77 -0.448377
5.78 -0.412449
5.79 -0.372344
5.8 -0.32846
5.81 -0.281594
5.82 -0.232531
5.83 -0.182813
5.84 -0.133976
5.85 -0.0877272
5.86 -0.0457543
5.87 -0.0101789
5.88 0.0182719
5.89 0.0369305
5.9 0.0461771
5.91 0.0446545
5.92 0.0323734
5.93 0.0101558
5.94 -0.0224103
5.95 -0.0629191
5.96 -0.110966
5.97 -0.16429
5.98 -0.221339
5.99 -0.280346
6 -0.339586
6.01 -0.397375
6.02 -0.452641
6.03 -0.504216
6.04 -0.551448
6.05 -0.594273
6.06 -0.632149
6.07 -0.666011
6.08 -0.695872
6.09 -0.722749
6.1 -0.747319
6.11 -0.770322
6.12 -0.792564
6.13 -0.814576
6.14 -0.836795
6.15 -0.859432
6.16 -0.882475
6.17 -0.90572
6.18 -0.928767
6.19 -0.951175
6.2 -0.972279
6.21 -0.991599
6.22 -1.00864
6.23 -1.02287
6.24 -1.03436
6.25 -1.04261
6.26 -1.04819
6.27 -1.05115
6.28 -1.05199
6.29 -1.05121
6.3 -1.0491
6.31 -1.0461
6.32 -1.04217
6.33 -1.03709
6.34 -1.03021
6.35 -1.02015
6.36 -1.00575
6.37 -0.983842
6.38 -0.952795
6.39 -0.908871
6.4 -0.848644
6.41 -0.769843
6.42 -0.666244
6.43 -0.538156
6.44 -0.379543
6.45 -0.19062
6.46 0.0300859
6.47 0.284393
6.48 0.567779
6.49 0.882446
6.5 1.22051
6.51 1.57908
6.52 1.95126
6.53 2.32979
6.54 2.70632
6.55 3.07296
6.56 3.41918
6.57 3.73737
6.58 4.01931
6.59 4.25449
6.6 4.44186
6.61 4.56745
6.62 4.63581
6.63 4.64021
6.64 4.5812
6.65 4.46362
6.66 4.28393
6.67 4.05518
6.68 3.77765
6.69 3.46297
6.7 3.11863
6.71 2.75315
6.72 2.37711
6.73 1.99908
6.74 1.62793
6.75 1.27188
6.76 0.938165
6.77 0.630693
6.78 0.357695
6.79 0.117277
6.8 -0.0847868
6.81 -0.251273
6.82 -0.382822
6.83 -0.479972
6.84 -0.549145
6.85 -0.589857
6.86 -0.610013
6.87 -0.612061
6.88 -0.600788
6.89 -0.580521
6.9 -0.554209
6.91 -0.525554
6.92 -0.496797
6.93 -0.469847
6.94 -0.44586
6.95 -0.425731
6.96 -0.409211
6.97 -0.396675
6.98 -0.387127
6.99 -0.38023
7 -0.375276
7.01 -0.371663
7.02 -0.369119
7.03 -0.367341
7.04 -0.366508
7.05 -0.366884
7.06 -0.368988
7.07 -0.373699
7.08 -0.381464
7.09 -0.393715
7.1 -0.410603
7.11 -0.433086
7.12 -0.461507
7.13 -0.495624
7.14 -0.535904
7.15 -0.580985
7.16 -0.630574
7.17 -0.68312
7.18 -0.737352
7.19 -0.791645
7.2 -0.844545
7.21 -0.894059
7.22 -0.939212
7.23 -0.978477
7.24 -1.01093
7.25 -1.03643
7.26 -1.05389
7.27 -1.06456
7.28 -1.06816
7.29 -1.0661
7.3 -1.05937
7.31 -1.0491
7.32 -1.03684
7.33 -1.02364
7.34 -1.01069
7.35 -0.998756
7.36 -0.98831
7.37 -0.979295
7.38 -0.971425
7.39 -0.963733
7.4 -0.954925
7.41 -0.943391
7.42 -0.927344
7.43 -0.904252
7.44 -0.873
7.45 -0.830023
7.46 -0.775153
7.47 -0.706123
7.48 -0.622134
7.49 -0.523753
7.5 -0.409513
7.51 -0.282511
7.52 -0.142833
7.53 0.00619353
7.54 0.161988
7.55 0.321239
7.56 0.480284
7.57 0.634781
7.58 0.781474
7.59 0.916117
7.6 1.03509
7.61 1.13652
7.62 1.21528
7.63 1.27267
7.64 1.3047
7.65 1.31278
7.66 1.29699
7.67 1.25709
7.68 1.19718
7.69 1.11651
7.7 1.02054
7.71 0.911044
7.72 0.79177
7.73 0.666386
7.74 0.53803
7.75 0.410251
7.76 0.286318
7.77 0.16885
7.78 0.060141
7.79 -0.0370969
7.8 -0.122719
7.81 -0.193624
7.82 -0.251156
7.83 -0.294114
7.84 -0.322918
7.85 -0.338955
7.86 -0.341669
7.87 -0.334046
7.88 -0.316279
7.89 -0.290819
7.9 -0.259258
7.91 -0.223305
7.92 -0.185133
7.93 -0.146463
7.94 -0.109157
7.95 -0.0749571
7.96 -0.0455125
7.97 -0.0217826
7.98 -0.00582669
7.99 0.00255154
8 0.00172458
8.01 -0.00800363
8.02 -0.0267453
8.03 -0.0547455
8.04 -0.0905172
8.05 -0.134434
8.06 -0.18439
8.07 -0.239667
8.08 -0.29874
8.09 -0.360085
8.1 -0.422339
8.11 -0.484049
8.12 -0.543828
8.13 -0.600667
8.14 -0.653732
8.15 -0.702118
8.16 -0.746028
8.17 -0.784663
8.18 -0.818918
8.19 -0.848864
8.2 -0.875168
8.21 -0.898651
8.22 -0.91972
8.23 -0.939266
8.24 -0.957523
8.25 -0.974745
8.26 -0.990758
8.27 -1.00486
8.28 -1.01636
8.29 -1.02326
8.3 -1.02433
8.31 -1.017
8.32 -0.998692
8.33 -0.967716
8.34 -0.919402
8.35 -0.853726
8.36 -0.766167
8.37 -0.656412
8.38 -0.523191
8.39 -0.364563
8.4 -0.183585
8.41 0.0220239
8.42 0.24689
8.43 0.489496
8.44 0.745408
8.45 1.00956
8.46 1.27688
8.47 1.54136
8.48 1.79629
8.49 2.03588
8.5 2.25445
8.51 2.44446
8.52 2.6045
8.53 2.72498
8.54 2.80786
8.55 2.84824
8.56 2.84545
8.57 2.80235
8.58 2.71535
8.59 2.59295
8.6 2.43443
8.61 2.24708
8.62 2.03559
8.63 1.80488
8.64 1.56243
8.65 1.31306
8.66 1.06346
8.67 0.81887
8.68 0.58453
8.69 0.363598
8.7 0.161706
8.71 -0.0213817
8.72 -0.181637
8.73 -0.319925
8.74 -0.436254
8.75 -0.530279
8.76 -0.605813
8.77 -0.662122
8.78 -0.704097
8.79 -0.733198
8.8 -0.752448
8.81 -0.764847
8.82 -0.772333
8.83 -0.777691
8.84 -0.782585
8.85 -0.788601
8.86 -0.796745
8.87 -0.807893
8.88 -0.821973
8.89 -0.839393
8.9 -0.859372
8.91 -0.881556
8.92 -0.905162
8.93 -0.929402
8.94 -0.95347
8.95 -0.976706
8.96 -0.998378
8.97 -1.01811
8.98 -1.03563
8.99 -1.05067
9 -1.06352
9.01 -1.07406
9.02 -1.08288
9.03 -1.09021
9.04 -1.09648
9.05 -1.10208
9.06 -1.10727
9.07 -1.11229
9.08 -1.11714
9.09 -1.12172
9.1 -1.12575
9.11 -1.12867
9.12 -1.13003
9.13 -1.12874
9.14 -1.12429
9.15 -1.11558
9.16 -1.10168
9.17 -1.0822
9.18 -1.05558
9.19 -1.02235
9.2 -0.981372
9.21 -0.933183
9.22 -0.878021
9.23 -0.816112
9.24 -0.749004
9.25 -0.677163
9.26 -0.602618
9.27 -0.526735
9.28 -0.451426
9.29 -0.378298
9.3 -0.309721
9.31 -0.246717
9.32 -0.191595
9.33 -0.145204
9.34 -0.108534
9.35 -0.0829591
9.36 -0.0675404
9.37 -0.0638287
9.38 -0.0698539
9.39 -0.085517
9.4 -0.109506
9.41 -0.140008
9.42 -0.176034
9.43 -0.215152
9.44 -0.255912
9.45 -0.29639
9.46 -0.335094
9.47 -0.370354
9.48 -0.401525
9.49 -0.427041
9.5 -0.447152
9.51 -0.461355
9.52 -0.469915
9.53 -0.473661
9.54 -0.472849
9.55 -0.469057
9.56 -0.463074
9.57 -0.45629
9.58 -0.449794
9.59 -0.444821
9.6 -0.442057
9.61 -0.44269
9.62 -0.446802
9.63 -0.454904
9.64 -0.467004
9.65 -0.482672
9.66 -0.501943
9.67 -0.523805
9.68 -0.547936
9.69 -0.573484
9.7 -0.599851
9.71 -0.626441
9.72 -0.652797
9.73 -0.678497
9.74 -0.703415
9.75 -0.727409
9.76 -0.750483
9.77 -0.772733
9.78 -0.794067
9.79 -0.814538
9.8 -0.833782
9.81 -0.851362
9.82 -0.866528
9.83 -0.877819
9.84 -0.88425
9.85 -0.882858
9.86 -0.872289
9.87 -0.849319
9.88 -0.810859
9.89 -0.755194
9.9 -0.676558
9.91 -0.575444
9.92 -0.446501
9.93 -0.289537
9.94 -0.103309
9.95 0.114596
9.96 0.360255
9.97 0.636486
9.98 0.936884
9.99 1.25969
10 1.59983
10.01 1.95122
10.02 2.30821
10.03 2.66344
10.04 3.00928
10.05 3.33862
10.06 3.64474
10.07 3.91845
10.08 4.15772
10.09 4.35106
10.1 4.49993
10.11 4.59822
10.12 4.64416
10.13 4.64077
10.14 4.5824
10.15 4.47886
10.16 4.32815
10.17 4.13819
10.18 3.91402
10.19 3.66026
10.2 3.38617
10.21 3.09599
10.22 2.79844
10.23 2.49919
10.24 2.20469
10.25 1.91942
10.26 1.6498
10.27 1.39713
10.28 1.16627
10.29 0.957609
10.3 0.771924
10.31 0.610672
10.32 0.470394
10.33 0.352811
10.34 0.253068
10.35 0.170102
10.36 0.100992
10.37 0.0423387
10.38 -0.00757912
10.39 -0.0524965
10.4 -0.0942697
10.41 -0.135331
10.42 -0.177327
10.43 -0.221881
10.44 -0.269608
10.45 -0.321673
10.46 -0.37774
10.47 -0.437939
10.48 -0.501759
10.49 -0.568304
10.5 -0.636863
10.51 -0.706084
10.52 -0.774789
10.53 -0.841658
10.54 -0.905485
10.55 -0.964653
10.56 -1.01861
10.57 -1.06533
10.58 -1.10482
10.59 -1.13586
10.6 -1.1579
10.61 -1.17126
10.62 -1.17466
10.63 -1.16965
10.64 -1.1556
10.65 -1.13374
10.66 -1.10486
10.67 -1.0696
10.68 -1.02972
10.69 -0.985876
10.7 -0.939887
10.71 -0.892894
10.72 -0.846328
10.73 -0.801282
10.74 -0.759271
10.75 -0.720821
10.76 -0.68721
10.77 -0.658781
10.78 -0.63592
10.79 -0.619247
10.8 -0.608091
10.81 -0.603162
10.82 -0.603383
10.83 -0.608695
10.84 -0.618538
10.85 -0.6321
10.86 -0.649236
10.87 -0.668904
10.88 -0.690877
10.89 -0.714514
10.9 -0.739438
10.91 -0.765366
10.92 -0.791942
10.93 -0.819037
10.94 -0.846415
10.95 -0.873952
10.96 -0.901483
10.97 -0.928857
10.98 -0.955824
10.99 -0.982211
11 -1.00766
11.01 -1.03189
11.02 -1.05459
11.03 -1.07527
11.04 -1.09385
11.05 -1.10971
11.06 -1.12296
11.07 -1.13334
11.08 -1.14084
11.09 -1.14578
11.1 -1.14808
11.11 -1.14845
11.12 -1.14711
11.13 -1.14467
11.14 -1.14156
11.15 -1.13819
11.16 -1.13485
11.17 -1.13162
11.18 -1.12834
11.19 -1.12456
11.2 -1.11944
11.21 -1.11207
11.22 -1.10049
11.23 -1.08363
11.24 -1.0588
11.25 -1.02427
11.26 -0.97802
11.27 -0.916849
11.28 -0.840647
11.29 -0.745205
11.3 -0.63167
11.31 -0.498208
11.32 -0.34481
11.33 -0.173488
11.34 0.0165776
11.35 0.220574
11.36 0.437117
11.37 0.661537
11.38 0.889853
11.39 1.11707
11.4 1.33878
11.41 1.54851
11.42 1.74275
11.43 1.91599
11.44 2.06367
11.45 2.18437
11.46 2.27113
11.47 2.32695
11.48 2.34717
11.49 2.33411
11.5 2.28889
11.51 2.21151
11.52 2.10813
11.53 1.97849
11.54 1.82979
11.55 1.66494
11.56 1.4888
11.57 1.30616
11.58 1.12101
11.59 0.937463
11.6 0.759243
11.61 0.589053
11.62 0.428953
11.63 0.28144
11.64 0.145949
11.65 0.0247388
11.66 -0.0841613
11.67 -0.180616
11.68 -0.265753
11.69 -0.34153
11.7 -0.408267
11.71 -0.468643
11.72 -0.523301
11.73 -0.573888
11.74 -0.621354
11.75 -0.666305
11.76 -0.709425
11.77 -0.750571
11.78 -0.789817
11.79 -0.826632
11.8 -0.86031
11.81 -0.890342
11.82 -0.915142
11.83 -0.934501
11.84 -0.946743
11.85 -0.951309
11.86 -0.947438
11.87 -0.93371
11.88 -0.910709
11.89 -0.876518
11.9 -0.832261
11.91 -0.777257
11.92 -0.711657
11.93 -0.636531
11.94 -0.55116
11.95 -0.457722
11.96 -0.356209
11.97 -0.248322
11.98 -0.135322
11.99 -0.0185331
12 0.100098
12.01 0.218872
12.02 0.33584
12.03 0.44897
12.04 0.556041
12.05 0.655667
12.06 0.744542
12.07 0.822443
12.08 0.886389
12.09 0.935794
12.1 0.969773
12.11 0.986472
12.12 0.987619
12.13 0.970964
12.14 0.93928
12.15 0.892624
12.16 0.832545
12.17 0.761626
12.18 0.680723
12.19 0.593471
12.2 0.50157
12.21 0.407859
12.22 0.314515
12.23 0.223969
12.24 0.137603
12.25 0.0577272
12.26 -0.0153465
12.27 -0.0805804
12.28 -0.137749
12.29 -0.187655
12.3 -0.229992
12.31 -0.266775
12.32 -0.298585
12.33 -0.327166
12.34 -0.353851
12.35 -0.380018
12.36 -0.406811
12.37 -0.435349
