# xPDFsuite Configuration #
[PDF]
wavelength = 0.1432
dataformat = twotheta
inputfile = 1_1Pd_CeO2_cycle-00476.chi
backgroundfile = background-00000.chi
mode = xray
bgscale = 1.007
composition = CeO2
outputtype = gr
qmaxinst = 28.8974762299
qmin = 0.5
qmax = 27.9
rmax = 50.0
rmin = 0.0
rstep = 0.01
rpoly = 1.8657

[Misc]
inputdir = G:/SankarDec16/1Pd/Chi
savedir = D:/DATA/APS_CeO2/1Pd
backgroundfilefull = G:/SankarDec16/Background/background-00000.chi

#### start data
#S 1
#L r($\AA$)  G($\AA^{-2}$)
0 0
0.01 -0.00504836
0.02 -0.00971567
0.03 -0.0136096
0.04 -0.0164348
0.05 -0.0180271
0.06 -0.0181226
0.07 -0.0168977
0.08 -0.0142683
0.09 -0.0105708
0.1 -0.00603845
0.11 -0.00102767
0.12 0.0040735
0.13 0.00882902
0.14 0.0129313
0.15 0.0160031
0.16 0.0178242
0.17 0.0183077
0.18 0.0172751
0.19 0.0149865
0.2 0.0114542
0.21 0.00707102
0.22 0.00212758
0.23 -0.00297562
0.24 -0.00787388
0.25 -0.0120975
0.26 -0.0154272
0.27 -0.0175193
0.28 -0.0182399
0.29 -0.0175833
0.3 -0.0154653
0.31 -0.0122174
0.32 -0.00794767
0.33 -0.00308637
0.34 0.00203267
0.35 0.00698419
0.36 0.0114448
0.37 0.0149342
0.38 0.0173321
0.39 0.0183456
0.4 0.0179333
0.41 0.0161719
0.42 0.0130758
0.43 0.00903168
0.44 0.00423842
0.45 -0.000857062
0.46 -0.00589414
0.47 -0.0104433
0.48 -0.0142387
0.49 -0.0168127
0.5 -0.0181506
0.51 -0.0180245
0.52 -0.0164884
0.53 -0.0136976
0.54 -0.00976492
0.55 -0.00511367
0.56 -2.40327e-05
0.57 0.00506204
0.58 0.00977492
0.59 0.0137017
0.6 0.0166473
0.61 0.0181803
0.62 0.0183921
0.63 0.017132
0.64 0.0145469
0.65 0.0108633
0.66 0.00628783
0.67 0.00125962
0.68 -0.00387331
0.69 -0.0086954
0.7 -0.0128463
0.71 -0.0159497
0.72 -0.0178914
0.73 -0.018297
0.74 -0.0173603
0.75 -0.0150144
0.76 -0.0114919
0.77 -0.00707961
0.78 -0.00206673
0.79 0.00311376
0.8 0.00806461
0.81 0.0124176
0.82 0.0158409
0.83 0.0180147
0.84 0.0189117
0.85 0.0182352
0.86 0.01627
0.87 0.0130376
0.88 0.00884327
0.89 0.00401684
0.9 -0.00108696
0.91 -0.00606757
0.92 -0.0105053
0.93 -0.0141042
0.94 -0.0165866
0.95 -0.017717
0.96 -0.0175623
0.97 -0.0159395
0.98 -0.0132125
0.99 -0.00950741
1 -0.00519561
1.01 -0.000637926
1.02 0.00374618
1.03 0.00762084
1.04 0.0105526
1.05 0.01235
1.06 0.0128121
1.07 0.0118168
1.08 0.0095516
1.09 0.00598504
1.1 0.00158189
1.11 -0.00338707
1.12 -0.00845146
1.13 -0.0131932
1.14 -0.0170659
1.15 -0.019793
1.16 -0.0208497
1.17 -0.0201366
1.18 -0.0174824
1.19 -0.0128235
1.2 -0.0064826
1.21 0.00152284
1.22 0.0105622
1.23 0.020268
1.24 0.0300389
1.25 0.0393509
1.26 0.0475138
1.27 0.0541855
1.28 0.0586843
1.29 0.0608561
1.3 0.0604277
1.31 0.0572144
1.32 0.0515438
1.33 0.0432097
1.34 0.0329231
1.35 0.0209004
1.36 0.0077248
1.37 -0.00606396
1.38 -0.0198963
1.39 -0.0332565
1.4 -0.0455452
1.41 -0.0564097
1.42 -0.0654749
1.43 -0.0723864
1.44 -0.077213
1.45 -0.0795142
1.46 -0.0796904
1.47 -0.0776284
1.48 -0.0735695
1.49 -0.0677832
1.5 -0.0603575
1.51 -0.0517414
1.52 -0.0420434
1.53 -0.0316213
1.54 -0.0206809
1.55 -0.00945467
1.56 0.00183675
1.57 0.0129661
1.58 0.0237559
1.59 0.0339691
1.6 0.0433936
1.61 0.0518587
1.62 0.0590019
1.63 0.0647766
1.64 0.0687557
1.65 0.0708889
1.66 0.0709606
1.67 0.0687533
1.68 0.0644359
1.69 0.0576523
1.7 0.0488636
1.71 0.0380551
1.72 0.0255826
1.73 0.0118417
1.74 -0.00281378
1.75 -0.0178137
1.76 -0.0326668
1.77 -0.0468654
1.78 -0.0599476
1.79 -0.0714208
1.8 -0.0811633
1.81 -0.0886424
1.82 -0.0941248
1.83 -0.0974796
1.84 -0.0989825
1.85 -0.0990013
1.86 -0.0978548
1.87 -0.0961536
1.88 -0.0943765
1.89 -0.093062
1.9 -0.0926611
1.91 -0.0936248
1.92 -0.0960428
1.93 -0.100285
1.94 -0.106013
1.95 -0.11314
1.96 -0.121193
1.97 -0.129638
1.98 -0.137772
1.99 -0.144951
2 -0.150247
2.01 -0.153078
2.02 -0.152769
2.03 -0.148612
2.04 -0.140661
2.05 -0.128041
2.06 -0.11145
2.07 -0.0907049
2.08 -0.0663317
2.09 -0.0389662
2.1 -0.00901405
2.11 0.0225305
2.12 0.0551349
2.13 0.0880219
2.14 0.120668
2.15 0.152592
2.16 0.183636
2.17 0.213561
2.18 0.242639
2.19 0.271052
2.2 0.299239
2.21 0.327637
2.22 0.356817
2.23 0.387081
2.24 0.418911
2.25 0.4523
2.26 0.487195
2.27 0.523244
2.28 0.55975
2.29 0.595719
2.3 0.630049
2.31 0.661212
2.32 0.687648
2.33 0.708117
2.34 0.720229
2.35 0.723774
2.36 0.716397
2.37 0.69827
2.38 0.668795
2.39 0.627663
2.4 0.576604
2.41 0.515184
2.42 0.446485
2.43 0.371741
2.44 0.293558
2.45 0.214325
2.46 0.136795
2.47 0.0630442
2.48 -0.00405361
2.49 -0.0631346
2.5 -0.11264
2.51 -0.151171
2.52 -0.179522
2.53 -0.196213
2.54 -0.203754
2.55 -0.202563
2.56 -0.194737
2.57 -0.182418
2.58 -0.167628
2.59 -0.152792
2.6 -0.140145
2.61 -0.131426
2.62 -0.128141
2.63 -0.131666
2.64 -0.141785
2.65 -0.159625
2.66 -0.183526
2.67 -0.213076
2.68 -0.246627
2.69 -0.282484
2.7 -0.318822
2.71 -0.353847
2.72 -0.38556
2.73 -0.412723
2.74 -0.434167
2.75 -0.448883
2.76 -0.457346
2.77 -0.458772
2.78 -0.454898
2.79 -0.446316
2.8 -0.434674
2.81 -0.421582
2.82 -0.408803
2.83 -0.39783
2.84 -0.390434
2.85 -0.387488
2.86 -0.389812
2.87 -0.397976
2.88 -0.41126
2.89 -0.429854
2.9 -0.451984
2.91 -0.476669
2.92 -0.502163
2.93 -0.526912
2.94 -0.548971
2.95 -0.5673
2.96 -0.580128
2.97 -0.587085
2.98 -0.587683
2.99 -0.581772
3 -0.570534
3.01 -0.554222
3.02 -0.53495
3.03 -0.51406
3.04 -0.493523
3.05 -0.474962
3.06 -0.460494
3.07 -0.450902
3.08 -0.447927
3.09 -0.451578
3.1 -0.462059
3.11 -0.479147
3.12 -0.501331
3.13 -0.527936
3.14 -0.556672
3.15 -0.585929
3.16 -0.613671
3.17 -0.638355
3.18 -0.657925
3.19 -0.672002
3.2 -0.679186
3.21 -0.680005
3.22 -0.674794
3.23 -0.664466
3.24 -0.650912
3.25 -0.63575
3.26 -0.621314
3.27 -0.609812
3.28 -0.603395
3.29 -0.60346
3.3 -0.61226
3.31 -0.629368
3.32 -0.656013
3.33 -0.690749
3.34 -0.732541
3.35 -0.779578
3.36 -0.829177
3.37 -0.878653
3.38 -0.925181
3.39 -0.965752
3.4 -0.997819
3.41 -1.01994
3.42 -1.02946
3.43 -1.02754
3.44 -1.01301
3.45 -0.988241
3.46 -0.95495
3.47 -0.915833
3.48 -0.874399
3.49 -0.834251
3.5 -0.798632
3.51 -0.771007
3.52 -0.753845
3.53 -0.748083
3.54 -0.755451
3.55 -0.773317
3.56 -0.800556
3.57 -0.832373
3.58 -0.863974
3.59 -0.888292
3.6 -0.899607
3.61 -0.886859
3.62 -0.845742
3.63 -0.766333
3.64 -0.64239
3.65 -0.471097
3.66 -0.242932
3.67 0.0361125
3.68 0.37208
3.69 0.756773
3.7 1.18584
3.71 1.65224
3.72 2.14299
3.73 2.64858
3.74 3.15368
3.75 3.64446
3.76 4.10587
3.77 4.52661
3.78 4.88738
3.79 5.18541
3.8 5.40259
3.81 5.53882
3.82 5.58873
3.83 5.54742
3.84 5.42597
3.85 5.21614
3.86 4.93781
3.87 4.59403
3.88 4.19842
3.89 3.76477
3.9 3.30377
3.91 2.83156
3.92 2.36013
3.93 1.90175
3.94 1.46654
3.95 1.06527
3.96 0.700521
3.97 0.383841
3.98 0.110854
3.99 -0.114025
4 -0.293372
4.01 -0.432065
4.02 -0.530328
4.03 -0.598431
4.04 -0.638436
4.05 -0.658927
4.06 -0.665016
4.07 -0.662073
4.08 -0.655277
4.09 -0.648371
4.1 -0.644219
4.11 -0.644884
4.12 -0.651234
4.13 -0.663019
4.14 -0.680031
4.15 -0.700327
4.16 -0.722523
4.17 -0.744436
4.18 -0.764185
4.19 -0.779587
4.2 -0.789624
4.21 -0.79191
4.22 -0.786654
4.23 -0.772706
4.24 -0.750155
4.25 -0.719648
4.26 -0.680886
4.27 -0.635674
4.28 -0.584078
4.29 -0.527593
4.3 -0.466975
4.31 -0.402959
4.32 -0.336543
4.33 -0.267998
4.34 -0.198104
4.35 -0.127118
4.36 -0.0554381
4.37 0.0165879
4.38 0.0885436
4.39 0.159966
4.4 0.230113
4.41 0.298259
4.42 0.363459
4.43 0.424334
4.44 0.480222
4.45 0.528786
4.46 0.569758
4.47 0.601239
4.48 0.622242
4.49 0.632474
4.5 0.630007
4.51 0.616287
4.52 0.589957
4.53 0.552603
4.54 0.504876
4.55 0.447686
4.56 0.3834
4.57 0.312816
4.58 0.238694
4.59 0.162595
4.6 0.0865706
4.61 0.0121785
4.62 -0.0586861
4.63 -0.125354
4.64 -0.186352
4.65 -0.241608
4.66 -0.290858
4.67 -0.333989
4.68 -0.37202
4.69 -0.404823
4.7 -0.433922
4.71 -0.45983
4.72 -0.483539
4.73 -0.505872
4.74 -0.527418
4.75 -0.548739
4.76 -0.570103
4.77 -0.591587
4.78 -0.613086
4.79 -0.634291
4.8 -0.65487
4.81 -0.674177
4.82 -0.691901
4.83 -0.707459
4.84 -0.720497
4.85 -0.730925
4.86 -0.738344
4.87 -0.743244
4.88 -0.745572
4.89 -0.745975
4.9 -0.744932
4.91 -0.743073
4.92 -0.741079
4.93 -0.739663
4.94 -0.739317
4.95 -0.740595
4.96 -0.743818
4.97 -0.74904
4.98 -0.756491
4.99 -0.765712
5 -0.776607
5.01 -0.788595
5.02 -0.801229
5.03 -0.813956
5.04 -0.826314
5.05 -0.837737
5.06 -0.848009
5.07 -0.856801
5.08 -0.864014
5.09 -0.869721
5.1 -0.873833
5.11 -0.876681
5.12 -0.878233
5.13 -0.878666
5.14 -0.877927
5.15 -0.875737
5.16 -0.871887
5.17 -0.865379
5.18 -0.855713
5.19 -0.841537
5.2 -0.821545
5.21 -0.794743
5.22 -0.758649
5.23 -0.713157
5.24 -0.655705
5.25 -0.586227
5.26 -0.503954
5.27 -0.408109
5.28 -0.300481
5.29 -0.180242
5.3 -0.0507857
5.31 0.0864774
5.32 0.228353
5.33 0.371606
5.34 0.512208
5.35 0.646824
5.36 0.770528
5.37 0.880212
5.38 0.972348
5.39 1.04267
5.4 1.09126
5.41 1.11255
5.42 1.10948
5.43 1.07998
5.44 1.02551
5.45 0.948959
5.46 0.85057
5.47 0.736288
5.48 0.607896
5.49 0.470722
5.5 0.328553
5.51 0.185753
5.52 0.045914
5.53 -0.0864708
5.54 -0.209456
5.55 -0.319934
5.56 -0.416309
5.57 -0.498424
5.58 -0.564244
5.59 -0.616291
5.6 -0.653714
5.61 -0.679083
5.62 -0.693776
5.63 -0.69929
5.64 -0.698261
5.65 -0.691572
5.66 -0.681526
5.67 -0.669035
5.68 -0.655095
5.69 -0.640248
5.7 -0.624557
5.71 -0.607962
5.72 -0.589883
5.73 -0.569795
5.74 -0.547015
5.75 -0.520655
5.76 -0.49059
5.77 -0.455803
5.78 -0.416873
5.79 -0.373696
5.8 -0.326985
5.81 -0.277766
5.82 -0.227143
5.83 -0.176705
5.84 -0.128197
5.85 -0.0832526
5.86 -0.0435072
5.87 -0.0109629
5.88 0.0139334
5.89 0.0287318
5.9 0.0341563
5.91 0.029159
5.92 0.0140726
5.93 -0.010072
5.94 -0.0433346
5.95 -0.0833384
5.96 -0.12946
5.97 -0.179581
5.98 -0.232247
5.99 -0.285857
6 -0.339043
6.01 -0.390387
6.02 -0.439236
6.03 -0.484792
6.04 -0.526791
6.05 -0.565424
6.06 -0.600585
6.07 -0.633192
6.08 -0.663557
6.09 -0.692567
6.1 -0.720834
6.11 -0.748973
6.12 -0.777399
6.13 -0.806445
6.14 -0.836055
6.15 -0.866086
6.16 -0.896096
6.17 -0.925565
6.18 -0.953631
6.19 -0.979767
6.2 -1.00295
6.21 -1.02272
6.22 -1.03857
6.23 -1.04994
6.24 -1.05725
6.25 -1.06001
6.26 -1.05925
6.27 -1.05524
6.28 -1.0488
6.29 -1.04077
6.3 -1.03172
6.31 -1.0223
6.32 -1.01271
6.33 -1.00282
6.34 -0.992055
6.35 -0.979117
6.36 -0.962718
6.37 -0.939756
6.38 -0.90839
6.39 -0.864851
6.4 -0.805607
6.41 -0.728288
6.42 -0.62668
6.43 -0.501012
6.44 -0.345329
6.45 -0.159867
6.46 0.0567602
6.47 0.306225
6.48 0.583993
6.49 0.89203
6.5 1.22252
6.51 1.57249
6.52 1.93508
6.53 2.30319
6.54 2.66858
6.55 3.02369
6.56 3.3583
6.57 3.66521
6.58 3.93661
6.59 4.16255
6.6 4.34227
6.61 4.46255
6.62 4.52802
6.63 4.53244
6.64 4.47653
6.65 4.36505
6.66 4.19477
6.67 3.9781
6.68 3.71534
6.69 3.41741
6.7 3.0913
6.71 2.74485
6.72 2.38793
6.73 2.02827
6.74 1.67412
6.75 1.33293
6.76 1.01133
6.77 0.712957
6.78 0.445294
6.79 0.206808
6.8 0.00284558
6.81 -0.168881
6.82 -0.308716
6.83 -0.416808
6.84 -0.498734
6.85 -0.553515
6.86 -0.588128
6.87 -0.604313
6.88 -0.606073
6.89 -0.597205
6.9 -0.579826
6.91 -0.557584
6.92 -0.53213
6.93 -0.505529
6.94 -0.47899
6.95 -0.453538
6.96 -0.429585
6.97 -0.407752
6.98 -0.387912
6.99 -0.370298
7 -0.35495
7.01 -0.341844
7.02 -0.3315
7.03 -0.323855
7.04 -0.319717
7.05 -0.319385
7.06 -0.323458
7.07 -0.33285
7.08 -0.347485
7.09 -0.368717
7.1 -0.39591
7.11 -0.42956
7.12 -0.469317
7.13 -0.51435
7.14 -0.56438
7.15 -0.617686
7.16 -0.673317
7.17 -0.72955
7.18 -0.78492
7.19 -0.837623
7.2 -0.886603
7.21 -0.929768
7.22 -0.966844
7.23 -0.996629
7.24 -1.0188
7.25 -1.0338
7.26 -1.04113
7.27 -1.04254
7.28 -1.03833
7.29 -1.03019
7.3 -1.01938
7.31 -1.00727
7.32 -0.99517
7.33 -0.984318
7.34 -0.975342
7.35 -0.968808
7.36 -0.964698
7.37 -0.962475
7.38 -0.96136
7.39 -0.959948
7.4 -0.956458
7.41 -0.949005
7.42 -0.935575
7.43 -0.913428
7.44 -0.881634
7.45 -0.836532
7.46 -0.77841
7.47 -0.70524
7.48 -0.616682
7.49 -0.51374
7.5 -0.395479
7.51 -0.26535
7.52 -0.123958
7.53 0.0251471
7.54 0.17918
7.55 0.334635
7.56 0.488112
7.57 0.635182
7.58 0.773143
7.59 0.898051
7.6 1.00683
7.61 1.09816
7.62 1.16756
7.63 1.21677
7.64 1.2425
7.65 1.24645
7.66 1.22902
7.67 1.19033
7.68 1.13421
7.69 1.06019
7.7 0.973092
7.71 0.874488
7.72 0.767536
7.73 0.655283
7.74 0.540227
7.75 0.42526
7.76 0.312927
7.77 0.205334
7.78 0.104311
7.79 0.0120495
7.8 -0.0712032
7.81 -0.142832
7.82 -0.20366
7.83 -0.252434
7.84 -0.289112
7.85 -0.314498
7.86 -0.327547
7.87 -0.330502
7.88 -0.322918
7.89 -0.306637
7.9 -0.282737
7.91 -0.25235
7.92 -0.217593
7.93 -0.179651
7.94 -0.140731
7.95 -0.102537
7.96 -0.067052
7.97 -0.0357288
7.98 -0.0110072
7.99 0.00660402
8 0.0149158
8.01 0.0136247
8.02 0.00210971
8.03 -0.0204552
8.04 -0.0527031
8.05 -0.0955611
8.06 -0.146668
8.07 -0.205396
8.08 -0.26996
8.09 -0.338401
8.1 -0.409044
8.11 -0.479758
8.12 -0.548641
8.13 -0.614079
8.14 -0.674727
8.15 -0.729086
8.16 -0.777187
8.17 -0.817644
8.18 -0.851533
8.19 -0.878768
8.2 -0.900201
8.21 -0.917033
8.22 -0.929882
8.23 -0.940306
8.24 -0.948969
8.25 -0.956733
8.26 -0.963926
8.27 -0.97043
8.28 -0.975809
8.29 -0.978648
8.3 -0.977653
8.31 -0.970493
8.32 -0.95452
8.33 -0.927758
8.34 -0.885478
8.35 -0.82707
8.36 -0.747743
8.37 -0.64665
8.38 -0.522108
8.39 -0.37171
8.4 -0.198229
8.41 0.00106372
8.42 0.220844
8.43 0.459791
8.44 0.713468
8.45 0.976646
8.46 1.24423
8.47 1.50981
8.48 1.76652
8.49 2.00822
8.5 2.22893
8.51 2.42085
8.52 2.5824
8.53 2.70377
8.54 2.78691
8.55 2.82689
8.56 2.82315
8.57 2.77872
8.58 2.6902
8.59 2.56636
8.6 2.40677
8.61 2.21897
8.62 2.00788
8.63 1.77867
8.64 1.53882
8.65 1.29337
8.66 1.04882
8.67 0.810352
8.68 0.582992
8.69 0.369595
8.7 0.175497
8.71 8.89296e-05
8.72 -0.152993
8.73 -0.284946
8.74 -0.396069
8.75 -0.48637
8.76 -0.559661
8.77 -0.61555
8.78 -0.658688
8.79 -0.690558
8.8 -0.713975
8.81 -0.731619
8.82 -0.745211
8.83 -0.757084
8.84 -0.768573
8.85 -0.78089
8.86 -0.794737
8.87 -0.810652
8.88 -0.828483
8.89 -0.848339
8.9 -0.869576
8.91 -0.8918
8.92 -0.914378
8.93 -0.936764
8.94 -0.958324
8.95 -0.978753
8.96 -0.997579
8.97 -1.01472
8.98 -1.03011
8.99 -1.04374
9 -1.05595
9.01 -1.06679
9.02 -1.0767
9.03 -1.0859
9.04 -1.09463
9.05 -1.10307
9.06 -1.11125
9.07 -1.11913
9.08 -1.12647
9.09 -1.13293
9.1 -1.13807
9.11 -1.14114
9.12 -1.14176
9.13 -1.1387
9.14 -1.13169
9.15 -1.11972
9.16 -1.10211
9.17 -1.07871
9.18 -1.04829
9.19 -1.01159
9.2 -0.967832
9.21 -0.917717
9.22 -0.861647
9.23 -0.800021
9.24 -0.734274
9.25 -0.664978
9.26 -0.59387
9.27 -0.522179
9.28 -0.451524
9.29 -0.383213
9.3 -0.319269
9.31 -0.260439
9.32 -0.208678
9.33 -0.164639
9.34 -0.129142
9.35 -0.103378
9.36 -0.0865449
9.37 -0.0800738
9.38 -0.0823219
9.39 -0.0933353
9.4 -0.112114
9.41 -0.137173
9.42 -0.167879
9.43 -0.202102
9.44 -0.238761
9.45 -0.276144
9.46 -0.312945
9.47 -0.347695
9.48 -0.379622
9.49 -0.407304
9.5 -0.430673
9.51 -0.449101
9.52 -0.462565
9.53 -0.471578
9.54 -0.47608
9.55 -0.477345
9.56 -0.475834
9.57 -0.472725
9.58 -0.468938
9.59 -0.465522
9.6 -0.463261
9.61 -0.46322
9.62 -0.465746
9.63 -0.47145
9.64 -0.48058
9.65 -0.492962
9.66 -0.508875
9.67 -0.527544
9.68 -0.548875
9.69 -0.572154
9.7 -0.596875
9.71 -0.622512
9.72 -0.648499
9.73 -0.674389
9.74 -0.699825
9.75 -0.724492
9.76 -0.748147
9.77 -0.770681
9.78 -0.791713
9.79 -0.811203
9.8 -0.828572
9.81 -0.843379
9.82 -0.854884
9.83 -0.861681
9.84 -0.863035
9.85 -0.856167
9.86 -0.84008
9.87 -0.811885
9.88 -0.76889
9.89 -0.709666
9.9 -0.628964
9.91 -0.527342
9.92 -0.399869
9.93 -0.246352
9.94 -0.06558
9.95 0.144812
9.96 0.381287
9.97 0.646698
9.98 0.935197
9.99 1.24536
10 1.57259
10.01 1.91128
10.02 2.25631
10.03 2.60067
10.04 2.93723
10.05 3.25911
10.06 3.55979
10.07 3.83038
10.08 4.06861
10.09 4.26326
10.1 4.41535
10.11 4.51871
10.12 4.57124
10.13 4.5756
10.14 4.52591
10.15 4.43157
10.16 4.2903
10.17 4.10973
10.18 3.8947
10.19 3.6496
10.2 3.38364
10.21 3.10089
10.22 2.81014
10.23 2.51701
10.24 2.22799
10.25 1.94762
10.26 1.68231
10.27 1.43347
10.28 1.2059
10.29 1.00001
10.3 0.816525
10.31 0.656807
10.32 0.517391
10.33 0.399788
10.34 0.299166
10.35 0.214332
10.36 0.142323
10.37 0.0797998
10.38 0.0249647
10.39 -0.0256731
10.4 -0.0739035
10.41 -0.121882
10.42 -0.17101
10.43 -0.222583
10.44 -0.276937
10.45 -0.33481
10.46 -0.395658
10.47 -0.459281
10.48 -0.524938
10.49 -0.591712
10.5 -0.658611
10.51 -0.72459
10.52 -0.788419
10.53 -0.849135
10.54 -0.905827
10.55 -0.957247
10.56 -1.0033
10.57 -1.04245
10.58 -1.0751
10.59 -1.10049
10.6 -1.11846
10.61 -1.12946
10.62 -1.13266
10.63 -1.12937
10.64 -1.11914
10.65 -1.10288
10.66 -1.08112
10.67 -1.05419
10.68 -1.02331
10.69 -0.988727
10.7 -0.951713
10.71 -0.912934
10.72 -0.873348
10.73 -0.833805
10.74 -0.795303
10.75 -0.758494
10.76 -0.724379
10.77 -0.693523
10.78 -0.666487
10.79 -0.644097
10.8 -0.626188
10.81 -0.613771
10.82 -0.606311
10.83 -0.604164
10.84 -0.60722
10.85 -0.614946
10.86 -0.62765
10.87 -0.644271
10.88 -0.664834
10.89 -0.68857
10.9 -0.714985
10.91 -0.743653
10.92 -0.773825
10.93 -0.805142
10.94 -0.836942
10.95 -0.868782
10.96 -0.900156
10.97 -0.930708
10.98 -0.959877
10.99 -0.987523
11 -1.01315
11.01 -1.03664
11.02 -1.0578
11.03 -1.07635
11.04 -1.09252
11.05 -1.10595
11.06 -1.11706
11.07 -1.12585
11.08 -1.13256
11.09 -1.13759
11.1 -1.14105
11.11 -1.14348
11.12 -1.1451
11.13 -1.14624
11.14 -1.14708
11.15 -1.1477
11.16 -1.14806
11.17 -1.1478
11.18 -1.14651
11.19 -1.14343
11.2 -1.13749
11.21 -1.1278
11.22 -1.11221
11.23 -1.08999
11.24 -1.05857
11.25 -1.01664
11.26 -0.962599
11.27 -0.893765
11.28 -0.810497
11.29 -0.709258
11.3 -0.591525
11.31 -0.455968
11.32 -0.302918
11.33 -0.134388
11.34 0.0500471
11.35 0.246077
11.36 0.452298
11.37 0.664608
11.38 0.879516
11.39 1.09262
11.4 1.30021
11.41 1.49659
11.42 1.67882
11.43 1.84208
11.44 1.98238
11.45 2.09849
11.46 2.18413
11.47 2.24189
11.48 2.26738
11.49 2.26248
11.5 2.2279
11.51 2.16323
11.52 2.07384
11.53 1.9589
11.54 1.82482
11.55 1.67386
11.56 1.5102
11.57 1.33827
11.58 1.16133
11.59 0.98361
11.6 0.808442
11.61 0.63876
11.62 0.476824
11.63 0.325341
11.64 0.184391
11.65 0.0565646
11.66 -0.0594103
11.67 -0.162895
11.68 -0.254451
11.69 -0.335669
11.7 -0.406316
11.71 -0.469055
11.72 -0.524224
11.73 -0.573604
11.74 -0.618287
11.75 -0.65906
11.76 -0.697088
11.77 -0.732549
11.78 -0.766053
11.79 -0.797507
11.8 -0.826682
11.81 -0.85335
11.82 -0.876429
11.83 -0.895665
11.84 -0.90966
11.85 -0.917702
11.86 -0.918885
11.87 -0.911619
11.88 -0.896025
11.89 -0.869897
11.9 -0.83385
11.91 -0.786796
11.92 -0.728445
11.93 -0.659594
11.94 -0.57906
11.95 -0.489039
11.96 -0.389263
11.97 -0.281547
11.98 -0.167271
11.99 -0.0478843
12 0.0742598
12.01 0.197238
12.02 0.318657
12.03 0.436154
12.04 0.54714
12.05 0.650002
12.06 0.741085
12.07 0.820177
12.08 0.884129
12.09 0.93248
12.1 0.964477
12.11 0.978441
12.12 0.976436
12.13 0.956498
12.14 0.921752
12.15 0.87258
12.16 0.810849
12.17 0.739298
12.18 0.659114
12.19 0.573816
12.2 0.485236
12.21 0.396012
12.22 0.308129
12.23 0.22378
12.24 0.143957
12.25 0.070617
12.26 0.00368542
12.27 -0.0561786
12.28 -0.109112
12.29 -0.156077
12.3 -0.19717
12.31 -0.234254
12.32 -0.268085
12.33 -0.300181
12.34 -0.331668
12.35 -0.363684
12.36 -0.396916
12.37 -0.432121
12.38 -0.469219
12.39 -0.508114
