# xPDFsuite Configuration #
[PDF]
wavelength = 0.1432
dataformat = twotheta
inputfile = 1_1Pd_CeO2_cycle-00003.chi
backgroundfile = background-00000.chi
mode = xray
bgscale = 1.007
composition = CeO2
outputtype = gr
qmaxinst = 28.8974762299
qmin = 0.5
qmax = 27.9
rmax = 50.0
rmin = 0.0
rstep = 0.01
rpoly = 1.8657

[Misc]
inputdir = G:/SankarDec16/1Pd/Chi
savedir = D:/DATA/APS_CeO2/1Pd
backgroundfilefull = G:/SankarDec16/Background/background-00000.chi

#### start data
#S 1
#L r($\AA$)  G($\AA^{-2}$)
0 0
0.01 -0.00533408
0.02 -0.0102656
0.03 -0.0143799
0.04 -0.0173652
0.05 -0.0190479
0.06 -0.0191492
0.07 -0.0178556
0.08 -0.0150783
0.09 -0.0111727
0.1 -0.00638519
0.11 -0.00109248
0.12 0.00429555
0.13 0.0093182
0.14 0.0136507
0.15 0.0168943
0.16 0.0188169
0.17 0.0193265
0.18 0.0182347
0.19 0.0158167
0.2 0.0120854
0.21 0.00745598
0.22 0.00223548
0.23 -0.00315296
0.24 -0.00832421
0.25 -0.0127821
0.26 -0.0162954
0.27 -0.0185011
0.28 -0.0192581
0.29 -0.0185609
0.3 -0.0163208
0.31 -0.0128883
0.32 -0.00837782
0.33 -0.00324395
0.34 0.00216057
0.35 0.00738653
0.36 0.0120927
0.37 0.0157717
0.38 0.0182973
0.39 0.0193602
0.4 0.0189176
0.41 0.0170508
0.42 0.0137757
0.43 0.00950097
0.44 0.00443731
0.45 -0.000943316
0.46 -0.00625991
0.47 -0.0110589
0.48 -0.01506
0.49 -0.0177697
0.5 -0.0191732
0.51 -0.0190305
0.52 -0.0173993
0.53 -0.0144444
0.54 -0.0102858
0.55 -0.00537076
0.56 4.12512e-06
0.57 0.00537227
0.58 0.0103433
0.59 0.0144814
0.6 0.0175814
0.61 0.0191881
0.62 0.0193992
0.63 0.0180562
0.64 0.0153152
0.65 0.0114162
0.66 0.00657847
0.67 0.00126561
0.68 -0.00415412
0.69 -0.00924229
0.7 -0.0136186
0.71 -0.016886
0.72 -0.0189251
0.73 -0.0193411
0.74 -0.0183395
0.75 -0.0158507
0.76 -0.012121
0.77 -0.00745349
0.78 -0.00215399
0.79 0.00332079
0.8 0.00855182
0.81 0.0131514
0.82 0.0167704
0.83 0.0190727
0.84 0.0200307
0.85 0.0193336
0.86 0.0172826
0.87 0.0139018
0.88 0.00951369
0.89 0.00446588
0.9 -0.000867814
0.91 -0.00606755
0.92 -0.0106933
0.93 -0.0144373
0.94 -0.0170117
0.95 -0.0181751
0.96 -0.0180029
0.97 -0.0163138
0.98 -0.0134945
0.99 -0.00968833
1 -0.00529255
1.01 -0.000690474
1.02 0.00366617
1.03 0.00743019
1.04 0.0101387
1.05 0.0116005
1.06 0.0116103
1.07 0.0100513
1.08 0.00713834
1.09 0.00285816
1.1 -0.00227757
1.11 -0.00795562
1.12 -0.0136523
1.13 -0.0189039
1.14 -0.023091
1.15 -0.0259155
1.16 -0.0267766
1.17 -0.0255673
1.18 -0.0220873
1.19 -0.0162529
1.2 -0.00842908
1.21 0.00139239
1.22 0.0124903
1.23 0.0244659
1.24 0.036636
1.25 0.0483965
1.26 0.0589596
1.27 0.0678995
1.28 0.0744135
1.29 0.0782735
1.3 0.0791147
1.31 0.076653
1.32 0.0712129
1.33 0.0624468
1.34 0.0511422
1.35 0.0374562
1.36 0.0220164
1.37 0.00542842
1.38 -0.0117153
1.39 -0.0287473
1.4 -0.0450009
1.41 -0.059966
1.42 -0.0731419
1.43 -0.084015
1.44 -0.09254
1.45 -0.0980699
1.46 -0.100948
1.47 -0.1009
1.48 -0.0980906
1.49 -0.0927629
1.5 -0.0848852
1.51 -0.0750265
1.52 -0.0632272
1.53 -0.0500006
1.54 -0.0356359
1.55 -0.0204976
1.56 -0.00500261
1.57 0.01046
1.58 0.0254995
1.59 0.0396753
1.6 0.0525772
1.61 0.0638929
1.62 0.0730221
1.63 0.0799208
1.64 0.0839642
1.65 0.0851714
1.66 0.0833227
1.67 0.0782481
1.68 0.0703231
1.69 0.05926
1.7 0.0458267
1.71 0.0302068
1.72 0.0130358
1.73 -0.00505744
1.74 -0.0233957
1.75 -0.0412803
1.76 -0.0579051
1.77 -0.072713
1.78 -0.0851268
1.79 -0.0945773
1.8 -0.101114
1.81 -0.104121
1.82 -0.10422
1.83 -0.101411
1.84 -0.0962771
1.85 -0.0894794
1.86 -0.0816741
1.87 -0.0737457
1.88 -0.0665463
1.89 -0.0608132
1.9 -0.0572271
1.91 -0.0564593
1.92 -0.0585341
1.93 -0.0640829
1.94 -0.0724708
1.95 -0.0836199
1.96 -0.0968233
1.97 -0.111288
1.98 -0.126096
1.99 -0.140247
2 -0.152539
2.01 -0.162095
2.02 -0.16799
2.03 -0.169255
2.04 -0.165871
2.05 -0.15669
2.06 -0.142526
2.07 -0.123102
2.08 -0.0990422
2.09 -0.0711177
2.1 -0.0397977
2.11 -0.00633091
2.12 0.0286492
2.13 0.0641584
2.14 0.0995453
2.15 0.134208
2.16 0.167917
2.17 0.200377
2.18 0.231882
2.19 0.262642
2.2 0.29317
2.21 0.323983
2.22 0.355768
2.23 0.388891
2.24 0.423943
2.25 0.460933
2.26 0.499821
2.27 0.540228
2.28 0.581343
2.29 0.622062
2.3 0.66109
2.31 0.69669
2.32 0.727066
2.33 0.750792
2.34 0.765153
2.35 0.769894
2.36 0.762366
2.37 0.742773
2.38 0.710472
2.39 0.665166
2.4 0.60884
2.41 0.541108
2.42 0.465467
2.43 0.383396
2.44 0.297875
2.45 0.21161
2.46 0.127763
2.47 0.0485948
2.48 -0.0226487
2.49 -0.0845479
2.5 -0.135439
2.51 -0.173882
2.52 -0.200915
2.53 -0.215065
2.54 -0.219283
2.55 -0.214224
2.56 -0.202376
2.57 -0.186214
2.58 -0.168163
2.59 -0.15085
2.6 -0.136854
2.61 -0.127959
2.62 -0.125739
2.63 -0.131548
2.64 -0.144906
2.65 -0.166809
2.66 -0.195152
2.67 -0.229185
2.68 -0.266825
2.69 -0.306028
2.7 -0.344477
2.71 -0.380261
2.72 -0.41098
2.73 -0.435459
2.74 -0.452518
2.75 -0.461255
2.76 -0.462559
2.77 -0.455886
2.78 -0.443576
2.79 -0.426706
2.8 -0.407509
2.81 -0.388042
2.82 -0.370737
2.83 -0.357205
2.84 -0.34976
2.85 -0.349174
2.86 -0.356286
2.87 -0.371543
2.88 -0.393675
2.89 -0.422622
2.9 -0.455806
2.91 -0.491668
2.92 -0.527726
2.93 -0.561846
2.94 -0.591268
2.95 -0.61475
2.96 -0.629846
2.97 -0.636249
2.98 -0.633404
2.99 -0.621249
3 -0.601573
3.01 -0.574843
3.02 -0.544094
3.03 -0.511273
3.04 -0.479172
3.05 -0.450066
3.06 -0.426941
3.07 -0.41085
3.08 -0.40424
3.09 -0.407086
3.1 -0.419664
3.11 -0.441655
3.12 -0.470919
3.13 -0.506529
3.14 -0.545246
3.15 -0.584815
3.16 -0.622356
3.17 -0.655672
3.18 -0.681824
3.19 -0.700212
3.2 -0.70877
3.21 -0.708145
3.22 -0.698691
3.23 -0.681545
3.24 -0.659314
3.25 -0.634065
3.26 -0.609125
3.27 -0.587497
3.28 -0.572245
3.29 -0.565427
3.3 -0.570267
3.31 -0.586409
3.32 -0.615751
3.33 -0.656527
3.34 -0.707528
3.35 -0.766501
3.36 -0.82982
3.37 -0.894053
3.38 -0.955197
3.39 -1.00917
3.4 -1.05232
3.41 -1.08247
3.42 -1.09576
3.43 -1.09345
3.44 -1.07362
3.45 -1.0392
3.46 -0.992299
3.47 -0.936344
3.48 -0.876165
3.49 -0.816558
3.5 -0.762323
3.51 -0.718493
3.52 -0.689053
3.53 -0.675948
3.54 -0.682654
3.55 -0.706314
3.56 -0.746961
3.57 -0.798946
3.58 -0.856984
3.59 -0.913013
3.6 -0.959371
3.61 -0.983384
3.62 -0.978351
3.63 -0.932037
3.64 -0.835797
3.65 -0.685095
3.66 -0.467449
3.67 -0.18878
3.68 0.159348
3.69 0.568061
3.7 1.03301
3.71 1.54666
3.72 2.09349
3.73 2.66307
3.74 3.2364
3.75 3.79716
3.76 4.32688
3.77 4.81147
3.78 5.22763
3.79 5.57112
3.8 5.82004
3.81 5.97367
3.82 6.02534
3.83 5.96907
3.84 5.81804
3.85 5.56283
3.86 5.22739
3.87 4.81607
3.88 4.34581
3.89 3.83366
3.9 3.29364
3.91 2.74507
3.92 2.2036
3.93 1.68382
3.94 1.19817
3.95 0.759765
3.96 0.370757
3.97 0.0452516
3.98 -0.223687
3.99 -0.431462
4 -0.582646
4.01 -0.684497
4.02 -0.738961
4.03 -0.759663
4.04 -0.750954
4.05 -0.724161
4.06 -0.686593
4.07 -0.645968
4.08 -0.608224
4.09 -0.579428
4.1 -0.56165
4.11 -0.557677
4.12 -0.567625
4.13 -0.589991
4.14 -0.623894
4.15 -0.665091
4.16 -0.710946
4.17 -0.757244
4.18 -0.800558
4.19 -0.837005
4.2 -0.864704
4.21 -0.879628
4.22 -0.882119
4.23 -0.870363
4.24 -0.844698
4.25 -0.806419
4.26 -0.755491
4.27 -0.695155
4.28 -0.626173
4.29 -0.551363
4.3 -0.472468
4.31 -0.391314
4.32 -0.309528
4.33 -0.228409
4.34 -0.148746
4.35 -0.071228
4.36 0.00386648
4.37 0.0765644
4.38 0.146609
4.39 0.214394
4.4 0.279602
4.41 0.342285
4.42 0.402069
4.43 0.458182
4.44 0.510282
4.45 0.556536
4.46 0.5966
4.47 0.628685
4.48 0.651595
4.49 0.664712
4.5 0.665777
4.51 0.655727
4.52 0.632721
4.53 0.597899
4.54 0.55151
4.55 0.494045
4.56 0.427839
4.57 0.353297
4.58 0.273499
4.59 0.190001
4.6 0.105177
4.61 0.020982
4.62 -0.0603211
4.63 -0.137538
4.64 -0.208713
4.65 -0.273336
4.66 -0.330752
4.67 -0.380425
4.68 -0.423329
4.69 -0.458895
4.7 -0.488912
4.71 -0.513794
4.72 -0.53474
4.73 -0.552875
4.74 -0.568949
4.75 -0.584007
4.76 -0.598573
4.77 -0.613126
4.78 -0.627861
4.79 -0.642791
4.8 -0.657746
4.81 -0.672396
4.82 -0.686411
4.83 -0.699353
4.84 -0.710855
4.85 -0.720737
4.86 -0.728624
4.87 -0.734767
4.88 -0.739069
4.89 -0.741964
4.9 -0.743787
4.91 -0.745007
4.92 -0.746137
4.93 -0.747715
4.94 -0.750106
4.95 -0.753698
4.96 -0.758682
4.97 -0.765031
4.98 -0.772786
4.99 -0.781524
5 -0.790992
5.01 -0.800673
5.02 -0.810128
5.03 -0.818844
5.04 -0.826558
5.05 -0.832796
5.06 -0.837647
5.07 -0.841029
5.08 -0.843184
5.09 -0.844474
5.1 -0.845282
5.11 -0.846107
5.12 -0.847398
5.13 -0.849437
5.14 -0.852349
5.15 -0.85601
5.16 -0.859922
5.17 -0.863185
5.18 -0.864688
5.19 -0.862752
5.2 -0.85543
5.21 -0.841104
5.22 -0.816436
5.23 -0.780751
5.24 -0.730504
5.25 -0.665145
5.26 -0.583332
5.27 -0.483652
5.28 -0.368144
5.29 -0.235286
5.3 -0.08935
5.31 0.0681457
5.32 0.233211
5.33 0.40167
5.34 0.568556
5.35 0.729303
5.36 0.877704
5.37 1.00952
5.38 1.12013
5.39 1.20398
5.4 1.26096
5.41 1.28401
5.42 1.27671
5.43 1.2365
5.44 1.16533
5.45 1.06694
5.46 0.941975
5.47 0.79807
5.48 0.637931
5.49 0.468477
5.5 0.294788
5.51 0.122753
5.52 -0.0431827
5.53 -0.196841
5.54 -0.336167
5.55 -0.457147
5.56 -0.558067
5.57 -0.639174
5.58 -0.698214
5.59 -0.739102
5.6 -0.761324
5.61 -0.768845
5.62 -0.764054
5.63 -0.749638
5.64 -0.729268
5.65 -0.70504
5.66 -0.679819
5.67 -0.655302
5.68 -0.632832
5.69 -0.612877
5.7 -0.59577
5.71 -0.580625
5.72 -0.566673
5.73 -0.552465
5.74 -0.536618
5.75 -0.517404
5.76 -0.493975
5.77 -0.464445
5.78 -0.429024
5.79 -0.387076
5.8 -0.339127
5.81 -0.286323
5.82 -0.229691
5.83 -0.171484
5.84 -0.11374
5.85 -0.0588406
5.86 -0.00903022
5.87 0.0329488
5.88 0.0661492
5.89 0.0873173
5.9 0.0970256
5.91 0.0937873
5.92 0.0778604
5.93 0.0504656
5.94 0.0114968
5.95 -0.0360046
5.96 -0.0911686
5.97 -0.151202
5.98 -0.214139
5.99 -0.277788
6 -0.340358
6.01 -0.399858
6.02 -0.455506
6.03 -0.506224
6.04 -0.551729
6.05 -0.592376
6.06 -0.628096
6.07 -0.660266
6.08 -0.689415
6.09 -0.716854
6.1 -0.743504
6.11 -0.770298
6.12 -0.797812
6.13 -0.82658
6.14 -0.856466
6.15 -0.887277
6.16 -0.918355
6.17 -0.948927
6.18 -0.97778
6.19 -1.00413
6.2 -1.02657
6.21 -1.0445
6.22 -1.05726
6.23 -1.06426
6.24 -1.06618
6.25 -1.0627
6.26 -1.05541
6.27 -1.04511
6.28 -1.03334
6.29 -1.0215
6.3 -1.01116
6.31 -1.00323
6.32 -0.998779
6.33 -0.997745
6.34 -0.999696
6.35 -1.00335
6.36 -1.00663
6.37 -1.00613
6.38 -0.998643
6.39 -0.979352
6.4 -0.943217
6.41 -0.886575
6.42 -0.801175
6.43 -0.68646
6.44 -0.534424
6.45 -0.344747
6.46 -0.115237
6.47 0.156661
6.48 0.46536
6.49 0.813683
6.5 1.19161
6.51 1.59542
6.52 2.01627
6.53 2.44499
6.54 2.87102
6.55 3.28455
6.56 3.6726
6.57 4.02599
6.58 4.33492
6.59 4.58707
6.6 4.78172
6.61 4.90284
6.62 4.95669
6.63 4.93626
6.64 4.84329
6.65 4.68437
6.66 4.45689
6.67 4.17656
6.68 3.8452
6.69 3.4767
6.7 3.08033
6.71 2.66662
6.72 2.24713
6.73 1.83254
6.74 1.43164
6.75 1.05369
6.76 0.705932
6.77 0.391675
6.78 0.119474
6.79 -0.114305
6.8 -0.304109
6.81 -0.454247
6.82 -0.566353
6.83 -0.642026
6.84 -0.688829
6.85 -0.707153
6.86 -0.705654
6.87 -0.687394
6.88 -0.657565
6.89 -0.620593
6.9 -0.579724
6.91 -0.538296
6.92 -0.498601
6.93 -0.462167
6.94 -0.429922
6.95 -0.402559
6.96 -0.379534
6.97 -0.361185
6.98 -0.346362
6.99 -0.33479
7 -0.325853
7.01 -0.319046
7.02 -0.314416
7.03 -0.311702
7.04 -0.311434
7.05 -0.313919
7.06 -0.319769
7.07 -0.329958
7.08 -0.344659
7.09 -0.365326
7.1 -0.391619
7.11 -0.42421
7.12 -0.462956
7.13 -0.507171
7.14 -0.556737
7.15 -0.609966
7.16 -0.665999
7.17 -0.723081
7.18 -0.779727
7.19 -0.834102
7.2 -0.885049
7.21 -0.930446
7.22 -0.969914
7.23 -1.0022
7.24 -1.02694
7.25 -1.04451
7.26 -1.05442
7.27 -1.05839
7.28 -1.05671
7.29 -1.05109
7.3 -1.04279
7.31 -1.03318
7.32 -1.02357
7.33 -1.01517
7.34 -1.00858
7.35 -1.00433
7.36 -1.00233
7.37 -1.002
7.38 -1.00242
7.39 -1.00215
7.4 -0.999266
7.41 -0.991808
7.42 -0.977666
7.43 -0.953955
7.44 -0.919758
7.45 -0.87119
7.46 -0.808618
7.47 -0.729894
7.48 -0.634661
7.49 -0.523988
7.5 -0.396836
7.51 -0.256865
7.52 -0.104653
7.53 0.056043
7.54 0.22229
7.55 0.390381
7.56 0.556646
7.57 0.716352
7.58 0.866491
7.59 1.00273
7.6 1.1216
7.61 1.22148
7.62 1.29728
7.63 1.35067
7.64 1.37773
7.65 1.38011
7.66 1.35799
7.67 1.31119
7.68 1.24393
7.69 1.15538
7.7 1.05105
7.71 0.932667
7.72 0.803945
7.73 0.668588
7.74 0.529705
7.75 0.391002
7.76 0.255852
7.77 0.127116
7.78 0.00734475
7.79 -0.100365
7.8 -0.19559
7.81 -0.274635
7.82 -0.338628
7.83 -0.385865
7.84 -0.416423
7.85 -0.431599
7.86 -0.43031
7.87 -0.415928
7.88 -0.388379
7.89 -0.350568
7.9 -0.304397
7.91 -0.251983
7.92 -0.196231
7.93 -0.139432
7.94 -0.0842366
7.95 -0.0331212
7.96 0.0115031
7.97 0.0481871
7.98 0.0739447
7.99 0.0889915
8 0.09101
8.01 0.080465
8.02 0.0572775
8.03 0.0212583
8.04 -0.0253556
8.05 -0.0827909
8.06 -0.147933
8.07 -0.219481
8.08 -0.295062
8.09 -0.372442
8.1 -0.449366
8.11 -0.52396
8.12 -0.594067
8.13 -0.658474
8.14 -0.716131
8.15 -0.76592
8.16 -0.808516
8.17 -0.843017
8.18 -0.871134
8.19 -0.89333
8.2 -0.910981
8.21 -0.92558
8.22 -0.93828
8.23 -0.950508
8.24 -0.963202
8.25 -0.97694
8.26 -0.991829
8.27 -1.00744
8.28 -1.02274
8.29 -1.03584
8.3 -1.04479
8.31 -1.04662
8.32 -1.03801
8.33 -1.01657
8.34 -0.976683
8.35 -0.917737
8.36 -0.834226
8.37 -0.725352
8.38 -0.589344
8.39 -0.423654
8.4 -0.23166
8.41 -0.010491
8.42 0.233622
8.43 0.498985
8.44 0.780412
8.45 1.07192
8.46 1.36756
8.47 1.66018
8.48 1.9419
8.49 2.20587
8.5 2.44539
8.51 2.65166
8.52 2.82303
8.53 2.94842
8.54 3.03019
8.55 3.06283
8.56 3.04579
8.57 2.9826
8.58 2.86954
8.59 2.71667
8.6 2.52369
8.61 2.29933
8.62 2.0494
8.63 1.78014
8.64 1.50021
8.65 1.21593
8.66 0.934811
8.67 0.663273
8.68 0.4074
8.69 0.170551
8.7 -0.0404886
8.71 -0.226772
8.72 -0.383649
8.73 -0.512823
8.74 -0.614805
8.75 -0.689778
8.76 -0.742889
8.77 -0.773984
8.78 -0.789386
8.79 -0.7915
8.8 -0.784494
8.81 -0.772202
8.82 -0.757755
8.83 -0.744237
8.84 -0.734253
8.85 -0.729471
8.86 -0.731054
8.87 -0.740083
8.88 -0.75579
8.89 -0.778745
8.9 -0.807125
8.91 -0.840162
8.92 -0.876282
8.93 -0.913916
8.94 -0.95152
8.95 -0.987745
8.96 -1.02114
8.97 -1.05087
8.98 -1.07628
8.99 -1.09666
9 -1.1125
9.01 -1.12331
9.02 -1.13018
9.03 -1.13347
9.04 -1.13401
9.05 -1.13272
9.06 -1.13025
9.07 -1.12741
9.08 -1.1247
9.09 -1.12242
9.1 -1.12064
9.11 -1.11917
9.12 -1.11754
9.13 -1.11496
9.14 -1.11062
9.15 -1.10339
9.16 -1.09205
9.17 -1.07582
9.18 -1.05284
9.19 -1.02317
9.2 -0.985282
9.21 -0.939352
9.22 -0.885321
9.23 -0.823082
9.24 -0.754211
9.25 -0.678894
9.26 -0.599446
9.27 -0.517292
9.28 -0.434642
9.29 -0.353482
9.3 -0.27656
9.31 -0.205365
9.32 -0.1427
9.33 -0.0898315
9.34 -0.048123
9.35 -0.0194099
9.36 -0.00276613
9.37 -0.000207794
9.38 -0.00948628
9.39 -0.0305677
9.4 -0.0619071
9.41 -0.101296
9.42 -0.147501
9.43 -0.197474
9.44 -0.249339
9.45 -0.300619
9.46 -0.349361
9.47 -0.393345
9.48 -0.431721
9.49 -0.46235
9.5 -0.485562
9.51 -0.500633
9.52 -0.507885
9.53 -0.508424
9.54 -0.502536
9.55 -0.492382
9.56 -0.479005
9.57 -0.464326
9.58 -0.449855
9.59 -0.43731
9.6 -0.427698
9.61 -0.422697
9.62 -0.422494
9.63 -0.427856
9.64 -0.438865
9.65 -0.454963
9.66 -0.476269
9.67 -0.501374
9.68 -0.529858
9.69 -0.56051
9.7 -0.592465
9.71 -0.624851
9.72 -0.656971
9.73 -0.688182
9.74 -0.718264
9.75 -0.746998
9.76 -0.774404
9.77 -0.800679
9.78 -0.82584
9.79 -0.85013
9.8 -0.873368
9.81 -0.895279
9.82 -0.915231
9.83 -0.931863
9.84 -0.944106
9.85 -0.948935
9.86 -0.944702
9.87 -0.927858
9.88 -0.894822
9.89 -0.843441
9.9 -0.767113
9.91 -0.66601
9.92 -0.533875
9.93 -0.370154
9.94 -0.173187
9.95 0.060031
9.96 0.325179
9.97 0.625643
9.98 0.954093
9.99 1.3085
10 1.68291
10.01 2.07018
10.02 2.46349
10.03 2.8542
10.04 3.23312
10.05 3.59184
10.06 3.92239
10.07 4.21392
10.08 4.46418
10.09 4.65976
10.1 4.80277
10.11 4.8864
10.12 4.90916
10.13 4.87517
10.14 4.77882
10.15 4.63213
10.16 4.43399
10.17 4.19435
10.18 3.91989
10.19 3.61723
10.2 3.29705
10.21 2.96579
10.22 2.63295
10.23 2.30562
10.24 1.99106
10.25 1.69355
10.26 1.42061
10.27 1.17193
10.28 0.95254
10.29 0.76128
10.3 0.597747
10.31 0.462123
10.32 0.349192
10.33 0.259268
10.34 0.186024
10.35 0.127087
10.36 0.0783893
10.37 0.0360492
10.38 -0.00278984
10.39 -0.0413104
10.4 -0.0818214
10.41 -0.125991
10.42 -0.17486
10.43 -0.229353
10.44 -0.288856
10.45 -0.353672
10.46 -0.422307
10.47 -0.493953
10.48 -0.567198
10.49 -0.640689
10.5 -0.712862
10.51 -0.782631
10.52 -0.848462
10.53 -0.909515
10.54 -0.964993
10.55 -1.01378
10.56 -1.05617
10.57 -1.09082
10.58 -1.11852
10.59 -1.13875
10.6 -1.15161
10.61 -1.15772
10.62 -1.15637
10.63 -1.14886
10.64 -1.13474
10.65 -1.11484
10.66 -1.08954
10.67 -1.05903
10.68 -1.02442
10.69 -0.985768
10.7 -0.944327
10.71 -0.900709
10.72 -0.855914
10.73 -0.810909
10.74 -0.766848
10.75 -0.724609
10.76 -0.685477
10.77 -0.650286
10.78 -0.61986
10.79 -0.595378
10.8 -0.576726
10.81 -0.565301
10.82 -0.560424
10.83 -0.562545
10.84 -0.571432
10.85 -0.586271
10.86 -0.607225
10.87 -0.632742
10.88 -0.662525
10.89 -0.695344
10.9 -0.730322
10.91 -0.766567
10.92 -0.803133
10.93 -0.839186
10.94 -0.874094
10.95 -0.907231
10.96 -0.938121
10.97 -0.96664
10.98 -0.992251
10.99 -1.0153
11 -1.03552
11.01 -1.0532
11.02 -1.06854
11.03 -1.08163
11.04 -1.09295
11.05 -1.10253
11.06 -1.11087
11.07 -1.11813
11.08 -1.1246
11.09 -1.13055
11.1 -1.13615
11.11 -1.1416
11.12 -1.14703
11.13 -1.1525
11.14 -1.15799
11.15 -1.16336
11.16 -1.16839
11.17 -1.17257
11.18 -1.17541
11.19 -1.17604
11.2 -1.17334
11.21 -1.16645
11.22 -1.15309
11.23 -1.13261
11.24 -1.1023
11.25 -1.06079
11.26 -1.00635
11.27 -0.936054
11.28 -0.850157
11.29 -0.744654
11.3 -0.620939
11.31 -0.477305
11.32 -0.313813
11.33 -0.132473
11.34 0.0675814
11.35 0.281623
11.36 0.508368
11.37 0.743214
11.38 0.982205
11.39 1.22031
11.4 1.45298
11.41 1.6735
11.42 1.87801
11.43 2.06055
11.44 2.21598
11.45 2.34249
11.46 2.43212
11.47 2.48776
11.48 2.50382
11.49 2.48249
11.5 2.42466
11.51 2.32997
11.52 2.20529
11.53 2.05015
11.54 1.8729
11.55 1.67707
11.56 1.46862
11.57 1.25349
11.58 1.03707
11.59 0.824511
11.6 0.621048
11.61 0.430293
11.62 0.255121
11.63 0.0991427
11.64 -0.0386202
11.65 -0.154889
11.66 -0.252805
11.67 -0.332434
11.68 -0.395887
11.69 -0.446503
11.7 -0.485659
11.71 -0.517784
11.72 -0.544974
11.73 -0.570353
11.74 -0.596081
11.75 -0.624248
11.76 -0.655735
11.77 -0.691771
11.78 -0.731791
11.79 -0.775439
11.8 -0.821414
11.81 -0.86804
11.82 -0.913044
11.83 -0.954428
11.84 -0.989264
11.85 -1.01541
11.86 -1.03079
11.87 -1.0324
11.88 -1.02031
11.89 -0.991039
11.9 -0.94598
11.91 -0.883978
11.92 -0.805429
11.93 -0.712325
11.94 -0.604209
11.95 -0.484982
11.96 -0.355559
11.97 -0.219196
11.98 -0.07843
11.99 0.0639017
12 0.205038
12.01 0.341733
12.02 0.471874
12.03 0.59271
12.04 0.701856
12.05 0.798461
12.06 0.878976
12.07 0.944566
12.08 0.992636
12.09 1.02384
12.1 1.03825
12.11 1.03509
12.12 1.017
12.13 0.982764
12.14 0.93565
12.15 0.876333
12.16 0.806688
12.17 0.729157
12.18 0.644889
12.19 0.556779
12.2 0.466392
12.21 0.375863
12.22 0.286812
12.23 0.201078
12.24 0.119465
12.25 0.0437231
12.26 -0.0261655
12.27 -0.0894921
12.28 -0.146203
12.29 -0.197019
12.3 -0.241725
12.31 -0.281941
12.32 -0.318093
12.33 -0.351531
12.34 -0.383264
12.35 -0.414306
12.36 -0.445541
12.37 -0.477745
12.38 -0.511209
12.39 -0.546103
12.4 -0.582168
