# xPDFsuite Configuration #
[PDF]
wavelength = 0.1432
dataformat = twotheta
inputfile = 1_1Pd_CeO2_cycle-00211.chi
backgroundfile = background-00000.chi
mode = xray
bgscale = 1.007
composition = CeO2
outputtype = gr
qmaxinst = 28.8974762299
qmin = 0.5
qmax = 27.9
rmax = 50.0
rmin = 0.0
rstep = 0.01
rpoly = 1.8657

[Misc]
inputdir = G:/SankarDec16/1Pd/Chi
savedir = D:/DATA/APS_CeO2/1Pd
backgroundfilefull = G:/SankarDec16/Background/background-00000.chi

#### start data
#S 1
#L r($\AA$)  G($\AA^{-2}$)
0 0
0.01 -0.0057223
0.02 -0.0110125
0.03 -0.0154259
0.04 -0.0186275
0.05 -0.0204313
0.06 -0.0205382
0.07 -0.0191485
0.08 -0.0161669
0.09 -0.0119752
0.1 -0.00683797
0.11 -0.00115951
0.12 0.00462024
0.13 0.0100067
0.14 0.0146515
0.15 0.018127
0.16 0.0201842
0.17 0.0207248
0.18 0.0195471
0.19 0.0169466
0.2 0.0129381
0.21 0.00796707
0.22 0.00236362
0.23 -0.0034179
0.24 -0.0089643
0.25 -0.0137428
0.26 -0.0175059
0.27 -0.0198642
0.28 -0.020667
0.29 -0.0199088
0.3 -0.0174954
0.31 -0.0138035
0.32 -0.00895683
0.33 -0.00344364
0.34 0.00235704
0.35 0.00796276
0.36 0.0130076
0.37 0.0169469
0.38 0.019646
0.39 0.0207736
0.4 0.0202846
0.41 0.0182672
0.42 0.0147397
0.43 0.0101415
0.44 0.00469975
0.45 -0.00107849
0.46 -0.00678383
0.47 -0.0119292
0.48 -0.0162144
0.49 -0.0191096
0.5 -0.0206004
0.51 -0.0204299
0.52 -0.0186615
0.53 -0.0154732
0.54 -0.0109953
0.55 -0.00570873
0.56 6.67289e-05
0.57 0.00583003
0.58 0.0111617
0.59 0.0155939
0.6 0.0189074
0.61 0.0206137
0.62 0.0208195
0.63 0.019356
0.64 0.0163924
0.65 0.0121879
0.66 0.00697956
0.67 0.00126604
0.68 -0.00455569
0.69 -0.010015
0.7 -0.0147031
0.71 -0.0181943
0.72 -0.0203616
0.73 -0.0207816
0.74 -0.0196774
0.75 -0.0169761
0.76 -0.0129442
0.77 -0.00790908
0.78 -0.0022017
0.79 0.00368673
0.8 0.00930375
0.81 0.014233
0.82 0.0180987
0.83 0.0205397
0.84 0.0215279
0.85 0.0207287
0.86 0.0184686
0.87 0.0147741
0.88 0.00999388
0.89 0.00450307
0.9 -0.00129474
0.91 -0.0069467
0.92 -0.0119777
0.93 -0.0160556
0.94 -0.0188687
0.95 -0.0201551
0.96 -0.0199947
0.97 -0.0181873
0.98 -0.015148
0.99 -0.0110255
1 -0.00624333
1.01 -0.00121059
1.02 0.00359509
1.03 0.00779972
1.04 0.0109146
1.05 0.0127329
1.06 0.0130367
1.07 0.0117015
1.08 0.00895125
1.09 0.00477277
1.1 -0.000298372
1.11 -0.00593413
1.12 -0.011588
1.13 -0.0167782
1.14 -0.0208638
1.15 -0.0235413
1.16 -0.0241987
1.17 -0.0227386
1.18 -0.018972
1.19 -0.0128385
1.2 -0.00473114
1.21 0.00531385
1.22 0.0165449
1.23 0.0285143
1.24 0.0405023
1.25 0.0518823
1.26 0.0618195
1.27 0.0699092
1.28 0.0753208
1.29 0.0778679
1.3 0.0772114
1.31 0.0731133
1.32 0.0659654
1.33 0.055488
1.34 0.0425436
1.35 0.0273727
1.36 0.0106776
1.37 -0.00688355
1.38 -0.0246258
1.39 -0.0418926
1.4 -0.0579437
1.41 -0.0723076
1.42 -0.0844903
1.43 -0.0940066
1.44 -0.100898
1.45 -0.104549
1.46 -0.105422
1.47 -0.103314
1.48 -0.0984871
1.49 -0.0912583
1.5 -0.0816934
1.51 -0.0703916
1.52 -0.0574747
1.53 -0.043453
1.54 -0.0286305
1.55 -0.0133696
1.56 0.00197347
1.57 0.0170142
1.58 0.0314583
1.59 0.0449104
1.6 0.0570345
1.61 0.0675786
1.62 0.0760071
1.63 0.0823102
1.64 0.0859119
1.65 0.0868355
1.66 0.0848671
1.67 0.0798284
1.68 0.0720564
1.69 0.0612423
1.7 0.048098
1.71 0.0327672
1.72 0.0158398
1.73 -0.00208676
1.74 -0.020374
1.75 -0.0383216
1.76 -0.0551394
1.77 -0.0702433
1.78 -0.0830321
1.79 -0.0928952
1.8 -0.0998351
1.81 -0.103173
1.82 -0.103488
1.83 -0.100722
1.84 -0.0954236
1.85 -0.0882384
1.86 -0.0797911
1.87 -0.0710112
1.88 -0.0627575
1.89 -0.0558401
1.9 -0.0510034
1.91 -0.0490093
1.92 -0.0499625
1.93 -0.0546224
1.94 -0.0624096
1.95 -0.0733528
1.96 -0.0868015
1.97 -0.10198
1.98 -0.118034
1.99 -0.133876
2 -0.148311
2.01 -0.160336
2.02 -0.168928
2.03 -0.17298
2.04 -0.172329
2.05 -0.165636
2.06 -0.153596
2.07 -0.135755
2.08 -0.112614
2.09 -0.0848854
2.1 -0.0528905
2.11 -0.0179733
2.12 0.0193102
2.13 0.0578233
2.14 0.0968214
2.15 0.135551
2.16 0.173569
2.17 0.210376
2.18 0.246037
2.19 0.280523
2.2 0.314132
2.21 0.347233
2.22 0.380254
2.23 0.413596
2.24 0.447653
2.25 0.482545
2.26 0.51826
2.27 0.554508
2.28 0.590727
2.29 0.625928
2.3 0.659151
2.31 0.688887
2.32 0.713635
2.33 0.732195
2.34 0.742177
2.35 0.743414
2.36 0.73354
2.37 0.712762
2.38 0.680499
2.39 0.636474
2.4 0.582471
2.41 0.518113
2.42 0.446552
2.43 0.369106
2.44 0.288464
2.45 0.207076
2.46 0.127809
2.47 0.052732
2.48 -0.0151939
2.49 -0.0746474
2.5 -0.124086
2.51 -0.162158
2.52 -0.189777
2.53 -0.205544
2.54 -0.212122
2.55 -0.210058
2.56 -0.201587
2.57 -0.188946
2.58 -0.174294
2.59 -0.160047
2.6 -0.148511
2.61 -0.141338
2.62 -0.139962
2.63 -0.145623
2.64 -0.15793
2.65 -0.177786
2.66 -0.203341
2.67 -0.233938
2.68 -0.267735
2.69 -0.302923
2.7 -0.337453
2.71 -0.369638
2.72 -0.397371
2.73 -0.41963
2.74 -0.435401
2.75 -0.443932
2.76 -0.446036
2.77 -0.441308
2.78 -0.431832
2.79 -0.418616
2.8 -0.403653
2.81 -0.388755
2.82 -0.376091
2.83 -0.367005
2.84 -0.363507
2.85 -0.366168
2.86 -0.375627
2.87 -0.392134
2.88 -0.414459
2.89 -0.442343
2.9 -0.473445
2.91 -0.506227
2.92 -0.538419
2.93 -0.568127
2.94 -0.592814
2.95 -0.611534
2.96 -0.622123
2.97 -0.624507
2.98 -0.618347
2.99 -0.6038
3 -0.582661
3.01 -0.555616
3.02 -0.525517
3.03 -0.494324
3.04 -0.464658
3.05 -0.438593
3.06 -0.418936
3.07 -0.406464
3.08 -0.403392
3.09 -0.409471
3.1 -0.424785
3.11 -0.448826
3.12 -0.47943
3.13 -0.515497
3.14 -0.553934
3.15 -0.592486
3.16 -0.628426
3.17 -0.659731
3.18 -0.683637
3.19 -0.69977
3.2 -0.706278
3.21 -0.70398
3.22 -0.693385
3.23 -0.675773
3.24 -0.653734
3.25 -0.629447
3.26 -0.606069
3.27 -0.586549
3.28 -0.573767
3.29 -0.569591
3.3 -0.577023
3.31 -0.59551
3.32 -0.626704
3.33 -0.668703
3.34 -0.720161
3.35 -0.778708
3.36 -0.840795
3.37 -0.902909
3.38 -0.961287
3.39 -1.01195
3.4 -1.0515
3.41 -1.07798
3.42 -1.08784
3.43 -1.08252
3.44 -1.06041
3.45 -1.02459
3.46 -0.977274
3.47 -0.922017
3.48 -0.863517
3.49 -0.806628
3.5 -0.755834
3.51 -0.716004
3.52 -0.690805
3.53 -0.681883
3.54 -0.692333
3.55 -0.719058
3.56 -0.761706
3.57 -0.814485
3.58 -0.871946
3.59 -0.925899
3.6 -0.968867
3.61 -0.988104
3.62 -0.977338
3.63 -0.924552
3.64 -0.821526
3.65 -0.664125
3.66 -0.440382
3.67 -0.156549
3.68 0.195264
3.69 0.605965
3.7 1.07094
3.71 1.5824
3.72 2.12505
3.73 2.68822
3.74 3.25346
3.75 3.80463
3.76 4.32374
3.77 4.79724
3.78 5.20239
3.79 5.53548
3.8 5.77527
3.81 5.92144
3.82 5.96775
3.83 5.90868
3.84 5.7573
3.85 5.50466
3.86 5.17423
3.87 4.77033
3.88 4.30948
3.89 3.80822
3.9 3.28011
3.91 2.7438
3.92 2.21434
3.93 1.70572
3.94 1.22985
3.95 0.799284
3.96 0.416044
3.97 0.093615
3.98 -0.174656
3.99 -0.384354
4 -0.53981
4.01 -0.647911
4.02 -0.710381
4.03 -0.74017
4.04 -0.741225
4.05 -0.724256
4.06 -0.696079
4.07 -0.66385
4.08 -0.633236
4.09 -0.609712
4.1 -0.595395
4.11 -0.592804
4.12 -0.60211
4.13 -0.622018
4.14 -0.651691
4.15 -0.687412
4.16 -0.726766
4.17 -0.766049
4.18 -0.802222
4.19 -0.83185
4.2 -0.853358
4.21 -0.86318
4.22 -0.861744
4.23 -0.847493
4.24 -0.820802
4.25 -0.782873
4.26 -0.733703
4.27 -0.676169
4.28 -0.610913
4.29 -0.540373
4.3 -0.466011
4.31 -0.389314
4.32 -0.311655
4.33 -0.233978
4.34 -0.156967
4.35 -0.0811003
4.36 -0.00659933
4.37 0.0665122
4.38 0.138014
4.39 0.208034
4.4 0.276159
4.41 0.342147
4.42 0.40539
4.43 0.46483
4.44 0.519912
4.45 0.568482
4.46 0.610104
4.47 0.642785
4.48 0.665263
4.49 0.676957
4.5 0.67555
4.51 0.662221
4.52 0.6352
4.53 0.595908
4.54 0.544818
4.55 0.482706
4.56 0.412141
4.57 0.33387
4.58 0.25111
4.59 0.165672
4.6 0.0800567
4.61 -0.00376677
4.62 -0.083382
4.63 -0.157819
4.64 -0.225101
4.65 -0.284991
4.66 -0.337031
4.67 -0.380948
4.68 -0.418013
4.69 -0.44798
4.7 -0.472889
4.71 -0.493457
4.72 -0.511112
4.73 -0.527085
4.74 -0.542394
4.75 -0.557937
4.76 -0.574378
4.77 -0.591976
4.78 -0.610787
4.79 -0.630621
4.8 -0.650972
4.81 -0.67124
4.82 -0.690742
4.83 -0.708709
4.84 -0.724458
4.85 -0.737605
4.86 -0.74742
4.87 -0.754197
4.88 -0.757606
4.89 -0.758225
4.9 -0.756473
4.91 -0.752967
4.92 -0.748577
4.93 -0.744078
4.94 -0.740272
4.95 -0.73792
4.96 -0.737621
4.97 -0.739646
4.98 -0.744509
4.99 -0.751832
5 -0.76173
5.01 -0.773601
5.02 -0.787001
5.03 -0.80134
5.04 -0.815958
5.05 -0.830219
5.06 -0.843651
5.07 -0.855774
5.08 -0.866308
5.09 -0.875197
5.1 -0.882223
5.11 -0.887704
5.12 -0.891561
5.13 -0.894042
5.14 -0.89516
5.15 -0.894735
5.16 -0.892661
5.17 -0.888049
5.18 -0.880442
5.19 -0.868519
5.2 -0.850922
5.21 -0.826552
5.22 -0.792726
5.23 -0.74913
5.24 -0.692844
5.25 -0.623517
5.26 -0.540049
5.27 -0.441238
5.28 -0.328813
5.29 -0.201418
5.3 -0.0626833
5.31 0.0861278
5.32 0.241589
5.33 0.400067
5.34 0.557196
5.35 0.7089
5.36 0.849587
5.37 0.975348
5.38 1.08188
5.39 1.16393
5.4 1.22122
5.41 1.24695
5.42 1.24417
5.43 1.21019
5.44 1.14647
5.45 1.05628
5.46 0.939803
5.47 0.804154
5.48 0.651537
5.49 0.488513
5.5 0.319857
5.51 0.151151
5.52 -0.0130672
5.53 -0.16687
5.54 -0.307822
5.55 -0.431818
5.56 -0.536805
5.57 -0.622664
5.58 -0.686802
5.59 -0.732751
5.6 -0.759647
5.61 -0.771207
5.62 -0.769627
5.63 -0.757434
5.64 -0.738388
5.65 -0.714517
5.66 -0.68897
5.67 -0.663598
5.68 -0.640026
5.69 -0.618979
5.7 -0.601087
5.71 -0.585633
5.72 -0.572079
5.73 -0.559008
5.74 -0.545045
5.75 -0.52839
5.76 -0.507963
5.77 -0.481655
5.78 -0.449334
5.79 -0.41001
5.8 -0.36384
5.81 -0.311717
5.82 -0.254231
5.83 -0.193667
5.84 -0.131785
5.85 -0.071153
5.86 -0.0141504
5.87 0.0362281
5.88 0.0785461
5.89 0.109115
5.9 0.127921
5.91 0.132895
5.92 0.123706
5.93 0.101197
5.94 0.0645662
5.95 0.0169252
5.96 -0.0413208
5.97 -0.107115
5.98 -0.178338
5.99 -0.252518
6 -0.327162
6.01 -0.399825
6.02 -0.468861
6.03 -0.532481
6.04 -0.589608
6.05 -0.640042
6.06 -0.682826
6.07 -0.719288
6.08 -0.749316
6.09 -0.774416
6.1 -0.795588
6.11 -0.813965
6.12 -0.830882
6.13 -0.847241
6.14 -0.863899
6.15 -0.881378
6.16 -0.899896
6.17 -0.919325
6.18 -0.939382
6.19 -0.959453
6.2 -0.978817
6.21 -0.996756
6.22 -1.01259
6.23 -1.02558
6.24 -1.03566
6.25 -1.04218
6.26 -1.04575
6.27 -1.04649
6.28 -1.04504
6.29 -1.04216
6.3 -1.03851
6.31 -1.03481
6.32 -1.03149
6.33 -1.02857
6.34 -1.02568
6.35 -1.02171
6.36 -1.0153
6.37 -1.00344
6.38 -0.983908
6.39 -0.95261
6.4 -0.905399
6.41 -0.839269
6.42 -0.746934
6.43 -0.627994
6.44 -0.475157
6.45 -0.287983
6.46 -0.0642481
6.47 0.198747
6.48 0.496177
6.49 0.831188
6.5 1.19478
6.51 1.58395
6.52 1.99076
6.53 2.40669
6.54 2.82216
6.55 3.22758
6.56 3.61068
6.57 3.96224
6.58 4.27249
6.59 4.52903
6.6 4.73046
6.61 4.86058
6.62 4.92469
6.63 4.91519
6.64 4.83307
6.65 4.68427
6.66 4.46545
6.67 4.19206
6.68 3.86536
6.69 3.49925
6.7 3.103
6.71 2.68723
6.72 2.26402
6.73 1.84428
6.74 1.43752
6.75 1.05348
6.76 0.700006
6.77 0.38084
6.78 0.105112
6.79 -0.130715
6.8 -0.320732
6.81 -0.469374
6.82 -0.57838
6.83 -0.649554
6.84 -0.690942
6.85 -0.703286
6.86 -0.6958
6.87 -0.672015
6.88 -0.637594
6.89 -0.597248
6.9 -0.554673
6.91 -0.513114
6.92 -0.475066
6.93 -0.44178
6.94 -0.413961
6.95 -0.391962
6.96 -0.374747
6.97 -0.362191
6.98 -0.352673
6.99 -0.345454
7 -0.339539
7.01 -0.334263
7.02 -0.329334
7.03 -0.324747
7.04 -0.32098
7.05 -0.318753
7.06 -0.319028
7.07 -0.32325
7.08 -0.332099
7.09 -0.347625
7.1 -0.369871
7.11 -0.399987
7.12 -0.438126
7.13 -0.483642
7.14 -0.536668
7.15 -0.595082
7.16 -0.657938
7.17 -0.722913
7.18 -0.788043
7.19 -0.850865
7.2 -0.909676
7.21 -0.961599
7.22 -1.00592
7.23 -1.04085
7.24 -1.06577
7.25 -1.0811
7.26 -1.08612
7.27 -1.08314
7.28 -1.07261
7.29 -1.05694
7.3 -1.03796
7.31 -1.01779
7.32 -0.998333
7.33 -0.981656
7.34 -0.968709
7.35 -0.960571
7.36 -0.957415
7.37 -0.958568
7.38 -0.963338
7.39 -0.96961
7.4 -0.975257
7.41 -0.977566
7.42 -0.973799
7.43 -0.960297
7.44 -0.935514
7.45 -0.894703
7.46 -0.837908
7.47 -0.76244
7.48 -0.667738
7.49 -0.555001
7.5 -0.423056
7.51 -0.276277
7.52 -0.115523
7.53 0.0546505
7.54 0.230641
7.55 0.407923
7.56 0.582234
7.57 0.747935
7.58 0.901782
7.59 1.03893
7.6 1.15579
7.61 1.25095
7.62 1.31928
7.63 1.36324
7.64 1.37933
7.65 1.37004
7.66 1.3363
7.67 1.27885
7.68 1.20249
7.69 1.10736
7.7 0.999165
7.71 0.88015
7.72 0.754121
7.73 0.624492
7.74 0.494393
7.75 0.366618
7.76 0.244107
7.77 0.12876
7.78 0.0223312
7.79 -0.0730526
7.8 -0.157594
7.81 -0.228652
7.82 -0.287539
7.83 -0.333108
7.84 -0.365537
7.85 -0.385825
7.86 -0.392934
7.87 -0.389288
7.88 -0.374394
7.89 -0.35017
7.9 -0.317709
7.91 -0.278156
7.92 -0.23376
7.93 -0.185758
7.94 -0.136584
7.95 -0.0881409
7.96 -0.0427101
7.97 -0.00200693
7.98 0.0310704
7.99 0.0558288
8 0.0695913
8.01 0.0718868
8.02 0.0618823
8.03 0.038491
8.04 0.00331164
8.05 -0.0448285
8.06 -0.103055
8.07 -0.170581
8.08 -0.245162
8.09 -0.324333
8.1 -0.405911
8.11 -0.487218
8.12 -0.565769
8.13 -0.639528
8.14 -0.706782
8.15 -0.765635
8.16 -0.816224
8.17 -0.856849
8.18 -0.889054
8.19 -0.912905
8.2 -0.929731
8.21 -0.941278
8.22 -0.948744
8.23 -0.954274
8.24 -0.959197
8.25 -0.96483
8.26 -0.971889
8.27 -0.98067
8.28 -0.990558
8.29 -1.0004
8.3 -1.00828
8.31 -1.01156
8.32 -1.00689
8.33 -0.991525
8.34 -0.959777
8.35 -0.910284
8.36 -0.83712
8.37 -0.738766
8.38 -0.612859
8.39 -0.456148
8.4 -0.271651
8.41 -0.0557864
8.42 0.185211
8.43 0.449932
8.44 0.733132
8.45 1.02851
8.46 1.33002
8.47 1.6298
8.48 1.91961
8.49 2.19193
8.5 2.43954
8.51 2.65305
8.52 2.83049
8.53 2.96022
8.54 3.04462
8.55 3.07798
8.56 3.05987
8.57 2.99412
8.58 2.87717
8.59 2.71968
8.6 2.52176
8.61 2.29264
8.62 2.03859
8.63 1.76634
8.64 1.48472
8.65 1.20049
8.66 0.921011
8.67 0.652763
8.68 0.401602
8.69 0.170519
8.7 -0.0340331
8.71 -0.213662
8.72 -0.364223
8.73 -0.487925
8.74 -0.585709
8.75 -0.658262
8.76 -0.710787
8.77 -0.743589
8.78 -0.762694
8.79 -0.770516
8.8 -0.770899
8.81 -0.767212
8.82 -0.76217
8.83 -0.75821
8.84 -0.757341
8.85 -0.760654
8.86 -0.768814
8.87 -0.78231
8.88 -0.800305
8.89 -0.822802
8.9 -0.848294
8.91 -0.875946
8.92 -0.904488
8.93 -0.932847
8.94 -0.959836
8.95 -0.984848
8.96 -1.00701
8.97 -1.02614
8.98 -1.04215
8.99 -1.05499
9 -1.06534
9.01 -1.07335
9.02 -1.07993
9.03 -1.08562
9.04 -1.09107
9.05 -1.09678
9.06 -1.10322
9.07 -1.11045
9.08 -1.11854
9.09 -1.12712
9.1 -1.1357
9.11 -1.14346
9.12 -1.14963
9.13 -1.15274
9.14 -1.15202
9.15 -1.14602
9.16 -1.13356
9.17 -1.11412
9.18 -1.08582
9.19 -1.04936
9.2 -1.00344
9.21 -0.948822
9.22 -0.885899
9.23 -0.81509
9.24 -0.738345
9.25 -0.656401
9.26 -0.571724
9.27 -0.486056
9.28 -0.401728
9.29 -0.320629
9.3 -0.245645
9.31 -0.177844
9.32 -0.119955
9.33 -0.0728285
9.34 -0.0375083
9.35 -0.0154609
9.36 -0.00539961
9.37 -0.00894525
9.38 -0.0236073
9.39 -0.0490589
9.4 -0.0835588
9.41 -0.124869
9.42 -0.171542
9.43 -0.220756
9.44 -0.270579
9.45 -0.318779
9.46 -0.363587
9.47 -0.402986
9.48 -0.43643
9.49 -0.462012
9.5 -0.48033
9.51 -0.490897
9.52 -0.494256
9.53 -0.491622
9.54 -0.483524
9.55 -0.47206
9.56 -0.458412
9.57 -0.44441
9.58 -0.431503
9.59 -0.421348
9.6 -0.414733
9.61 -0.413251
9.62 -0.416842
9.63 -0.426107
9.64 -0.440919
9.65 -0.460567
9.66 -0.484943
9.67 -0.51257
9.68 -0.542841
9.69 -0.57451
9.7 -0.606671
9.71 -0.638389
9.72 -0.669088
9.73 -0.698077
9.74 -0.725329
9.75 -0.750698
9.76 -0.774365
9.77 -0.796687
9.78 -0.817846
9.79 -0.838248
9.8 -0.85789
9.81 -0.876632
9.82 -0.893961
9.83 -0.908665
9.84 -0.919667
9.85 -0.924099
9.86 -0.92022
9.87 -0.904511
9.88 -0.873335
9.89 -0.824421
9.9 -0.751132
9.91 -0.653446
9.92 -0.525017
9.93 -0.365128
9.94 -0.171989
9.95 0.0575534
9.96 0.31927
9.97 0.616703
9.98 0.942555
9.99 1.29489
10 1.66779
10.01 2.05407
10.02 2.447
10.03 2.83781
10.04 3.2173
10.05 3.57699
10.06 3.9088
10.07 4.20181
10.08 4.45368
10.09 4.6509
10.1 4.79548
10.11 4.88055
10.12 4.90455
10.13 4.87155
10.14 4.77587
10.15 4.62956
10.16 4.43147
10.17 4.19157
10.18 3.9166
10.19 3.61318
10.2 3.29207
10.21 2.95979
10.22 2.62589
10.23 2.29756
10.24 1.98212
10.25 1.68393
10.26 1.4106
10.27 1.16184
10.28 0.942757
10.29 0.752182
10.3 0.58972
10.31 0.455556
10.32 0.344394
10.33 0.256531
10.34 0.18552
10.35 0.128908
10.36 0.0825094
10.37 0.0423413
10.38 0.00539897
10.39 -0.0315639
10.4 -0.0709932
10.41 -0.114601
10.42 -0.163472
10.43 -0.218581
10.44 -0.279229
10.45 -0.345743
10.46 -0.416468
10.47 -0.490509
10.48 -0.566296
10.49 -0.64232
10.5 -0.716825
10.51 -0.788592
10.52 -0.855895
10.53 -0.917798
10.54 -0.973422
10.55 -1.02155
10.56 -1.06259
10.57 -1.09513
10.58 -1.12018
10.59 -1.13734
10.6 -1.14692
10.61 -1.14976
10.62 -1.14543
10.63 -1.13544
10.64 -1.11962
10.65 -1.09892
10.66 -1.07389
10.67 -1.04486
10.68 -1.01279
10.69 -0.977855
10.7 -0.94099
10.71 -0.902655
10.72 -0.863538
10.73 -0.82428
10.74 -0.785634
10.75 -0.748176
10.76 -0.712765
10.77 -0.67999
10.78 -0.650462
10.79 -0.625093
10.8 -0.603929
10.81 -0.588173
10.82 -0.577545
10.83 -0.572662
10.84 -0.573691
10.85 -0.580262
10.86 -0.593034
10.87 -0.610916
10.88 -0.634167
10.89 -0.66194
10.9 -0.693682
10.91 -0.728898
10.92 -0.766509
10.93 -0.805994
10.94 -0.846268
10.95 -0.886553
10.96 -0.925922
10.97 -0.963702
10.98 -0.998801
10.99 -1.03095
11 -1.05921
11.01 -1.08337
11.02 -1.10317
11.03 -1.1182
11.04 -1.12903
11.05 -1.13526
11.06 -1.13787
11.07 -1.13718
11.08 -1.13395
11.09 -1.1291
11.1 -1.12341
11.11 -1.11785
11.12 -1.11333
11.13 -1.11056
11.14 -1.11006
11.15 -1.11236
11.16 -1.11718
11.17 -1.12459
11.18 -1.13356
11.19 -1.14314
11.2 -1.1517
11.21 -1.15762
11.22 -1.15799
11.23 -1.15123
11.24 -1.13376
11.25 -1.1034
11.26 -1.05776
11.27 -0.993073
11.28 -0.909587
11.29 -0.802557
11.3 -0.67388
11.31 -0.52186
11.32 -0.347061
11.33 -0.152273
11.34 0.0627543
11.35 0.292216
11.36 0.533919
11.37 0.782315
11.38 1.03266
11.39 1.27897
11.4 1.51654
11.41 1.73776
11.42 1.93921
11.43 2.11481
11.44 2.25985
11.45 2.37326
11.46 2.44761
11.47 2.48693
11.48 2.48653
11.49 2.44959
11.5 2.37788
11.51 2.27207
11.52 2.1393
11.53 1.98008
11.54 1.8025
11.55 1.6103
11.56 1.40918
11.57 1.20439
11.58 1.00101
11.59 0.803031
11.6 0.614986
11.61 0.43947
11.62 0.27854
11.63 0.134843
11.64 0.00701766
11.65 -0.102565
11.66 -0.196937
11.67 -0.276431
11.68 -0.343003
11.69 -0.399459
11.7 -0.446971
11.71 -0.488995
11.72 -0.52707
11.73 -0.563464
11.74 -0.599654
11.75 -0.636948
11.76 -0.675882
11.77 -0.716985
11.78 -0.759761
11.79 -0.803675
11.8 -0.847582
11.81 -0.890251
11.82 -0.929655
11.83 -0.964554
11.84 -0.992531
11.85 -1.01211
11.86 -1.02175
11.87 -1.01906
11.88 -1.00427
11.89 -0.974409
11.9 -0.930682
11.91 -0.871951
11.92 -0.798332
11.93 -0.711341
11.94 -0.610113
11.95 -0.497889
11.96 -0.374995
11.97 -0.244112
11.98 -0.107317
11.99 0.0331066
12 0.174401
12.01 0.313758
12.02 0.448689
12.03 0.576352
12.04 0.69394
12.05 0.800027
12.06 0.890513
12.07 0.96586
12.08 1.02277
12.09 1.06129
12.1 1.08103
12.11 1.08058
12.12 1.06264
12.13 1.02552
12.14 0.972943
12.15 0.905686
12.16 0.826087
12.17 0.737237
12.18 0.640847
12.19 0.540612
12.2 0.438826
12.21 0.338295
12.22 0.241184
12.23 0.15
12.24 0.0655412
12.25 -0.00986723
12.26 -0.0766567
12.27 -0.134143
12.28 -0.182662
12.29 -0.223552
12.3 -0.257036
12.31 -0.285553
12.32 -0.310168
12.33 -0.332907
12.34 -0.355319
12.35 -0.379064
12.36 -0.40512
12.37 -0.434821
12.38 -0.46819
12.39 -0.505441
12.4 -0.546054
12.41 -0.588928
