# xPDFsuite Configuration #
[PDF]
wavelength = 0.1432
dataformat = twotheta
inputfile = 1_1Pd_CeO2_cycle-00160.chi
backgroundfile = background-00000.chi
mode = xray
bgscale = 1.007
composition = CeO2
outputtype = gr
qmaxinst = 28.8974762299
qmin = 0.5
qmax = 27.9
rmax = 50.0
rmin = 0.0
rstep = 0.01
rpoly = 1.8657

[Misc]
inputdir = G:/SankarDec16/1Pd/Chi
savedir = D:/DATA/APS_CeO2/1Pd
backgroundfilefull = G:/SankarDec16/Background/background-00000.chi

#### start data
#S 1
#L r($\AA$)  G($\AA^{-2}$)
0 0
0.01 -0.00663945
0.02 -0.0127783
0.03 -0.0179011
0.04 -0.0216198
0.05 -0.0237184
0.06 -0.0238499
0.07 -0.0222459
0.08 -0.0187951
0.09 -0.0139394
0.1 -0.00798446
0.11 -0.00139822
0.12 0.00530946
0.13 0.0115662
0.14 0.0169672
0.15 0.0210165
0.16 0.0234242
0.17 0.0240749
0.18 0.022733
0.19 0.0197392
0.2 0.0151082
0.21 0.00935518
0.22 0.00286109
0.23 -0.00384867
0.24 -0.0102945
0.25 -0.0158599
0.26 -0.0202553
0.27 -0.0230282
0.28 -0.024001
0.29 -0.0231646
0.3 -0.0204061
0.31 -0.0161594
0.32 -0.0105643
0.33 -0.00418491
0.34 0.00254117
0.35 0.00905597
0.36 0.0149336
0.37 0.0195431
0.38 0.0227242
0.39 0.0240901
0.4 0.0235839
0.41 0.0213038
0.42 0.0172655
0.43 0.0119752
0.44 0.005691
0.45 -0.00100052
0.46 -0.00762666
0.47 -0.0136234
0.48 -0.0186395
0.49 -0.0220603
0.5 -0.0238625
0.51 -0.0237443
0.52 -0.0217727
0.53 -0.0181485
0.54 -0.0130158
0.55 -0.00692909
0.56 -0.000252607
0.57 0.006433
0.58 0.0126428
0.59 0.0178337
0.6 0.0217466
0.61 0.023813
0.62 0.0241482
0.63 0.0225502
0.64 0.0192073
0.65 0.0144135
0.66 0.00843498
0.67 0.00184742
0.68 -0.00489601
0.69 -0.0112484
0.7 -0.0167364
0.71 -0.020864
0.72 -0.0234769
0.73 -0.0240804
0.74 -0.0229228
0.75 -0.0199115
0.76 -0.0153465
0.77 -0.00960024
0.78 -0.00304681
0.79 0.00374544
0.8 0.010259
0.81 0.016008
0.82 0.020556
0.83 0.0234804
0.84 0.0247399
0.85 0.0239412
0.86 0.021452
0.87 0.0172952
0.88 0.0118663
0.89 0.00559512
0.9 -0.00105739
0.91 -0.00756458
0.92 -0.0133777
0.93 -0.0181051
0.94 -0.02138
0.95 -0.0228892
0.96 -0.0227162
0.97 -0.0206158
0.98 -0.0170621
0.99 -0.0122172
1 -0.00656711
1.01 -0.00058619
1.02 0.00517291
1.03 0.0102641
1.04 0.014111
1.05 0.0164537
1.06 0.0170186
1.07 0.0156324
1.08 0.0125353
1.09 0.0076674
1.1 0.00164048
1.11 -0.0052008
1.12 -0.0122379
1.13 -0.0189163
1.14 -0.0245162
1.15 -0.0286543
1.16 -0.0306281
1.17 -0.030281
1.18 -0.0273633
1.19 -0.0217579
1.2 -0.0138667
1.21 -0.00366301
1.22 0.00803553
1.23 0.0207869
1.24 0.0338204
1.25 0.0464556
1.26 0.0578194
1.27 0.067434
1.28 0.0744267
1.29 0.0785585
1.3 0.0794538
1.31 0.0768418
1.32 0.0711036
1.33 0.0619348
1.34 0.0502109
1.35 0.0361661
1.36 0.0205108
1.37 0.00390973
1.38 -0.0129609
1.39 -0.0294397
1.4 -0.0448145
1.41 -0.0586292
1.42 -0.0704249
1.43 -0.0797679
1.44 -0.0867187
1.45 -0.0907583
1.46 -0.0923414
1.47 -0.0913334
1.48 -0.0880098
1.49 -0.0826785
1.5 -0.0754312
1.51 -0.066778
1.52 -0.0568213
1.53 -0.0459547
1.54 -0.0343864
1.55 -0.0223444
1.56 -0.0100658
1.57 0.00225624
1.58 0.0144152
1.59 0.0261876
1.6 0.0373418
1.61 0.0476783
1.62 0.0568072
1.63 0.0646202
1.64 0.0706311
1.65 0.0747164
1.66 0.0765856
1.67 0.0759299
1.68 0.0728777
1.69 0.0669515
1.7 0.0586275
1.71 0.0478258
1.72 0.034912
1.73 0.0203189
1.74 0.00440818
1.75 -0.0121344
1.76 -0.0287649
1.77 -0.044851
1.78 -0.059833
1.79 -0.0731004
1.8 -0.0844536
1.81 -0.0932307
1.82 -0.0996812
1.83 -0.103603
1.84 -0.10527
1.85 -0.105078
1.86 -0.103352
1.87 -0.10081
1.88 -0.0979765
1.89 -0.0955034
1.9 -0.0939259
1.91 -0.093792
1.92 -0.0952525
1.93 -0.0987706
1.94 -0.104013
1.95 -0.11093
1.96 -0.119033
1.97 -0.127754
1.98 -0.136363
1.99 -0.144137
2 -0.150103
2.01 -0.153615
2.02 -0.153951
2.03 -0.150371
2.04 -0.142924
2.05 -0.130734
2.06 -0.114547
2.07 -0.0942215
2.08 -0.0703559
2.09 -0.0436456
2.1 -0.0145882
2.11 0.0158026
2.12 0.0469259
2.13 0.0780346
2.14 0.108633
2.15 0.13832
2.16 0.167063
2.17 0.194797
2.18 0.221968
2.19 0.248993
2.2 0.276533
2.21 0.305183
2.22 0.33582
2.23 0.368722
2.24 0.404613
2.25 0.443365
2.26 0.484886
2.27 0.528696
2.28 0.573763
2.29 0.618865
2.3 0.662441
2.31 0.702553
2.32 0.737173
2.33 0.764692
2.34 0.782136
2.35 0.789194
2.36 0.782984
2.37 0.763729
2.38 0.730737
2.39 0.683705
2.4 0.624796
2.41 0.553618
2.42 0.473959
2.43 0.387434
2.44 0.297268
2.45 0.206377
2.46 0.118174
2.47 0.0350703
2.48 -0.0394463
2.49 -0.103878
2.5 -0.156458
2.51 -0.195668
2.52 -0.222649
2.53 -0.235852
2.54 -0.238457
2.55 -0.231189
2.56 -0.216724
2.57 -0.197713
2.58 -0.176757
2.59 -0.156647
2.6 -0.140133
2.61 -0.129094
2.62 -0.125192
2.63 -0.129847
2.64 -0.142524
2.65 -0.164262
2.66 -0.192807
2.67 -0.227351
2.68 -0.265676
2.69 -0.305623
2.7 -0.344742
2.71 -0.381034
2.72 -0.411987
2.73 -0.436393
2.74 -0.453044
2.75 -0.461039
2.76 -0.461341
2.77 -0.453447
2.78 -0.439826
2.79 -0.421656
2.8 -0.401294
2.81 -0.380892
2.82 -0.363015
2.83 -0.349293
2.84 -0.342132
2.85 -0.342267
2.86 -0.350513
2.87 -0.367255
2.88 -0.391098
2.89 -0.421875
2.9 -0.456849
2.91 -0.494316
2.92 -0.531646
2.93 -0.56661
2.94 -0.596291
2.95 -0.619467
2.96 -0.633601
2.97 -0.638471
2.98 -0.633576
2.99 -0.61896
3 -0.596584
3.01 -0.567069
3.02 -0.533645
3.03 -0.49845
3.04 -0.464451
3.05 -0.43404
3.06 -0.410397
3.07 -0.39454
3.08 -0.389044
3.09 -0.393776
3.1 -0.408961
3.11 -0.434178
3.12 -0.467085
3.13 -0.506619
3.14 -0.549307
3.15 -0.592706
3.16 -0.633739
3.17 -0.67007
3.18 -0.698556
3.19 -0.718595
3.2 -0.727971
3.21 -0.72739
3.22 -0.71722
3.23 -0.69864
3.24 -0.674418
3.25 -0.646661
3.26 -0.618899
3.27 -0.594237
3.28 -0.57588
3.29 -0.565989
3.3 -0.567903
3.31 -0.58131
3.32 -0.608185
3.33 -0.646767
3.34 -0.695861
3.35 -0.753221
3.36 -0.815183
3.37 -0.878346
3.38 -0.938661
3.39 -0.992076
3.4 -1.03496
3.41 -1.06513
3.42 -1.07883
3.43 -1.0773
3.44 -1.05872
3.45 -1.02603
3.46 -0.981362
3.47 -0.928153
3.48 -0.871145
3.49 -0.815113
3.5 -0.76468
3.51 -0.724735
3.52 -0.699047
3.53 -0.689361
3.54 -0.698837
3.55 -0.724477
3.56 -0.765972
3.57 -0.81758
3.58 -0.873869
3.59 -0.926655
3.6 -0.968453
3.61 -0.986501
3.62 -0.974514
3.63 -0.920469
3.64 -0.816151
3.65 -0.657449
3.66 -0.432446
3.67 -0.147447
3.68 0.205339
3.69 0.616744
3.7 1.08205
3.71 1.59337
3.72 2.13536
3.73 2.69724
3.74 3.2606
3.75 3.80929
3.76 4.32541
3.77 4.79551
3.78 5.19699
3.79 5.52634
3.8 5.76255
3.81 5.9055
3.82 5.94918
3.83 5.88828
3.84 5.73597
3.85 5.48356
3.86 5.15439
3.87 4.75287
3.88 4.2954
3.89 3.79831
3.9 3.27502
3.91 2.74382
3.92 2.21946
3.93 1.71561
3.94 1.24387
3.95 0.81645
3.96 0.435256
3.97 0.113397
3.98 -0.155649
3.99 -0.367576
4 -0.526568
4.01 -0.639266
4.02 -0.707195
4.03 -0.742863
4.04 -0.749862
4.05 -0.738471
4.06 -0.715124
4.07 -0.686541
4.08 -0.658242
4.09 -0.635237
4.1 -0.61979
4.11 -0.614279
4.12 -0.619046
4.13 -0.633086
4.14 -0.655784
4.15 -0.683956
4.16 -0.715598
4.17 -0.747522
4.18 -0.777138
4.19 -0.801531
4.2 -0.819308
4.21 -0.82746
4.22 -0.826264
4.23 -0.814348
4.24 -0.79192
4.25 -0.759872
4.26 -0.717988
4.27 -0.668547
4.28 -0.611776
4.29 -0.549538
4.3 -0.482806
4.31 -0.412514
4.32 -0.339802
4.33 -0.265037
4.34 -0.189019
4.35 -0.112019
4.36 -0.0344097
4.37 0.0434836
4.38 0.121247
4.39 0.198406
4.4 0.274147
4.41 0.347653
4.42 0.417836
4.43 0.483098
4.44 0.542651
4.45 0.593789
4.46 0.636186
4.47 0.667661
4.48 0.687107
4.49 0.694235
4.5 0.686933
4.51 0.666955
4.52 0.632923
4.53 0.586797
4.54 0.529502
4.55 0.462313
4.56 0.387995
4.57 0.307794
4.58 0.22479
4.59 0.140937
4.6 0.0585584
4.61 -0.0206799
4.62 -0.0945922
4.63 -0.162746
4.64 -0.223559
4.65 -0.277285
4.66 -0.323876
4.67 -0.363506
4.68 -0.397586
4.69 -0.426299
4.7 -0.451504
4.71 -0.474004
4.72 -0.495012
4.73 -0.515445
4.74 -0.536051
4.75 -0.557237
4.76 -0.579268
4.77 -0.601974
4.78 -0.62505
4.79 -0.647923
4.8 -0.670018
4.81 -0.690387
4.82 -0.708576
4.83 -0.723803
4.84 -0.73564
4.85 -0.74403
4.86 -0.748551
4.87 -0.749936
4.88 -0.748255
4.89 -0.744445
4.9 -0.73923
4.91 -0.733534
4.92 -0.728226
4.93 -0.724338
4.94 -0.722395
4.95 -0.723103
4.96 -0.726772
4.97 -0.733345
4.98 -0.743005
4.99 -0.754998
5 -0.769063
5.01 -0.784329
5.02 -0.800122
5.03 -0.815639
5.04 -0.830301
5.05 -0.843332
5.06 -0.854574
5.07 -0.863679
5.08 -0.87068
5.09 -0.875836
5.1 -0.879274
5.11 -0.881582
5.12 -0.883017
5.13 -0.88397
5.14 -0.884576
5.15 -0.88473
5.16 -0.88415
5.17 -0.881916
5.18 -0.877214
5.19 -0.868482
5.2 -0.854009
5.21 -0.832407
5.22 -0.800605
5.23 -0.758158
5.24 -0.701852
5.25 -0.631354
5.26 -0.545571
5.27 -0.443395
5.28 -0.326874
5.29 -0.194882
5.3 -0.0514913
5.31 0.101647
5.32 0.260681
5.33 0.421682
5.34 0.579817
5.35 0.731019
5.36 0.869404
5.37 0.99125
5.38 1.09239
5.39 1.16783
5.4 1.21777
5.41 1.23584
5.42 1.22567
5.43 1.18509
5.44 1.11612
5.45 1.02235
5.46 0.904538
5.47 0.769685
5.48 0.620312
5.49 0.462657
5.5 0.301252
5.51 0.141292
5.52 -0.0133412
5.53 -0.157303
5.54 -0.288867
5.55 -0.404621
5.56 -0.503156
5.57 -0.584726
5.58 -0.647424
5.59 -0.694587
5.6 -0.725704
5.61 -0.744046
5.62 -0.751484
5.63 -0.750038
5.64 -0.742659
5.65 -0.730645
5.66 -0.716303
5.67 -0.700647
5.68 -0.684543
5.69 -0.66829
5.7 -0.651708
5.71 -0.634341
5.72 -0.615238
5.73 -0.593524
5.74 -0.568215
5.75 -0.538109
5.76 -0.503079
5.77 -0.461858
5.78 -0.415306
5.79 -0.363403
5.8 -0.307191
5.81 -0.248072
5.82 -0.187588
5.83 -0.127754
5.84 -0.0708447
5.85 -0.0188501
5.86 0.0262466
5.87 0.0620596
5.88 0.0882144
5.89 0.101869
5.9 0.104146
5.91 0.0939991
5.92 0.0720896
5.93 0.0398529
5.94 -0.00246724
5.95 -0.0519613
5.96 -0.107622
5.97 -0.166921
5.98 -0.228085
5.99 -0.289185
6 -0.3488
6.01 -0.405242
6.02 -0.458046
6.03 -0.506406
6.04 -0.550241
6.05 -0.589977
6.06 -0.625677
6.07 -0.65855
6.08 -0.689085
6.09 -0.718343
6.1 -0.747032
6.11 -0.775817
6.12 -0.805054
6.13 -0.834983
6.14 -0.865374
6.15 -0.895876
6.16 -0.925811
6.17 -0.954489
6.18 -0.980749
6.19 -1.00408
6.2 -1.02327
6.21 -1.03802
6.22 -1.04793
6.23 -1.05271
6.24 -1.05317
6.25 -1.04929
6.26 -1.04258
6.27 -1.03393
6.28 -1.02471
6.29 -1.01612
6.3 -1.00951
6.31 -1.00541
6.32 -1.00455
6.33 -1.0065
6.34 -1.01053
6.35 -1.01499
6.36 -1.01777
6.37 -1.01514
6.38 -1.00413
6.39 -0.979941
6.4 -0.937817
6.41 -0.874469
6.42 -0.782038
6.43 -0.660464
6.44 -0.502279
6.45 -0.307608
6.46 -0.0746711
6.47 0.198616
6.48 0.506668
6.49 0.851852
6.5 1.22452
6.51 1.62095
6.52 2.03268
6.53 2.45102
6.54 2.86585
6.55 3.26803
6.56 3.64519
6.57 3.98871
6.58 4.28934
6.59 4.5353
6.6 4.72595
6.61 4.84582
6.62 4.90084
6.63 4.88405
6.64 4.79688
6.65 4.64543
6.66 4.42675
6.67 4.15583
6.68 3.83398
6.69 3.47446
6.7 3.08608
6.71 2.67884
6.72 2.26416
6.73 1.85224
6.74 1.45214
6.75 1.07304
6.76 0.722483
6.77 0.404169
6.78 0.126978
6.79 -0.112147
6.8 -0.307198
6.81 -0.462013
6.82 -0.577846
6.83 -0.655897
6.84 -0.703693
6.85 -0.72131
6.86 -0.717685
6.87 -0.695938
6.88 -0.661583
6.89 -0.619438
6.9 -0.573143
6.91 -0.526494
6.92 -0.482251
6.93 -0.442285
6.94 -0.407821
6.95 -0.379844
6.96 -0.357717
6.97 -0.341983
6.98 -0.331103
6.99 -0.324644
7 -0.321591
7.01 -0.32102
7.02 -0.322508
7.03 -0.325394
7.04 -0.32972
7.05 -0.335524
7.06 -0.343181
7.07 -0.353441
7.08 -0.366663
7.09 -0.384175
7.1 -0.406094
7.11 -0.433314
7.12 -0.466131
7.13 -0.504285
7.14 -0.548146
7.15 -0.596369
7.16 -0.648549
7.17 -0.703118
7.18 -0.758752
7.19 -0.813737
7.2 -0.866664
7.21 -0.915409
7.22 -0.959107
7.23 -0.996211
7.24 -1.02588
7.25 -1.04809
7.26 -1.06185
7.27 -1.06863
7.28 -1.06831
7.29 -1.06254
7.3 -1.05251
7.31 -1.03959
7.32 -1.02545
7.33 -1.01146
7.34 -0.998767
7.35 -0.988287
7.36 -0.980466
7.37 -0.975114
7.38 -0.971909
7.39 -0.96954
7.4 -0.966504
7.41 -0.960815
7.42 -0.950343
7.43 -0.932115
7.44 -0.904752
7.45 -0.864138
7.46 -0.81001
7.47 -0.739753
7.48 -0.652437
7.49 -0.548714
7.5 -0.426934
7.51 -0.290663
7.52 -0.140056
7.53 0.0210403
7.54 0.189634
7.55 0.361884
7.56 0.533617
7.57 0.699831
7.58 0.856881
7.59 0.999963
7.6 1.12505
7.61 1.23016
7.62 1.30965
7.63 1.36515
7.64 1.39242
7.65 1.39328
7.66 1.36806
7.67 1.31682
7.68 1.24428
7.69 1.15001
7.7 1.0401
7.71 0.916795
7.72 0.784305
7.73 0.646625
7.74 0.507374
7.75 0.370129
7.76 0.238489
7.77 0.114998
7.78 0.00193872
7.79 -0.0979848
7.8 -0.184939
7.81 -0.255798
7.82 -0.312275
7.83 -0.353267
7.84 -0.379376
7.85 -0.392147
7.86 -0.391047
7.87 -0.379178
7.88 -0.356679
7.89 -0.32601
7.9 -0.288713
7.91 -0.246417
7.92 -0.201328
7.93 -0.155075
7.94 -0.109649
7.95 -0.0668548
7.96 -0.0285267
7.97 0.00414864
7.98 0.0287858
7.99 0.0452934
8 0.0515907
8.01 0.0476613
8.02 0.0330502
8.03 0.00706846
8.04 -0.0287841
8.05 -0.0753845
8.06 -0.130311
8.07 -0.192926
8.08 -0.261432
8.09 -0.333862
8.1 -0.408536
8.11 -0.483291
8.12 -0.556186
8.13 -0.625549
8.14 -0.689966
8.15 -0.747844
8.16 -0.799169
8.17 -0.842434
8.18 -0.878724
8.19 -0.907909
8.2 -0.930869
8.21 -0.948885
8.22 -0.962648
8.23 -0.973883
8.24 -0.983408
8.25 -0.992259
8.26 -1.00092
8.27 -1.00945
8.28 -1.01744
8.29 -1.02358
8.3 -1.02646
8.31 -1.02361
8.32 -1.01214
8.33 -0.989746
8.34 -0.951193
8.35 -0.89549
8.36 -0.817165
8.37 -0.714925
8.38 -0.586595
8.39 -0.429112
8.4 -0.245296
8.41 -0.0316663
8.42 0.205958
8.43 0.46636
8.44 0.744665
8.45 1.03493
8.46 1.33148
8.47 1.62676
8.48 1.91284
8.49 2.18239
8.5 2.42829
8.51 2.64126
8.52 2.81916
8.53 2.95036
8.54 3.03693
8.55 3.07299
8.56 3.0578
8.57 2.99495
8.58 2.88061
8.59 2.72525
8.6 2.52876
8.61 2.30036
8.62 2.04625
8.63 1.77318
8.64 1.49015
8.65 1.20401
8.66 0.922368
8.67 0.651893
8.68 0.398671
8.69 0.165855
8.7 -0.0398764
8.71 -0.2201
8.72 -0.370542
8.73 -0.493464
8.74 -0.589868
8.75 -0.660534
8.76 -0.710866
8.77 -0.741335
8.78 -0.758192
8.79 -0.76405
8.8 -0.762953
8.81 -0.758373
8.82 -0.753223
8.83 -0.749877
8.84 -0.750425
8.85 -0.755832
8.86 -0.766654
8.87 -0.783234
8.88 -0.804514
8.89 -0.830295
8.9 -0.858862
8.91 -0.889176
8.92 -0.919792
8.93 -0.949557
8.94 -0.977109
8.95 -1.00193
8.96 -1.02308
8.97 -1.04053
8.98 -1.05427
8.99 -1.06439
9 -1.07177
9.01 -1.07671
9.02 -1.08029
9.03 -1.08319
9.04 -1.08619
9.05 -1.08984
9.06 -1.09469
9.07 -1.10077
9.08 -1.10813
9.09 -1.11634
9.1 -1.12484
9.11 -1.1327
9.12 -1.13908
9.13 -1.14243
9.14 -1.14193
9.15 -1.13611
9.16 -1.12376
9.17 -1.1044
9.18 -1.07622
9.19 -1.03996
9.2 -0.99441
9.21 -0.940395
9.22 -0.878372
9.23 -0.808823
9.24 -0.733668
9.25 -0.653672
9.26 -0.571198
9.27 -0.48791
9.28 -0.406
9.29 -0.327219
9.3 -0.254252
9.31 -0.188052
9.32 -0.13114
9.33 -0.0842817
9.34 -0.0484424
9.35 -0.0250036
9.36 -0.0127969
9.37 -0.0134154
9.38 -0.0246108
9.39 -0.0462034
9.4 -0.0767058
9.41 -0.114121
9.42 -0.157319
9.43 -0.203664
9.44 -0.25153
9.45 -0.29881
9.46 -0.343848
9.47 -0.38475
9.48 -0.4208
9.49 -0.450147
9.5 -0.473056
9.51 -0.488864
9.52 -0.497794
9.53 -0.500753
9.54 -0.4979
9.55 -0.491088
9.56 -0.481142
9.57 -0.469732
9.58 -0.458171
9.59 -0.447967
9.6 -0.44008
9.61 -0.436028
9.62 -0.436096
9.63 -0.441052
9.64 -0.451087
9.65 -0.465796
9.66 -0.485408
9.67 -0.508692
9.68 -0.535347
9.69 -0.564267
9.7 -0.594646
9.71 -0.625644
9.72 -0.656519
9.73 -0.686582
9.74 -0.715502
9.75 -0.742947
9.76 -0.76881
9.77 -0.793206
9.78 -0.816018
9.79 -0.837521
9.8 -0.857498
9.81 -0.875789
9.82 -0.891891
9.83 -0.904647
9.84 -0.913212
9.85 -0.914897
9.86 -0.908272
9.87 -0.890106
9.88 -0.857078
9.89 -0.807116
9.9 -0.733935
9.91 -0.637487
9.92 -0.511619
9.93 -0.355478
9.94 -0.167145
9.95 0.0567248
9.96 0.31228
9.97 0.603394
9.98 0.923187
9.99 1.27013
10 1.6387
10.01 2.02195
10.02 2.41359
10.03 2.80472
10.04 3.18639
10.05 3.54988
10.06 3.88692
10.07 4.18633
10.08 4.44527
10.09 4.64983
10.1 4.80151
10.11 4.89296
10.12 4.92215
10.13 4.89291
10.14 4.79908
10.15 4.65284
10.16 4.45281
10.17 4.20924
10.18 3.92911
10.19 3.61936
10.2 3.29128
10.21 2.95185
10.22 2.61117
10.23 2.27692
10.24 1.95693
10.25 1.65576
10.26 1.38153
10.27 1.13375
10.28 0.917722
10.29 0.731952
10.3 0.575759
10.31 0.448959
10.32 0.345685
10.33 0.265723
10.34 0.202085
10.35 0.151792
10.36 0.110197
10.37 0.0731147
10.38 0.0370745
10.39 -0.000922179
10.4 -0.0434702
10.41 -0.0919057
10.42 -0.146985
10.43 -0.209272
10.44 -0.277491
10.45 -0.35143
10.46 -0.428924
10.47 -0.508573
10.48 -0.588389
10.49 -0.666722
10.5 -0.74142
10.51 -0.811574
10.52 -0.875394
10.53 -0.93237
10.54 -0.981999
10.55 -1.02354
10.56 -1.05793
10.57 -1.08435
10.58 -1.10424
10.59 -1.11767
10.6 -1.12528
10.61 -1.12795
10.62 -1.12556
10.63 -1.11919
10.64 -1.10861
10.65 -1.09427
10.66 -1.07626
10.67 -1.05434
10.68 -1.02895
10.69 -0.999591
10.7 -0.966858
10.71 -0.930746
10.72 -0.891679
10.73 -0.850356
10.74 -0.807313
10.75 -0.763669
10.76 -0.720442
10.77 -0.67884
10.78 -0.640013
10.79 -0.605537
10.8 -0.576
10.81 -0.553366
10.82 -0.537662
10.83 -0.529982
10.84 -0.530728
10.85 -0.539415
10.86 -0.556898
10.87 -0.581456
10.88 -0.613152
10.89 -0.650461
10.9 -0.692256
10.91 -0.737352
10.92 -0.784112
10.93 -0.83126
10.94 -0.877418
10.95 -0.921359
10.96 -0.961955
10.97 -0.998677
10.98 -1.03029
10.99 -1.05714
11 -1.07854
11.01 -1.09492
11.02 -1.10659
11.03 -1.11377
11.04 -1.11754
11.05 -1.11817
11.06 -1.11685
11.07 -1.11423
11.08 -1.11118
11.09 -1.10841
11.1 -1.1067
11.11 -1.10642
11.12 -1.10813
11.13 -1.1119
11.14 -1.11775
11.15 -1.12556
11.16 -1.13471
11.17 -1.14463
11.18 -1.15428
11.19 -1.16246
11.2 -1.16763
11.21 -1.16851
11.22 -1.16237
11.23 -1.14829
11.24 -1.12318
11.25 -1.08554
11.26 -1.03352
11.27 -0.964035
11.28 -0.877566
11.29 -0.770009
11.3 -0.643119
11.31 -0.495334
11.32 -0.327003
11.33 -0.14044
11.34 0.0649449
11.35 0.284139
11.36 0.515577
11.37 0.754453
11.38 0.996651
11.39 1.23695
11.4 1.47083
11.41 1.69142
11.42 1.89503
11.43 2.07573
11.44 2.22852
11.45 2.35176
11.46 2.43764
11.47 2.4893
11.48 2.50136
11.49 2.47619
11.5 2.41488
11.51 2.31728
11.52 2.19031
11.53 2.03372
11.54 1.85582
11.55 1.66021
11.56 1.45283
11.57 1.2395
11.58 1.02559
11.59 0.81603
11.6 0.615938
11.61 0.428712
11.62 0.25705
11.63 0.104346
11.64 -0.0305131
11.65 -0.144482
11.66 -0.240756
11.67 -0.319526
11.68 -0.38295
11.69 -0.434309
11.7 -0.475023
11.71 -0.509312
11.72 -0.539199
11.73 -0.56759
11.74 -0.596461
11.75 -0.627672
11.76 -0.661928
11.77 -0.700199
11.78 -0.741823
11.79 -0.786285
11.8 -0.832204
11.81 -0.877955
11.82 -0.9212
11.83 -0.960168
11.84 -0.992016
11.85 -1.01485
11.86 -1.02684
11.87 -1.02525
11.88 -1.01035
11.89 -0.979014
11.9 -0.932745
11.91 -0.870594
11.92 -0.793055
11.93 -0.702055
11.94 -0.597221
11.95 -0.482151
11.96 -0.357645
11.97 -0.226618
11.98 -0.0913059
11.99 0.045842
12 0.18236
12.01 0.315465
12.02 0.443219
12.03 0.563172
12.04 0.673105
12.05 0.772102
12.06 0.856791
12.07 0.927938
12.08 0.982857
12.09 1.02177
12.1 1.04437
12.11 1.0494
12.12 1.03906
12.13 1.01158
12.14 0.969909
12.15 0.914303
12.16 0.84634
12.17 0.768464
12.18 0.681495
12.19 0.588748
12.2 0.491774
12.21 0.393171
12.22 0.294959
12.23 0.199451
12.24 0.108007
12.25 0.0229662
12.26 -0.0552297
12.27 -0.125365
12.28 -0.186967
12.29 -0.240647
12.3 -0.285722
12.31 -0.324147
12.32 -0.35621
12.33 -0.383648
12.34 -0.407807
12.35 -0.43008
12.36 -0.45194
12.37 -0.474648
12.38 -0.499037
12.39 -0.52577
12.4 -0.555048
12.41 -0.586464
