# xPDFsuite Configuration #
[PDF]
wavelength = 0.1432
dataformat = twotheta
inputfile = 1_1Pd_CeO2_cycle-00258.chi
backgroundfile = background-00000.chi
mode = xray
bgscale = 1.007
composition = CeO2
outputtype = gr
qmaxinst = 28.8974762299
qmin = 0.5
qmax = 27.9
rmax = 50.0
rmin = 0.0
rstep = 0.01
rpoly = 1.8657

[Misc]
inputdir = G:/SankarDec16/1Pd/Chi
savedir = D:/DATA/APS_CeO2/1Pd
backgroundfilefull = G:/SankarDec16/Background/background-00000.chi

#### start data
#S 1
#L r($\AA$)  G($\AA^{-2}$)
0 0
0.01 -0.00620387
0.02 -0.0119411
0.03 -0.0167312
0.04 -0.020212
0.05 -0.0221819
0.06 -0.0223168
0.07 -0.0208317
0.08 -0.0176217
0.09 -0.0130978
0.1 -0.00754404
0.11 -0.00139571
0.12 0.0048717
0.13 0.0107256
0.14 0.0157869
0.15 0.0195927
0.16 0.0218708
0.17 0.0225115
0.18 0.0212923
0.19 0.0185289
0.2 0.0142315
0.21 0.00887885
0.22 0.0028242
0.23 -0.00344401
0.24 -0.00947752
0.25 -0.0147025
0.26 -0.018845
0.27 -0.0214816
0.28 -0.0224425
0.29 -0.0217154
0.3 -0.0191902
0.31 -0.0152684
0.32 -0.0100752
0.33 -0.00413521
0.34 0.00214566
0.35 0.00824802
0.36 0.0137719
0.37 0.0181289
0.38 0.0211633
0.39 0.0225107
0.4 0.0221119
0.41 0.020053
0.42 0.0163417
0.43 0.0114471
0.44 0.00560349
0.45 -0.000642516
0.46 -0.00685136
0.47 -0.0124965
0.48 -0.0172452
0.49 -0.0205222
0.5 -0.0222969
0.51 -0.0222818
0.52 -0.0205314
0.53 -0.0172265
0.54 -0.0124927
0.55 -0.00684522
0.56 -0.000616981
0.57 0.00564869
0.58 0.0114991
0.59 0.016425
0.6 0.0201767
0.61 0.0222188
0.62 0.0226484
0.63 0.0212683
0.64 0.0182449
0.65 0.0138456
0.66 0.00830918
0.67 0.00217294
0.68 -0.00414642
0.69 -0.0101338
0.7 -0.0153445
0.71 -0.0193094
0.72 -0.0218743
0.73 -0.022568
0.74 -0.0216109
0.75 -0.018905
0.76 -0.0147208
0.77 -0.00939972
0.78 -0.00328195
0.79 0.00309806
0.8 0.0092605
0.81 0.014742
0.82 0.0191273
0.83 0.0220091
0.84 0.0233348
0.85 0.0227188
0.86 0.0204917
0.87 0.0166568
0.88 0.0115713
0.89 0.0056301
0.9 -0.000749868
0.91 -0.00706688
0.92 -0.0128138
0.93 -0.0176074
0.94 -0.0210928
0.95 -0.0229578
0.96 -0.0232566
0.97 -0.0217311
0.98 -0.0188006
0.99 -0.0145839
1 -0.00950835
1.01 -0.00399814
1.02 0.00146862
1.03 0.00647091
1.04 0.0105062
1.05 0.0133211
1.06 0.0146666
1.07 0.0143819
1.08 0.0126623
1.09 0.00945998
1.1 0.00529703
1.11 0.000478113
1.12 -0.00446086
1.13 -0.00904234
1.14 -0.012645
1.15 -0.0149556
1.16 -0.0153877
1.17 -0.0138429
1.18 -0.0101512
1.19 -0.00428045
1.2 0.00337328
1.21 0.0127085
1.22 0.022984
1.23 0.0337009
1.24 0.0441255
1.25 0.053632
1.26 0.0613534
1.27 0.0669448
1.28 0.0695748
1.29 0.0691429
1.3 0.0653793
1.31 0.0581527
1.32 0.0479626
1.33 0.0346973
1.34 0.0193203
1.35 0.00224716
1.36 -0.0156911
1.37 -0.0337535
1.38 -0.051069
1.39 -0.0670425
1.4 -0.0807911
1.41 -0.0919602
1.42 -0.100098
1.43 -0.104821
1.44 -0.106393
1.45 -0.104342
1.46 -0.0994205
1.47 -0.0916687
1.48 -0.0816278
1.49 -0.0698338
1.5 -0.0566902
1.51 -0.0428573
1.52 -0.0287619
1.53 -0.014884
1.54 -0.00158489
1.55 0.010779
1.56 0.0220993
1.57 0.0320184
1.58 0.0406581
1.59 0.0478548
1.6 0.0536493
1.61 0.0581156
1.62 0.0611433
1.63 0.0629406
1.64 0.0633531
1.65 0.0625094
1.66 0.060368
1.67 0.0568692
1.68 0.052144
1.69 0.0459926
1.7 0.0386668
1.71 0.0301289
1.72 0.0205505
1.73 0.0101361
1.74 -0.000943357
1.75 -0.0123449
1.76 -0.0237864
1.77 -0.0349283
1.78 -0.0454577
1.79 -0.0550196
1.8 -0.0634835
1.81 -0.0704412
1.82 -0.076012
1.83 -0.0800474
1.84 -0.0826825
1.85 -0.0841376
1.86 -0.0845853
1.87 -0.0844657
1.88 -0.0840958
1.89 -0.0838966
1.9 -0.0842192
1.91 -0.0854351
1.92 -0.0876685
1.93 -0.0912512
1.94 -0.0959944
1.95 -0.101894
1.96 -0.108649
1.97 -0.115888
1.98 -0.123127
1.99 -0.129854
2 -0.135377
2.01 -0.139195
2.02 -0.140737
2.03 -0.13938
2.04 -0.135067
2.05 -0.126983
2.06 -0.115561
2.07 -0.100488
2.08 -0.0820181
2.09 -0.060526
2.1 -0.036073
2.11 -0.00941363
2.12 0.0193178
2.13 0.0495307
2.14 0.0809441
2.15 0.113317
2.16 0.146407
2.17 0.180271
2.18 0.214835
2.19 0.250283
2.2 0.286764
2.21 0.324388
2.22 0.363423
2.23 0.403715
2.24 0.445324
2.25 0.487834
2.26 0.530794
2.27 0.573417
2.28 0.614887
2.29 0.65368
2.3 0.688879
2.31 0.718733
2.32 0.741813
2.33 0.757115
2.34 0.762337
2.35 0.757806
2.36 0.741417
2.37 0.713872
2.38 0.674985
2.39 0.624935
2.4 0.565767
2.41 0.497594
2.42 0.423573
2.43 0.34526
2.44 0.265309
2.45 0.186021
2.46 0.1102
2.47 0.0394887
2.48 -0.0233717
2.49 -0.0775002
2.5 -0.121702
2.51 -0.155032
2.52 -0.178642
2.53 -0.191559
2.54 -0.196458
2.55 -0.194089
2.56 -0.186647
2.57 -0.176226
2.58 -0.164908
2.59 -0.154722
2.6 -0.147745
2.61 -0.14523
2.62 -0.148283
2.63 -0.157765
2.64 -0.173084
2.65 -0.194739
2.66 -0.220907
2.67 -0.250758
2.68 -0.282519
2.69 -0.314551
2.7 -0.34492
2.71 -0.372334
2.72 -0.394955
2.73 -0.412168
2.74 -0.423307
2.75 -0.428024
2.76 -0.427322
2.77 -0.421244
2.78 -0.411816
2.79 -0.400239
2.8 -0.388428
2.81 -0.378007
2.82 -0.371037
2.83 -0.368421
2.84 -0.371895
2.85 -0.381578
2.86 -0.397728
2.87 -0.42015
2.88 -0.447378
2.89 -0.478649
2.9 -0.511637
2.91 -0.544549
2.92 -0.575144
2.93 -0.601677
2.94 -0.621641
2.95 -0.634535
2.96 -0.63839
2.97 -0.633597
2.98 -0.620174
2.99 -0.598704
3 -0.571273
3.01 -0.539029
3.02 -0.504905
3.03 -0.471132
3.04 -0.440371
3.05 -0.414614
3.06 -0.396706
3.07 -0.387063
3.08 -0.387788
3.09 -0.398243
3.1 -0.418229
3.11 -0.446896
3.12 -0.481816
3.13 -0.521535
3.14 -0.562852
3.15 -0.603305
3.16 -0.640117
3.17 -0.671319
3.18 -0.694133
3.19 -0.708446
3.2 -0.712516
3.21 -0.707454
3.22 -0.693992
3.23 -0.673678
3.24 -0.649282
3.25 -0.623256
3.26 -0.598798
3.27 -0.578991
3.28 -0.566705
3.29 -0.563721
3.3 -0.572991
3.31 -0.59372
3.32 -0.627402
3.33 -0.671882
3.34 -0.725602
3.35 -0.785945
3.36 -0.849249
3.37 -0.911745
3.38 -0.969713
3.39 -1.01909
3.4 -1.05654
3.41 -1.08025
3.42 -1.08678
3.43 -1.07787
3.44 -1.0521
3.45 -1.01283
3.46 -0.96252
3.47 -0.904997
3.48 -0.845055
3.49 -0.787846
3.5 -0.737764
3.51 -0.699778
3.52 -0.677455
3.53 -0.672272
3.54 -0.687201
3.55 -0.718822
3.56 -0.766548
3.57 -0.824275
3.58 -0.886283
3.59 -0.944076
3.6 -0.99005
3.61 -1.01112
3.62 -1.00109
3.63 -0.947797
3.64 -0.843095
3.65 -0.683
3.66 -0.455623
3.67 -0.167543
3.68 0.188942
3.69 0.604422
3.7 1.07402
3.71 1.58968
3.72 2.13591
3.73 2.70177
3.74 3.26879
3.75 3.82071
3.76 4.33957
3.77 4.81191
3.78 5.21503
3.79 5.54549
3.8 5.78218
3.81 5.92505
3.82 5.96807
3.83 5.90591
3.84 5.75181
3.85 5.49703
3.86 5.16504
3.87 4.76026
3.88 4.29918
3.89 3.79825
3.9 3.27098
3.91 2.73582
3.92 2.2077
3.93 1.70043
3.94 1.22576
3.95 0.796108
3.96 0.413417
3.97 0.0910402
3.98 -0.177622
3.99 -0.388169
4 -0.544841
4.01 -0.654403
4.02 -0.718442
4.03 -0.749736
4.04 -0.752042
4.05 -0.735916
4.06 -0.708028
4.07 -0.675381
4.08 -0.643649
4.09 -0.618163
4.1 -0.601191
4.11 -0.595273
4.12 -0.600745
4.13 -0.616498
4.14 -0.641903
4.15 -0.673478
4.16 -0.709077
4.17 -0.745205
4.18 -0.779024
4.19 -0.807324
4.2 -0.828528
4.21 -0.839316
4.22 -0.839927
4.23 -0.828838
4.24 -0.806258
4.25 -0.773179
4.26 -0.729421
4.27 -0.67754
4.28 -0.61792
4.29 -0.55271
4.3 -0.483118
4.31 -0.410346
4.32 -0.335678
4.33 -0.259744
4.34 -0.183327
4.35 -0.106786
4.36 -0.0304234
4.37 0.0455808
4.38 0.120941
4.39 0.195464
4.4 0.268572
4.41 0.339717
4.42 0.408053
4.43 0.472243
4.44 0.531564
4.45 0.583558
4.46 0.62776
4.47 0.662006
4.48 0.685007
4.49 0.696241
4.5 0.693341
4.51 0.677723
4.52 0.64766
4.53 0.604813
4.54 0.549823
4.55 0.483672
4.56 0.40912
4.57 0.327132
4.58 0.241049
4.59 0.15285
4.6 0.0651358
4.61 -0.020095
4.62 -0.100311
4.63 -0.174655
4.64 -0.241102
4.65 -0.299553
4.66 -0.349632
4.67 -0.391174
4.68 -0.425615
4.69 -0.452828
4.7 -0.475011
4.71 -0.493016
4.72 -0.508404
4.73 -0.522489
4.74 -0.536432
4.75 -0.551121
4.76 -0.567322
4.77 -0.585251
4.78 -0.604949
4.79 -0.626192
4.8 -0.648349
4.81 -0.670769
4.82 -0.692597
4.83 -0.712946
4.84 -0.730974
4.85 -0.746168
4.86 -0.757612
4.87 -0.765533
4.88 -0.769424
4.89 -0.769839
4.9 -0.76714
4.91 -0.761901
4.92 -0.755105
4.93 -0.747499
4.94 -0.740102
4.95 -0.73378
4.96 -0.72934
4.97 -0.72725
4.98 -0.728279
4.99 -0.73222
5 -0.739467
5.01 -0.749553
5.02 -0.762184
5.03 -0.776933
5.04 -0.793056
5.05 -0.81008
5.06 -0.827273
5.07 -0.844098
5.08 -0.860032
5.09 -0.874751
5.1 -0.88775
5.11 -0.899025
5.12 -0.908138
5.13 -0.915059
5.14 -0.919528
5.15 -0.921065
5.16 -0.919568
5.17 -0.913828
5.18 -0.903637
5.19 -0.887648
5.2 -0.864737
5.21 -0.834116
5.22 -0.793375
5.23 -0.742656
5.24 -0.679444
5.25 -0.60381
5.26 -0.51503
5.27 -0.412338
5.28 -0.297562
5.29 -0.169808
5.3 -0.0325098
5.31 0.112952
5.32 0.263348
5.33 0.415369
5.34 0.564888
5.35 0.708395
5.36 0.840729
5.37 0.958525
5.38 1.05795
5.39 1.13434
5.4 1.18758
5.41 1.21149
5.42 1.209
5.43 1.17763
5.44 1.1187
5.45 1.03517
5.46 0.927021
5.47 0.800714
5.48 0.658013
5.49 0.504818
5.5 0.345329
5.51 0.184452
5.52 0.0263962
5.53 -0.12367
5.54 -0.263269
5.55 -0.388646
5.56 -0.497692
5.57 -0.589995
5.58 -0.662881
5.59 -0.719132
5.6 -0.757488
5.61 -0.780889
5.62 -0.790886
5.63 -0.789222
5.64 -0.779178
5.65 -0.761891
5.66 -0.740406
5.67 -0.716073
5.68 -0.690439
5.69 -0.664442
5.7 -0.638632
5.71 -0.613074
5.72 -0.587517
5.73 -0.561382
5.74 -0.53397
5.75 -0.504317
5.76 -0.471969
5.77 -0.435782
5.78 -0.395923
5.79 -0.352039
5.8 -0.304541
5.81 -0.254247
5.82 -0.202027
5.83 -0.149448
5.84 -0.0981643
5.85 -0.0499296
5.86 -0.00650405
5.87 0.0298987
5.88 0.058582
5.89 0.0767606
5.9 0.0849228
5.91 0.0816967
5.92 0.0671706
5.93 0.0422711
5.94 0.00664687
5.95 -0.0371427
5.96 -0.0886084
5.97 -0.14537
5.98 -0.205798
5.99 -0.268046
6 -0.330367
6.01 -0.39104
6.02 -0.449034
6.03 -0.50321
6.04 -0.552983
6.05 -0.598356
6.06 -0.638872
6.07 -0.675513
6.08 -0.708358
6.09 -0.738424
6.1 -0.766368
6.11 -0.792871
6.12 -0.818629
6.13 -0.844008
6.14 -0.86928
6.15 -0.894428
6.16 -0.919211
6.17 -0.94327
6.18 -0.965874
6.19 -0.986612
6.2 -1.00457
6.21 -1.01937
6.22 -1.03058
6.23 -1.03778
6.24 -1.04144
6.25 -1.04131
6.26 -1.0385
6.27 -1.03355
6.28 -1.0275
6.29 -1.02133
6.3 -1.01607
6.31 -1.0123
6.32 -1.01063
6.33 -1.01081
6.34 -1.01229
6.35 -1.0137
6.36 -1.01326
6.37 -1.00761
6.38 -0.994124
6.39 -0.968332
6.4 -0.925739
6.41 -0.86314
6.42 -0.772895
6.43 -0.654689
6.44 -0.501027
6.45 -0.311653
6.46 -0.084452
6.47 0.183116
6.48 0.485878
6.49 0.826785
6.5 1.19646
6.51 1.59162
6.52 2.00403
6.53 2.42498
6.54 2.84456
6.55 3.25318
6.56 3.63835
6.57 3.99089
6.58 4.30104
6.59 4.55643
6.6 4.75585
6.61 4.8831
6.62 4.94375
6.63 4.93032
6.64 4.84395
6.65 4.69077
6.66 4.46756
6.67 4.18988
6.68 3.85913
6.69 3.48928
6.7 3.08967
6.71 2.67101
6.72 2.24536
6.73 1.82376
6.74 1.41568
6.75 1.03091
6.76 0.677342
6.77 0.358671
6.78 0.0841143
6.79 -0.149965
6.8 -0.337609
6.81 -0.48335
6.82 -0.588985
6.83 -0.656398
6.84 -0.693786
6.85 -0.702013
6.86 -0.690469
6.87 -0.662862
6.88 -0.625047
6.89 -0.581871
6.9 -0.537282
6.91 -0.494543
6.92 -0.456356
6.93 -0.423945
6.94 -0.398022
6.95 -0.378929
6.96 -0.365413
6.97 -0.357286
6.98 -0.352607
6.99 -0.350418
7 -0.349414
7.01 -0.348674
7.02 -0.347532
7.03 -0.345843
7.04 -0.343749
7.05 -0.341903
7.06 -0.341177
7.07 -0.342935
7.08 -0.348085
7.09 -0.358651
7.1 -0.375075
7.11 -0.398725
7.12 -0.430127
7.13 -0.468978
7.14 -0.515844
7.15 -0.568864
7.16 -0.627514
7.17 -0.689641
7.18 -0.753453
7.19 -0.816667
7.2 -0.877383
7.21 -0.93285
7.22 -0.981935
7.23 -1.02268
7.24 -1.05407
7.25 -1.07615
7.26 -1.08777
7.27 -1.09087
7.28 -1.08548
7.29 -1.07375
7.3 -1.05726
7.31 -1.03792
7.32 -1.01776
7.33 -0.998677
7.34 -0.982016
7.35 -0.969006
7.36 -0.960201
7.37 -0.955329
7.38 -0.954136
7.39 -0.954912
7.4 -0.956009
7.41 -0.955019
7.42 -0.94948
7.43 -0.936032
7.44 -0.91301
7.45 -0.875914
7.46 -0.824382
7.47 -0.755602
7.48 -0.668619
7.49 -0.564192
7.5 -0.440682
7.51 -0.301973
7.52 -0.148368
7.53 0.015981
7.54 0.187851
7.55 0.36315
7.56 0.537562
7.57 0.705882
7.58 0.864477
7.59 1.00851
7.6 1.13403
7.61 1.2392
7.62 1.31849
7.63 1.37375
7.64 1.40092
7.65 1.40195
7.66 1.37727
7.67 1.32704
7.68 1.25591
7.69 1.16343
7.7 1.05548
7.71 0.93411
7.72 0.803278
7.73 0.666751
7.74 0.52778
7.75 0.389844
7.76 0.256234
7.77 0.129485
7.78 0.0118636
7.79 -0.0938939
7.8 -0.187634
7.81 -0.266049
7.82 -0.330365
7.83 -0.379067
7.84 -0.412236
7.85 -0.431019
7.86 -0.434231
7.87 -0.424846
7.88 -0.402474
7.89 -0.369582
7.9 -0.327681
7.91 -0.278413
7.92 -0.2245
7.93 -0.167737
7.94 -0.110878
7.95 -0.0562576
7.96 -0.0064375
7.97 0.0368076
7.98 0.07025
7.99 0.0935163
8 0.103821
8.01 0.101057
8.02 0.0846519
8.03 0.0538314
8.04 0.0106584
8.05 -0.0456739
8.06 -0.11186
8.07 -0.186728
8.08 -0.267674
8.09 -0.352041
8.1 -0.43726
8.11 -0.520751
8.12 -0.599808
8.13 -0.672567
8.14 -0.737429
8.15 -0.792636
8.16 -0.838695
8.17 -0.874094
8.18 -0.900787
8.19 -0.919128
8.2 -0.93078
8.21 -0.937714
8.22 -0.941455
8.23 -0.944185
8.24 -0.947446
8.25 -0.952492
8.26 -0.960002
8.27 -0.970199
8.28 -0.982204
8.29 -0.994729
8.3 -1.00554
8.31 -1.01175
8.32 -1.00973
8.33 -0.99656
8.34 -0.966241
8.35 -0.917388
8.36 -0.843888
8.37 -0.744278
8.38 -0.616241
8.39 -0.456608
8.4 -0.268647
8.41 -0.0489379
8.42 0.195977
8.43 0.464433
8.44 0.750898
8.45 1.04888
8.46 1.35201
8.47 1.65243
8.48 1.94167
8.49 2.2123
8.5 2.45715
8.51 2.66691
8.52 2.83991
8.53 2.96468
8.54 3.04394
8.55 3.07229
8.56 3.0496
8.57 2.97995
8.58 2.86013
8.59 2.70083
8.6 2.5024
8.61 2.27403
8.62 2.02192
8.63 1.75274
8.64 1.47501
8.65 1.19534
8.66 0.920694
8.67 0.657267
8.68 0.41057
8.69 0.183346
8.7 -0.0183173
8.71 -0.196075
8.72 -0.346026
8.73 -0.47032
8.74 -0.569849
8.75 -0.645211
8.76 -0.701297
8.77 -0.738226
8.78 -0.761639
8.79 -0.773642
8.8 -0.777731
8.81 -0.777041
8.82 -0.773923
8.83 -0.770805
8.84 -0.769481
8.85 -0.771153
8.86 -0.776586
8.87 -0.786432
8.88 -0.800209
8.89 -0.818209
8.9 -0.839335
8.91 -0.863136
8.92 -0.888732
8.93 -0.915278
8.94 -0.942017
8.95 -0.968268
8.96 -0.993385
8.97 -1.01699
8.98 -1.03882
8.99 -1.05856
9 -1.07642
9.01 -1.09214
9.02 -1.10609
9.03 -1.11829
9.04 -1.12889
9.05 -1.13808
9.06 -1.14573
9.07 -1.15203
9.08 -1.15666
9.09 -1.15954
9.1 -1.16035
9.11 -1.15854
9.12 -1.15396
9.13 -1.14561
9.14 -1.13341
9.15 -1.11657
9.16 -1.09456
9.17 -1.06731
9.18 -1.03373
9.19 -0.994498
9.2 -0.948843
9.21 -0.897342
9.22 -0.840276
9.23 -0.777897
9.24 -0.711461
9.25 -0.641366
9.26 -0.56922
9.27 -0.496125
9.28 -0.423633
9.29 -0.353066
9.3 -0.28645
9.31 -0.224691
9.32 -0.169884
9.33 -0.122906
9.34 -0.0848018
9.35 -0.0570636
9.36 -0.0390423
9.37 -0.0325415
9.38 -0.0359425
9.39 -0.049483
9.4 -0.0721919
9.41 -0.10245
9.42 -0.139638
9.43 -0.181237
9.44 -0.225975
9.45 -0.271726
9.46 -0.316821
9.47 -0.35934
9.48 -0.398216
9.49 -0.431501
9.5 -0.459013
9.51 -0.479819
9.52 -0.493784
9.53 -0.501536
9.54 -0.502894
9.55 -0.499589
9.56 -0.492204
9.57 -0.482387
9.58 -0.471438
9.59 -0.460858
9.6 -0.451814
9.61 -0.445862
9.62 -0.443564
9.63 -0.445846
9.64 -0.453117
9.65 -0.46515
9.66 -0.482378
9.67 -0.503664
9.68 -0.528861
9.69 -0.556896
9.7 -0.58699
9.71 -0.618329
9.72 -0.650066
9.73 -0.681515
9.74 -0.712189
9.75 -0.741682
9.76 -0.769763
9.77 -0.796429
9.78 -0.821443
9.79 -0.844981
9.8 -0.866707
9.81 -0.886385
9.82 -0.903442
9.83 -0.916624
9.84 -0.925103
9.85 -0.926072
9.86 -0.918174
9.87 -0.898144
9.88 -0.862697
9.89 -0.809845
9.9 -0.733331
9.91 -0.633266
9.92 -0.503593
9.93 -0.343626
9.94 -0.151601
9.95 0.0756197
9.96 0.334061
9.97 0.627325
9.98 0.948469
9.99 1.29578
10 1.66365
10.01 2.04514
10.02 2.43384
10.03 2.8211
10.04 3.19797
10.05 3.556
10.06 3.88714
10.07 4.18052
10.08 4.43359
10.09 4.63284
10.1 4.78001
10.11 4.86809
10.12 4.8953
10.13 4.86553
10.14 4.77291
10.15 4.62939
10.16 4.43365
10.17 4.19562
10.18 3.92201
10.19 3.6194
10.2 3.29864
10.21 2.96623
10.22 2.63185
10.23 2.30272
10.24 1.98627
10.25 1.68692
10.26 1.41234
10.27 1.1623
10.28 0.941936
10.29 0.750118
10.3 0.586473
10.31 0.451215
10.32 0.339057
10.33 0.250346
10.34 0.178655
10.35 0.121585
10.36 0.0750124
10.37 0.0349877
10.38 -0.0013808
10.39 -0.037348
10.4 -0.0752672
10.41 -0.116866
10.42 -0.16324
10.43 -0.215387
10.44 -0.272738
10.45 -0.335708
10.46 -0.402841
10.47 -0.47343
10.48 -0.546141
10.49 -0.619649
10.5 -0.692528
10.51 -0.763627
10.52 -0.831501
10.53 -0.895239
10.54 -0.953994
10.55 -1.00658
10.56 -1.05314
10.57 -1.09218
10.58 -1.12431
10.59 -1.14881
10.6 -1.16555
10.61 -1.175
10.62 -1.17619
10.63 -1.17037
10.64 -1.1569
10.65 -1.13659
10.66 -1.10984
10.67 -1.07684
10.68 -1.03891
10.69 -0.996178
10.7 -0.950208
10.71 -0.901818
10.72 -0.852297
10.73 -0.802847
10.74 -0.754948
10.75 -0.7096
10.76 -0.668353
10.77 -0.632094
10.78 -0.601687
10.79 -0.578355
10.8 -0.561774
10.81 -0.553312
10.82 -0.551969
10.83 -0.557994
10.84 -0.570862
10.85 -0.589507
10.86 -0.613772
10.87 -0.64196
10.88 -0.673517
10.89 -0.707154
10.9 -0.741952
10.91 -0.776983
10.92 -0.811507
10.93 -0.844734
10.94 -0.876341
10.95 -0.905907
10.96 -0.933241
10.97 -0.95845
10.98 -0.981306
10.99 -1.00227
11 -1.02129
11.01 -1.0387
11.02 -1.05469
11.03 -1.06935
11.04 -1.08293
11.05 -1.09538
11.06 -1.10688
11.07 -1.11738
11.08 -1.12688
11.09 -1.13544
11.1 -1.14294
11.11 -1.14952
11.12 -1.15511
11.13 -1.15981
11.14 -1.16365
11.15 -1.16655
11.16 -1.16856
11.17 -1.16932
11.18 -1.16866
11.19 -1.16596
11.2 -1.16042
11.21 -1.15133
11.22 -1.13675
11.23 -1.116
11.24 -1.08655
11.25 -1.04695
11.26 -0.995356
11.27 -0.928715
11.28 -0.846991
11.29 -0.74595
11.3 -0.626651
11.31 -0.487093
11.32 -0.327036
11.33 -0.148316
11.34 0.0502528
11.35 0.263882
11.36 0.491441
11.37 0.728183
11.38 0.970012
11.39 1.21172
11.4 1.44841
11.41 1.67309
11.42 1.88156
11.43 2.06753
11.44 2.22555
11.45 2.35362
11.46 2.44349
11.47 2.49814
11.48 2.51185
11.49 2.48698
11.5 2.42463
11.51 2.32465
11.52 2.19429
11.53 2.03343
11.54 1.85079
11.55 1.65026
11.56 1.43816
11.57 1.22061
11.58 1.00336
11.59 0.791457
11.6 0.590312
11.61 0.403341
11.62 0.233247
11.63 0.0834491
11.64 -0.0474439
11.65 -0.156433
11.66 -0.247079
11.67 -0.319795
11.68 -0.377049
11.69 -0.422386
11.7 -0.457555
11.71 -0.486936
11.72 -0.512832
11.73 -0.538249
11.74 -0.565249
11.75 -0.595823
11.76 -0.630529
11.77 -0.670453
11.78 -0.714691
11.79 -0.762668
11.8 -0.812836
11.81 -0.863359
11.82 -0.911761
11.83 -0.956031
11.84 -0.993147
11.85 -1.02102
11.86 -1.03765
11.87 -1.04009
11.88 -1.02855
11.89 -0.999652
11.9 -0.954911
11.91 -0.893246
11.92 -0.815108
11.93 -0.722495
11.94 -0.614927
11.95 -0.496234
11.96 -0.367231
11.97 -0.231058
11.98 -0.0901406
11.99 0.0528359
12 0.195137
12.01 0.333659
12.02 0.466214
12.03 0.590041
12.04 0.702635
12.05 0.802969
12.06 0.887288
12.07 0.956506
12.08 1.00773
12.09 1.04136
12.1 1.05726
12.11 1.05432
12.12 1.03521
12.13 0.998444
12.14 0.947501
12.15 0.883085
12.16 0.8073
12.17 0.72293
12.18 0.631449
12.19 0.536212
12.2 0.439249
12.21 0.343129
12.22 0.249847
12.23 0.161729
12.24 0.0796061
12.25 0.00568552
12.26 -0.0603075
12.27 -0.11764
12.28 -0.166512
12.29 -0.208102
12.3 -0.242525
12.31 -0.272071
12.32 -0.29772
12.33 -0.321436
12.34 -0.344753
12.35 -0.369344
12.36 -0.396244
12.37 -0.426871
12.38 -0.461325
12.39 -0.499919
12.4 -0.542213
