# xPDFsuite Configuration #
[PDF]
wavelength = 0.1432
dataformat = twotheta
inputfile = 1_1Pd_CeO2_cycle-00156.chi
backgroundfile = background-00000.chi
mode = xray
bgscale = 1.007
composition = CeO2
outputtype = gr
qmaxinst = 28.8974762299
qmin = 0.5
qmax = 27.9
rmax = 50.0
rmin = 0.0
rstep = 0.01
rpoly = 1.8657

[Misc]
inputdir = G:/SankarDec16/1Pd/Chi
savedir = D:/DATA/APS_CeO2/1Pd
backgroundfilefull = G:/SankarDec16/Background/background-00000.chi

#### start data
#S 1
#L r($\AA$)  G($\AA^{-2}$)
0 0
0.01 -0.00752956
0.02 -0.014493
0.03 -0.0203074
0.04 -0.0245333
0.05 -0.0269262
0.06 -0.0270923
0.07 -0.0252925
0.08 -0.0213993
0.09 -0.015911
0.1 -0.00917192
0.11 -0.00170986
0.12 0.00589821
0.13 0.0130063
0.14 0.0191543
0.15 0.0237803
0.16 0.0265533
0.17 0.02734
0.18 0.0258695
0.19 0.0225241
0.2 0.0173154
0.21 0.0108236
0.22 0.00347687
0.23 -0.00413268
0.24 -0.0114608
0.25 -0.0178117
0.26 -0.022852
0.27 -0.0260672
0.28 -0.0272501
0.29 -0.026385
0.3 -0.0233365
0.31 -0.018591
0.32 -0.0122986
0.33 -0.00509546
0.34 0.00252675
0.35 0.00993827
0.36 0.0166531
0.37 0.0219575
0.38 0.0256606
0.39 0.0273194
0.4 0.0268601
0.41 0.0243856
0.42 0.019903
0.43 0.0139803
0.44 0.00689979
0.45 -0.000675906
0.46 -0.00821415
0.47 -0.0150763
0.48 -0.0208574
0.49 -0.0248591
0.5 -0.027042
0.51 -0.0270554
0.52 -0.0249629
0.53 -0.0209818
0.54 -0.0152619
0.55 -0.00842671
0.56 -0.000877935
0.57 0.00672541
0.58 0.0138347
0.59 0.0198316
0.6 0.0244116
0.61 0.0269241
0.62 0.0274835
0.63 0.0258484
0.64 0.0222172
0.65 0.0169119
0.66 0.0102186
0.67 0.00278801
0.68 -0.00487738
0.69 -0.0121524
0.7 -0.0184983
0.71 -0.0233454
0.72 -0.0265042
0.73 -0.0274022
0.74 -0.0263025
0.75 -0.023084
0.76 -0.0180706
0.77 -0.0116737
0.78 -0.00430154
0.79 0.00339929
0.8 0.0108511
0.81 0.0174929
0.82 0.022823
0.83 0.0263499
0.84 0.0280088
0.85 0.0273367
0.86 0.0247322
0.87 0.0202024
0.88 0.0141814
0.89 0.00714848
0.9 -0.000386214
0.91 -0.00781685
0.92 -0.0145237
0.93 -0.020045
0.94 -0.023951
0.95 -0.0258661
0.96 -0.0258639
0.97 -0.0236392
0.98 -0.0197148
0.99 -0.014252
1 -0.00779125
1.01 -0.000868416
1.02 0.00589697
1.03 0.0119778
1.04 0.0167121
1.05 0.0197735
1.06 0.0208237
1.07 0.019628
1.08 0.0164295
1.09 0.0111073
1.1 0.00434003
1.11 -0.00352222
1.12 -0.0117946
1.13 -0.0198513
1.14 -0.0268968
1.15 -0.0324594
1.16 -0.0357432
1.17 -0.0365207
1.18 -0.0344728
1.19 -0.0294148
1.2 -0.02175
1.21 -0.011379
1.22 0.000815082
1.23 0.0143978
1.24 0.0285424
1.25 0.0425067
1.26 0.0553661
1.27 0.0665562
1.28 0.0751417
1.29 0.0808152
1.3 0.0831471
1.31 0.0818134
1.32 0.0771831
1.33 0.0689024
1.34 0.0578759
1.35 0.0443266
1.36 0.028989
1.37 0.0125557
1.38 -0.00428433
1.39 -0.0208293
1.4 -0.036359
1.41 -0.0503944
1.42 -0.0624727
1.43 -0.072164
1.44 -0.0795302
1.45 -0.0840805
1.46 -0.0862727
1.47 -0.0859992
1.48 -0.0835465
1.49 -0.0792234
1.5 -0.0731328
1.51 -0.0657522
1.52 -0.0571702
1.53 -0.0477295
1.54 -0.037591
1.55 -0.0269167
1.56 -0.015893
1.57 -0.00462084
1.58 0.00671897
1.59 0.0179706
1.6 0.0289249
1.61 0.0393776
1.62 0.0489569
1.63 0.0574755
1.64 0.0644174
1.65 0.0695548
1.66 0.07251
1.67 0.0728594
1.68 0.0706461
1.69 0.0652526
1.7 0.0571224
1.71 0.0460895
1.72 0.0325085
1.73 0.0168432
1.74 -0.000526015
1.75 -0.0187752
1.76 -0.037257
1.77 -0.0551617
1.78 -0.0717598
1.79 -0.0862262
1.8 -0.0982408
1.81 -0.106861
1.82 -0.112331
1.83 -0.114286
1.84 -0.112999
1.85 -0.108939
1.86 -0.10245
1.87 -0.0945251
1.88 -0.0858507
1.89 -0.0774114
1.9 -0.0700416
1.91 -0.0646726
1.92 -0.0617026
1.93 -0.0620996
1.94 -0.0656082
1.95 -0.0725207
1.96 -0.0824439
1.97 -0.0947701
1.98 -0.108893
1.99 -0.123691
2 -0.138118
2.01 -0.151035
2.02 -0.161347
2.03 -0.167806
2.04 -0.17001
2.05 -0.166444
2.06 -0.157545
2.07 -0.142643
2.08 -0.122041
2.09 -0.0963253
2.1 -0.0656352
2.11 -0.0313544
2.12 0.00605307
2.13 0.0453282
2.14 0.0856495
2.15 0.126135
2.16 0.166153
2.17 0.205053
2.18 0.24272
2.19 0.278971
2.2 0.313981
2.21 0.348061
2.22 0.381549
2.23 0.414921
2.24 0.448569
2.25 0.482748
2.26 0.517555
2.27 0.552851
2.28 0.588211
2.29 0.622822
2.3 0.655805
2.31 0.68577
2.32 0.711256
2.33 0.731044
2.34 0.742747
2.35 0.746054
2.36 0.73851
2.37 0.720139
2.38 0.690197
2.39 0.648212
2.4 0.595846
2.41 0.532495
2.42 0.461303
2.43 0.383471
2.44 0.301704
2.45 0.218531
2.46 0.13686
2.47 0.0589796
2.48 -0.0120099
2.49 -0.0745523
2.5 -0.126906
2.51 -0.167486
2.52 -0.197088
2.53 -0.214059
2.54 -0.221087
2.55 -0.218615
2.56 -0.208928
2.57 -0.194377
2.58 -0.177205
2.59 -0.160079
2.6 -0.145486
2.61 -0.135329
2.62 -0.131261
2.63 -0.134763
2.64 -0.145544
2.65 -0.164756
2.66 -0.190482
2.67 -0.222137
2.68 -0.257783
2.69 -0.295458
2.7 -0.332973
2.71 -0.368368
2.72 -0.399303
2.73 -0.424498
2.74 -0.44271
2.75 -0.452939
2.76 -0.455936
2.77 -0.451052
2.78 -0.4405
2.79 -0.425254
2.8 -0.407465
2.81 -0.389151
2.82 -0.372684
2.83 -0.359719
2.84 -0.35256
2.85 -0.35205
2.86 -0.359082
2.87 -0.374167
2.88 -0.396104
2.89 -0.424893
2.9 -0.457993
2.91 -0.493872
2.92 -0.530046
2.93 -0.564359
2.94 -0.59401
2.95 -0.617698
2.96 -0.632901
2.97 -0.639246
2.98 -0.636108
2.99 -0.623352
3 -0.602762
3.01 -0.574736
3.02 -0.542378
3.03 -0.50765
3.04 -0.473429
3.05 -0.442092
3.06 -0.416752
3.07 -0.39859
3.08 -0.390224
3.09 -0.391745
3.1 -0.403557
3.11 -0.425483
3.12 -0.455374
3.13 -0.492462
3.14 -0.533378
3.15 -0.575884
3.16 -0.616979
3.17 -0.654316
3.18 -0.684817
3.19 -0.707657
3.2 -0.720561
3.21 -0.72396
3.22 -0.718004
3.23 -0.703597
3.24 -0.683274
3.25 -0.658816
3.26 -0.633628
3.27 -0.610584
3.28 -0.592795
3.29 -0.582432
3.3 -0.582742
3.31 -0.593649
3.32 -0.617167
3.33 -0.651819
3.34 -0.696622
3.35 -0.749602
3.36 -0.807339
3.37 -0.866746
3.38 -0.923922
3.39 -0.975042
3.4 -1.01658
3.41 -1.04638
3.42 -1.06079
3.43 -1.06084
3.44 -1.04471
3.45 -1.01509
3.46 -0.973938
3.47 -0.924474
3.48 -0.871216
3.49 -0.818698
3.5 -0.771391
3.51 -0.734
3.52 -0.71019
3.53 -0.701678
3.54 -0.711533
3.55 -0.736892
3.56 -0.777435
3.57 -0.827588
3.58 -0.882029
3.59 -0.932713
3.6 -0.972304
3.61 -0.988169
3.62 -0.974127
3.63 -0.918243
3.64 -0.812353
3.65 -0.652353
3.66 -0.426344
3.67 -0.140564
3.68 0.212803
3.69 0.624665
3.7 1.09036
3.71 1.60205
3.72 2.14444
3.73 2.70674
3.74 3.27056
3.75 3.81968
3.76 4.33616
3.77 4.80648
3.78 5.20791
3.79 5.5369
3.8 5.77231
3.81 5.91399
3.82 5.95589
3.83 5.89266
3.84 5.73757
3.85 5.48194
3.86 5.14928
3.87 4.74414
3.88 4.28311
3.89 3.78268
3.9 3.25653
3.91 2.72306
3.92 2.19727
3.93 1.69289
3.94 1.22159
3.95 0.795646
3.96 0.416822
3.97 0.0982551
3.98 -0.166868
3.99 -0.374392
4 -0.528771
4.01 -0.636897
4.02 -0.700601
4.03 -0.73258
4.04 -0.736726
4.05 -0.723418
4.06 -0.69921
4.07 -0.670907
4.08 -0.643882
4.09 -0.623189
4.1 -0.610774
4.11 -0.608859
4.12 -0.617491
4.13 -0.635396
4.14 -0.661639
4.15 -0.692834
4.16 -0.726677
4.17 -0.75988
4.18 -0.78975
4.19 -0.813307
4.2 -0.829328
4.21 -0.834803
4.22 -0.830341
4.23 -0.814768
4.24 -0.788607
4.25 -0.753026
4.26 -0.70816
4.27 -0.656455
4.28 -0.598443
4.29 -0.536039
4.3 -0.470284
4.31 -0.402124
4.32 -0.332469
4.33 -0.261614
4.34 -0.189975
4.35 -0.117553
4.36 -0.0443527
4.37 0.0296048
4.38 0.104323
4.39 0.179464
4.4 0.254562
4.41 0.328804
4.42 0.401146
4.43 0.469963
4.44 0.534163
4.45 0.590924
4.46 0.639447
4.47 0.677225
4.48 0.702709
4.49 0.71526
4.5 0.712279
4.51 0.695376
4.52 0.662774
4.53 0.616445
4.54 0.557268
4.55 0.486552
4.56 0.407416
4.57 0.321229
4.58 0.231606
4.59 0.140856
4.6 0.0517856
4.61 -0.0335575
4.62 -0.112472
4.63 -0.184365
4.64 -0.247244
4.65 -0.301372
4.66 -0.346664
4.67 -0.383338
4.68 -0.413174
4.69 -0.436496
4.7 -0.455713
4.71 -0.471996
4.72 -0.487047
4.73 -0.502162
4.74 -0.518601
4.75 -0.536908
4.76 -0.557734
4.77 -0.58087
4.78 -0.60601
4.79 -0.632495
4.8 -0.659358
4.81 -0.685448
4.82 -0.709766
4.83 -0.731126
4.84 -0.748608
4.85 -0.761793
4.86 -0.769744
4.87 -0.773116
4.88 -0.771612
4.89 -0.766274
4.9 -0.757873
4.91 -0.747485
4.92 -0.736416
4.93 -0.72597
4.94 -0.717237
4.95 -0.711372
4.96 -0.709188
4.97 -0.710977
4.98 -0.717448
4.99 -0.727869
5 -0.742319
5.01 -0.759761
5.02 -0.779414
5.03 -0.800264
5.04 -0.821242
5.05 -0.841227
5.06 -0.859477
5.07 -0.875154
5.08 -0.887779
5.09 -0.897278
5.1 -0.903254
5.11 -0.906344
5.12 -0.906499
5.13 -0.904358
5.14 -0.900232
5.15 -0.894319
5.16 -0.886878
5.17 -0.877447
5.18 -0.865809
5.19 -0.850961
5.2 -0.831719
5.21 -0.807007
5.22 -0.774299
5.23 -0.733005
5.24 -0.680187
5.25 -0.615156
5.26 -0.536556
5.27 -0.442862
5.28 -0.335485
5.29 -0.212701
5.3 -0.0779243
5.31 0.0678658
5.32 0.22141
5.33 0.379109
5.34 0.536767
5.35 0.69009
5.36 0.833514
5.37 0.962865
5.38 1.07365
5.39 1.16041
5.4 1.22255
5.41 1.25305
5.42 1.25472
5.43 1.22465
5.44 1.16414
5.45 1.07638
5.46 0.961376
5.47 0.826341
5.48 0.673384
5.49 0.509202
5.5 0.338635
5.51 0.167352
5.52 7.09723e-05
5.53 -0.157213
5.54 -0.301874
5.55 -0.429703
5.56 -0.538517
5.57 -0.628097
5.58 -0.695728
5.59 -0.744886
5.6 -0.774591
5.61 -0.788516
5.62 -0.788792
5.63 -0.777856
5.64 -0.759483
5.65 -0.735556
5.66 -0.70929
5.67 -0.682461
5.68 -0.656703
5.69 -0.632803
5.7 -0.611362
5.71 -0.591833
5.72 -0.573727
5.73 -0.555814
5.74 -0.536879
5.75 -0.51534
5.76 -0.4903
5.77 -0.459953
5.78 -0.424308
5.79 -0.382634
5.8 -0.335261
5.81 -0.283144
5.82 -0.227107
5.83 -0.169257
5.84 -0.111465
5.85 -0.0560601
5.86 -0.00525891
5.87 0.0381773
5.88 0.0731642
5.89 0.0963332
5.9 0.108037
5.91 0.106581
5.92 0.0919864
5.93 0.0653114
5.94 0.0261768
5.95 -0.0223726
5.96 -0.0796412
5.97 -0.142734
5.98 -0.209605
5.99 -0.277913
6 -0.345569
6.01 -0.410317
6.02 -0.471014
6.03 -0.526226
6.04 -0.575308
6.05 -0.618388
6.06 -0.654976
6.07 -0.686503
6.08 -0.713231
6.09 -0.736653
6.1 -0.757809
6.11 -0.777839
6.12 -0.797768
6.13 -0.818468
6.14 -0.840338
6.15 -0.863664
6.16 -0.888293
6.17 -0.913784
6.18 -0.939498
6.19 -0.964626
6.2 -0.988149
6.21 -1.00927
6.22 -1.02723
6.23 -1.04122
6.24 -1.05137
6.25 -1.05702
6.26 -1.05906
6.27 -1.05775
6.28 -1.05399
6.29 -1.04875
6.3 -1.04291
6.31 -1.03733
6.32 -1.03263
6.33 -1.02887
6.34 -1.02573
6.35 -1.02211
6.36 -1.01654
6.37 -1.00598
6.38 -0.988018
6.39 -0.958449
6.4 -0.912963
6.41 -0.848424
6.42 -0.757387
6.43 -0.639397
6.44 -0.487045
6.45 -0.299894
6.46 -0.0757126
6.47 0.188183
6.48 0.486863
6.49 0.823438
6.5 1.18877
6.51 1.57977
6.52 1.98838
6.53 2.40603
6.54 2.82302
6.55 3.22975
6.56 3.61388
6.57 3.9662
6.58 4.27695
6.59 4.53376
6.6 4.73528
6.61 4.8653
6.62 4.92922
6.63 4.91943
6.64 4.83696
6.65 4.68776
6.66 4.46849
6.67 4.19457
6.68 3.86725
6.69 3.5004
6.7 3.10327
6.71 2.68644
6.72 2.26202
6.73 1.84088
6.74 1.4326
6.75 1.04694
6.76 0.691858
6.77 0.371154
6.78 0.0940874
6.79 -0.142806
6.8 -0.333475
6.81 -0.482295
6.82 -0.590936
6.83 -0.661128
6.84 -0.700983
6.85 -0.711194
6.86 -0.701134
6.87 -0.674416
6.88 -0.636872
6.89 -0.593384
6.9 -0.547869
6.91 -0.503732
6.92 -0.463706
6.93 -0.429166
6.94 -0.400935
6.95 -0.3795
6.96 -0.363733
6.97 -0.353608
6.98 -0.347267
6.99 -0.343872
7 -0.342194
7.01 -0.34132
7.02 -0.340668
7.03 -0.33999
7.04 -0.339444
7.05 -0.33956
7.06 -0.341118
7.07 -0.345368
7.08 -0.353073
7.09 -0.366114
7.1 -0.38481
7.11 -0.410386
7.12 -0.443255
7.13 -0.483059
7.14 -0.530225
7.15 -0.582948
7.16 -0.640624
7.17 -0.701178
7.18 -0.762868
7.19 -0.823476
7.2 -0.881251
7.21 -0.933535
7.22 -0.979367
7.23 -1.01693
7.24 -1.04537
7.25 -1.06486
7.26 -1.07442
7.27 -1.07607
7.28 -1.06995
7.29 -1.05826
7.3 -1.0426
7.31 -1.0249
7.32 -1.00709
7.33 -0.991059
7.34 -0.977956
7.35 -0.968902
7.36 -0.964253
7.37 -0.963551
7.38 -0.966302
7.39 -0.970627
7.4 -0.974614
7.41 -0.975707
7.42 -0.971289
7.43 -0.95781
7.44 -0.933662
7.45 -0.894141
7.46 -0.839099
7.47 -0.765737
7.48 -0.67329
7.49 -0.562766
7.5 -0.432758
7.51 -0.287501
7.52 -0.127643
7.53 0.0423242
7.54 0.218853
7.55 0.397448
7.56 0.5737
7.57 0.741933
7.58 0.89865
7.59 1.03883
7.6 1.15864
7.61 1.25646
7.62 1.3269
7.63 1.37232
7.64 1.38899
7.65 1.37942
7.66 1.34452
7.67 1.28505
7.68 1.206
7.69 1.10765
7.7 0.99598
7.71 0.873456
7.72 0.744167
7.73 0.611736
7.74 0.479598
7.75 0.350606
7.76 0.227918
7.77 0.113401
7.78 0.00878976
7.79 -0.083845
7.8 -0.164954
7.81 -0.232024
7.82 -0.286695
7.83 -0.32806
7.84 -0.356589
7.85 -0.373485
7.86 -0.378017
7.87 -0.372644
7.88 -0.357077
7.89 -0.333178
7.9 -0.302003
7.91 -0.264622
7.92 -0.223032
7.93 -0.178335
7.94 -0.132657
7.95 -0.0876792
7.96 -0.0454267
7.97 -0.00744636
7.98 0.0236054
7.99 0.0470377
8 0.0603022
8.01 0.0628376
8.02 0.0537312
8.03 0.0317714
8.04 -0.0016709
8.05 -0.0479584
8.06 -0.104453
8.07 -0.170581
8.08 -0.244293
8.09 -0.323216
8.1 -0.405339
8.11 -0.487893
8.12 -0.568428
8.13 -0.644732
8.14 -0.71494
8.15 -0.776936
8.16 -0.830618
8.17 -0.873998
8.18 -0.908423
8.19 -0.933716
8.2 -0.951036
8.21 -0.962091
8.22 -0.967912
8.23 -0.970841
8.24 -0.972203
8.25 -0.973564
8.26 -0.975853
8.27 -0.979632
8.28 -0.984567
8.29 -0.989828
8.3 -0.993713
8.31 -0.993829
8.32 -0.986986
8.33 -0.970483
8.34 -0.93877
8.35 -0.890274
8.36 -0.819064
8.37 -0.723359
8.38 -0.600589
8.39 -0.447251
8.4 -0.266102
8.41 -0.0532828
8.42 0.185142
8.43 0.447958
8.44 0.730025
8.45 1.02503
8.46 1.32698
8.47 1.62781
8.48 1.91921
8.49 2.1934
8.5 2.44298
8.51 2.6583
8.52 2.83723
8.53 2.96786
8.54 3.05254
8.55 3.08544
8.56 3.06614
8.57 2.99856
8.58 2.87923
8.59 2.71903
8.6 2.51826
8.61 2.28642
8.62 2.02999
8.63 1.75596
8.64 1.47324
8.65 1.18887
8.66 0.910101
8.67 0.643467
8.68 0.39471
8.69 0.16662
8.7 -0.0345262
8.71 -0.210644
8.72 -0.357869
8.73 -0.478684
8.74 -0.574271
8.75 -0.645585
8.76 -0.697847
8.77 -0.731589
8.78 -0.75265
8.79 -0.763409
8.8 -0.767493
8.81 -0.767985
8.82 -0.767311
8.83 -0.767564
8.84 -0.770389
8.85 -0.776599
8.86 -0.78662
8.87 -0.800687
8.88 -0.818027
8.89 -0.838467
8.9 -0.860804
8.91 -0.884335
8.92 -0.908124
8.93 -0.931464
8.94 -0.953586
8.95 -0.974244
8.96 -0.993011
8.97 -1.00997
8.98 -1.02525
8.99 -1.03902
9 -1.05176
9.01 -1.06374
9.02 -1.07541
9.03 -1.08703
9.04 -1.09879
9.05 -1.1107
9.06 -1.12264
9.07 -1.13429
9.08 -1.14514
9.09 -1.15458
9.1 -1.16193
9.11 -1.16613
9.12 -1.16677
9.13 -1.16232
9.14 -1.15268
9.15 -1.1368
9.16 -1.11417
9.17 -1.08488
9.18 -1.04788
9.19 -1.0043
9.2 -0.953617
9.21 -0.89686
9.22 -0.834677
9.23 -0.76775
9.24 -0.697574
9.25 -0.624968
9.26 -0.551553
9.27 -0.478589
9.28 -0.407585
9.29 -0.339659
9.3 -0.276737
9.31 -0.219303
9.32 -0.169178
9.33 -0.126842
9.34 -0.093011
9.35 -0.0688008
9.36 -0.0534104
9.37 -0.0482996
9.38 -0.0519225
9.39 -0.0644447
9.4 -0.0850196
9.41 -0.112274
9.42 -0.145778
9.43 -0.18341
9.44 -0.224215
9.45 -0.266419
9.46 -0.308642
9.47 -0.34929
9.48 -0.38735
9.49 -0.421143
9.5 -0.450306
9.51 -0.473882
9.52 -0.491514
9.53 -0.503524
9.54 -0.509431
9.55 -0.510576
9.56 -0.507154
9.57 -0.50049
9.58 -0.491611
9.59 -0.48171
9.6 -0.471999
9.61 -0.463797
9.62 -0.457957
9.63 -0.455498
9.64 -0.45714
9.65 -0.463029
9.66 -0.473982
9.67 -0.489277
9.68 -0.509215
9.69 -0.533051
9.7 -0.560281
9.71 -0.590405
9.72 -0.622484
9.73 -0.656074
9.74 -0.690336
9.75 -0.724752
9.76 -0.758749
9.77 -0.791927
9.78 -0.82366
9.79 -0.853697
9.8 -0.881268
9.81 -0.905821
9.82 -0.926528
9.83 -0.941855
9.84 -0.951071
9.85 -0.951179
9.86 -0.941154
9.87 -0.917858
9.88 -0.87833
9.89 -0.820944
9.9 -0.739794
9.91 -0.635345
9.92 -0.501899
9.93 -0.339003
9.94 -0.145061
9.95 0.0828975
9.96 0.341032
9.97 0.632891
9.98 0.951855
9.99 1.2964
10 1.66124
10.01 2.03975
10.02 2.42588
10.03 2.81118
10.04 3.187
10.05 3.54497
10.06 3.87712
10.07 4.17256
10.08 4.42851
10.09 4.63135
10.1 4.78244
10.11 4.87448
10.12 4.90531
10.13 4.87855
10.14 4.78791
10.15 4.64528
10.16 4.44906
10.17 4.20926
10.18 3.93265
10.19 3.62597
10.2 3.30043
10.21 2.96283
10.22 2.62332
10.23 2.28955
10.24 1.96941
10.25 1.66758
10.26 1.39224
10.27 1.14309
10.28 0.925552
10.29 0.738273
10.3 0.580679
10.31 0.452696
10.32 0.34849
10.33 0.267919
10.34 0.203948
10.35 0.153585
10.36 0.112111
10.37 0.0752547
10.38 0.0394484
10.39 0.00159608
10.4 -0.0410075
10.41 -0.0897737
10.42 -0.145519
10.43 -0.208872
10.44 -0.278524
10.45 -0.354296
10.46 -0.433922
10.47 -0.515947
10.48 -0.59827
10.49 -0.679123
10.5 -0.756209
10.51 -0.828508
10.52 -0.894068
10.53 -0.952288
10.54 -1.00257
10.55 -1.04407
10.56 -1.07775
10.57 -1.1027
10.58 -1.12045
10.59 -1.13111
10.6 -1.13541
10.61 -1.13437
10.62 -1.12795
10.63 -1.11743
10.64 -1.10273
10.65 -1.08445
10.66 -1.06282
10.67 -1.03777
10.68 -1.00981
10.69 -0.978614
10.7 -0.944765
10.71 -0.908343
10.72 -0.869783
10.73 -0.829712
10.74 -0.788715
10.75 -0.74773
10.76 -0.707751
10.77 -0.669828
10.78 -0.634987
10.79 -0.604668
10.8 -0.579309
10.81 -0.560714
10.82 -0.548786
10.83 -0.544475
10.84 -0.548056
10.85 -0.558987
10.86 -0.577951
10.87 -0.603278
10.88 -0.634911
10.89 -0.671372
10.9 -0.711554
10.91 -0.754272
10.92 -0.798041
10.93 -0.841592
10.94 -0.883736
10.95 -0.923345
10.96 -0.959447
10.97 -0.991662
10.98 -1.01892
10.99 -1.04172
11 -1.05952
11.01 -1.07289
11.02 -1.08222
11.03 -1.08789
11.04 -1.09093
11.05 -1.09179
11.06 -1.09152
11.07 -1.09082
11.08 -1.09048
11.09 -1.09106
11.1 -1.0933
11.11 -1.09733
11.12 -1.10359
11.13 -1.11196
11.14 -1.12227
11.15 -1.13421
11.16 -1.14702
11.17 -1.1599
11.18 -1.17177
11.19 -1.1813
11.2 -1.18687
11.21 -1.18724
11.22 -1.1796
11.23 -1.16322
11.24 -1.13503
11.25 -1.09371
11.26 -1.03759
11.27 -0.963746
11.28 -0.872896
11.29 -0.76116
11.3 -0.630477
11.31 -0.479495
11.32 -0.308747
11.33 -0.120613
11.34 0.0852648
11.35 0.303981
11.36 0.533851
11.37 0.770192
11.38 1.00898
11.39 1.24509
11.4 1.47427
11.41 1.68977
11.42 1.88821
11.43 2.06385
11.44 2.21197
11.45 2.33108
11.46 2.4137
11.47 2.46297
11.48 2.47373
11.49 2.44836
11.5 2.38795
11.51 2.29236
11.52 2.16831
11.53 2.01552
11.54 1.84201
11.55 1.65121
11.56 1.44882
11.57 1.24043
11.58 1.03114
11.59 0.825726
11.6 0.62907
11.61 0.44447
11.62 0.274541
11.63 0.122574
11.64 -0.0124249
11.65 -0.12748
11.66 -0.225566
11.67 -0.306783
11.68 -0.373105
11.69 -0.427613
11.7 -0.471544
11.71 -0.508927
11.72 -0.541599
11.73 -0.572336
11.74 -0.603012
11.75 -0.635375
11.76 -0.670175
11.77 -0.708303
11.78 -0.749228
11.79 -0.792479
11.8 -0.836791
11.81 -0.880674
11.82 -0.921899
11.83 -0.958837
11.84 -0.988756
11.85 -1.00986
11.86 -1.02035
11.87 -1.01758
11.88 -1.00178
11.89 -0.969848
11.9 -0.923208
11.91 -0.860867
11.92 -0.783248
11.93 -0.692209
11.94 -0.587314
11.95 -0.472121
11.96 -0.347403
11.97 -0.216086
11.98 -0.0804358
11.99 0.0570324
12 0.193778
12.01 0.326892
12.02 0.45435
12.03 0.57358
12.04 0.682258
12.05 0.77944
12.06 0.86163
12.07 0.929694
12.08 0.98093
12.09 1.0157
12.1 1.03384
12.11 1.03429
12.12 1.01948
12.13 0.987901
12.14 0.942739
12.15 0.884517
12.16 0.815056
12.17 0.73688
12.18 0.651115
12.19 0.560912
12.2 0.467951
12.21 0.374624
12.22 0.282768
12.23 0.194476
12.24 0.110714
12.25 0.0334903
12.26 -0.0371642
12.27 -0.100428
12.28 -0.156232
12.29 -0.205403
12.3 -0.247742
12.31 -0.285118
12.32 -0.318101
12.33 -0.348282
12.34 -0.376876
12.35 -0.405142
12.36 -0.43409
12.37 -0.464732
12.38 -0.49737
12.39 -0.532257
12.4 -0.569117
