# xPDFsuite Configuration #
[PDF]
wavelength = 0.1432
dataformat = twotheta
inputfile = 1_1Pd_CeO2_cycle-00105.chi
backgroundfile = background-00000.chi
mode = xray
bgscale = 1.007
composition = CeO2
outputtype = gr
qmaxinst = 28.8974762299
qmin = 0.5
qmax = 27.9
rmax = 50.0
rmin = 0.0
rstep = 0.01
rpoly = 1.8657

[Misc]
inputdir = G:/SankarDec16/1Pd/Chi
savedir = D:/DATA/APS_CeO2/1Pd
backgroundfilefull = G:/SankarDec16/Background/background-00000.chi

#### start data
#S 1
#L r($\AA$)  G($\AA^{-2}$)
0 0
0.01 -0.00507981
0.02 -0.00977516
0.03 -0.0136903
0.04 -0.0165276
0.05 -0.0181217
0.06 -0.0182072
0.07 -0.0169627
0.08 -0.0143047
0.09 -0.0105733
0.1 -0.00600466
0.11 -0.000959428
0.12 0.00417126
0.13 0.00894664
0.14 0.0130581
0.15 0.0161257
0.16 0.0179294
0.17 0.0183837
0.18 0.0173112
0.19 0.0149766
0.2 0.0113958
0.21 0.00696626
0.22 0.00198318
0.23 -0.00314817
0.24 -0.00806125
0.25 -0.0122815
0.26 -0.0155917
0.27 -0.0176473
0.28 -0.0183173
0.29 -0.0176003
0.3 -0.0154162
0.31 -0.0121027
0.32 -0.00777387
0.33 -0.00286513
0.34 0.00228485
0.35 0.00724637
0.36 0.0116964
0.37 0.0151508
0.38 0.017495
0.39 0.0184376
0.4 0.0179435
0.41 0.0160956
0.42 0.0129158
0.43 0.00879733
0.44 0.00394734
0.45 -0.00118324
0.46 -0.00622945
0.47 -0.0107589
0.48 -0.0145089
0.49 -0.0170106
0.5 -0.0182581
0.51 -0.0180284
0.52 -0.0163845
0.53 -0.0134897
0.54 -0.00946733
0.55 -0.00474606
0.56 0.000384238
0.57 0.00547987
0.58 0.0101685
0.59 0.0140368
0.6 0.0168965
0.61 0.0183181
0.62 0.018405
0.63 0.0170145
0.64 0.0143046
0.65 0.0105111
0.66 0.00585255
0.67 0.00077147
0.68 -0.00437459
0.69 -0.00917176
0.7 -0.0132597
0.71 -0.0162656
0.72 -0.0180851
0.73 -0.0183506
0.74 -0.0172693
0.75 -0.0147857
0.76 -0.0111445
0.77 -0.0066409
0.78 -0.0015759
0.79 0.00361808
0.8 0.00853726
0.81 0.0128206
0.82 0.0161415
0.83 0.0181903
0.84 0.0189537
0.85 0.0181506
0.86 0.0160806
0.87 0.0127821
0.88 0.00857364
0.89 0.00379261
0.9 -0.00119309
0.91 -0.00599118
0.92 -0.0101779
0.93 -0.0134744
0.94 -0.0156167
0.95 -0.0163915
0.96 -0.0158898
0.97 -0.0139626
0.98 -0.0109967
0.99 -0.00715393
1 -0.00283211
1.01 0.00159072
1.02 0.00565825
1.03 0.00904604
1.04 0.0112916
1.05 0.0122251
1.06 0.0116518
1.07 0.00946647
1.08 0.00589771
1.09 0.000937002
1.1 -0.00489388
1.11 -0.0112784
1.12 -0.017688
1.13 -0.0236547
1.14 -0.0285522
1.15 -0.0320743
1.16 -0.0336039
1.17 -0.0330166
1.18 -0.030087
1.19 -0.0246938
1.2 -0.0171798
1.21 -0.00746559
1.22 0.00374073
1.23 0.0161057
1.24 0.028981
1.25 0.0417819
1.26 0.0537829
1.27 0.0645165
1.28 0.0732215
1.29 0.0796058
1.3 0.0832692
1.31 0.083862
1.32 0.081606
1.33 0.0760527
1.34 0.0678653
1.35 0.0570623
1.36 0.0441334
1.37 0.0295784
1.38 0.0138008
1.39 -0.002544
1.4 -0.0189681
1.41 -0.034934
1.42 -0.049978
1.43 -0.0635923
1.44 -0.0755888
1.45 -0.0853325
1.46 -0.0929217
1.47 -0.0979674
1.48 -0.100421
1.49 -0.100332
1.5 -0.0974271
1.51 -0.092119
1.52 -0.084189
1.53 -0.0740439
1.54 -0.0618291
1.55 -0.047778
1.56 -0.032376
1.57 -0.015848
1.58 0.00118623
1.59 0.0182759
1.6 0.0348275
1.61 0.0503355
1.62 0.0640243
1.63 0.0755969
1.64 0.0842083
1.65 0.0896672
1.66 0.0915629
1.67 0.089526
1.68 0.0838914
1.69 0.0741494
1.7 0.0611817
1.71 0.0451054
1.72 0.0266528
1.73 0.00658417
1.74 -0.0143345
1.75 -0.0351669
1.76 -0.0549595
1.77 -0.0729371
1.78 -0.0883475
1.79 -0.100428
1.8 -0.109137
1.81 -0.113656
1.82 -0.114636
1.83 -0.111992
1.84 -0.106348
1.85 -0.0984467
1.86 -0.0889899
1.87 -0.0790519
1.88 -0.0695928
1.89 -0.0615374
1.9 -0.0557173
1.91 -0.0529766
1.92 -0.0534341
1.93 -0.0579076
1.94 -0.0657565
1.95 -0.0769927
1.96 -0.0908913
1.97 -0.106599
1.98 -0.123172
1.99 -0.139443
2 -0.154121
2.01 -0.166157
2.02 -0.174482
2.03 -0.17796
2.04 -0.176471
2.05 -0.168673
2.06 -0.155367
2.07 -0.136166
2.08 -0.111684
2.09 -0.0827292
2.1 -0.0497578
2.11 -0.0141724
2.12 0.0233451
2.13 0.0616421
2.14 0.0999408
2.15 0.137482
2.16 0.173912
2.17 0.208755
2.18 0.242241
2.19 0.274449
2.2 0.305841
2.21 0.336925
2.22 0.368322
2.23 0.400507
2.24 0.434058
2.25 0.469116
2.26 0.505724
2.27 0.543617
2.28 0.582112
2.29 0.620226
2.3 0.656776
2.31 0.690135
2.32 0.718597
2.33 0.740779
2.34 0.75406
2.35 0.758145
2.36 0.750436
2.37 0.731073
2.38 0.699379
2.39 0.655004
2.4 0.599837
2.41 0.533439
2.42 0.459197
2.43 0.378518
2.44 0.294301
2.45 0.209194
2.46 0.126285
2.47 0.0478231
2.48 -0.0229973
2.49 -0.084738
2.5 -0.135731
2.51 -0.174516
2.52 -0.202072
2.53 -0.216898
2.54 -0.221864
2.55 -0.217569
2.56 -0.206431
2.57 -0.190871
2.58 -0.173236
2.59 -0.15613
2.6 -0.142066
2.61 -0.132824
2.62 -0.129963
2.63 -0.134831
2.64 -0.146993
2.65 -0.167442
2.66 -0.194156
2.67 -0.226424
2.68 -0.262237
2.69 -0.299619
2.7 -0.336336
2.71 -0.370532
2.72 -0.399897
2.73 -0.423297
2.74 -0.439602
2.75 -0.447965
2.76 -0.449252
2.77 -0.442986
2.78 -0.431435
2.79 -0.415679
2.8 -0.397899
2.81 -0.380087
2.82 -0.36463
2.83 -0.353045
2.84 -0.34758
2.85 -0.348926
2.86 -0.357854
2.87 -0.374731
2.88 -0.398257
2.89 -0.428281
2.9 -0.462239
2.91 -0.498528
2.92 -0.534668
2.93 -0.568551
2.94 -0.597404
2.95 -0.620058
2.96 -0.634075
2.97 -0.639216
2.98 -0.634967
2.99 -0.621314
3 -0.600098
3.01 -0.571828
3.02 -0.539577
3.03 -0.50533
3.04 -0.471904
3.05 -0.441592
3.06 -0.417412
3.07 -0.400413
3.08 -0.393074
3.09 -0.395367
3.1 -0.407582
3.11 -0.429422
3.12 -0.458735
3.13 -0.494643
3.14 -0.533883
3.15 -0.574229
3.16 -0.612799
3.17 -0.647381
3.18 -0.675051
3.19 -0.695156
3.2 -0.705619
3.21 -0.707021
3.22 -0.699659
3.23 -0.684595
3.24 -0.664362
3.25 -0.64091
3.26 -0.617505
3.27 -0.597042
3.28 -0.582507
3.29 -0.57592
3.3 -0.580405
3.31 -0.595663
3.32 -0.623535
3.33 -0.662353
3.34 -0.710968
3.35 -0.767228
3.36 -0.827663
3.37 -0.888987
3.38 -0.947371
3.39 -0.998915
3.4 -1.04015
3.41 -1.06899
3.42 -1.0818
3.43 -1.07982
3.44 -1.06126
3.45 -1.02897
3.46 -0.984992
3.47 -0.932662
3.48 -0.876575
3.49 -0.821349
3.5 -0.771488
3.51 -0.731746
3.52 -0.705809
3.53 -0.695393
3.54 -0.703601
3.55 -0.727538
3.56 -0.766922
3.57 -0.816164
3.58 -0.86996
3.59 -0.920297
3.6 -0.959828
3.61 -0.975996
3.62 -0.962588
3.63 -0.907713
3.64 -0.803204
3.65 -0.644928
3.66 -0.420995
3.67 -0.137546
3.68 0.213272
3.69 0.622478
3.7 1.08551
3.71 1.59465
3.72 2.1347
3.73 2.69506
3.74 3.25737
3.75 3.80555
3.76 4.32171
3.77 4.79233
3.78 5.19476
3.79 5.52533
3.8 5.76288
3.81 5.90713
3.82 5.9519
3.83 5.89172
3.84 5.73967
3.85 5.48693
3.86 5.15689
3.87 4.75396
3.88 4.29464
3.89 3.79541
3.9 3.26986
3.91 2.7365
3.92 2.21034
3.93 1.70522
3.94 1.23293
3.95 0.805867
3.96 0.425916
3.97 0.106346
3.98 -0.15958
3.99 -0.367626
4 -0.522222
4.01 -0.630281
4.02 -0.693658
4.03 -0.72516
4.04 -0.728777
4.05 -0.715028
4.06 -0.690594
4.07 -0.662436
4.08 -0.635986
4.09 -0.616459
4.1 -0.605755
4.11 -0.606128
4.12 -0.617544
4.13 -0.638597
4.14 -0.668207
4.15 -0.702768
4.16 -0.739737
4.17 -0.775605
4.18 -0.807456
4.19 -0.83206
4.2 -0.848152
4.21 -0.852453
4.22 -0.845727
4.23 -0.826758
4.24 -0.79624
4.25 -0.75558
4.26 -0.705142
4.27 -0.647746
4.28 -0.584282
4.29 -0.517021
4.3 -0.447336
4.31 -0.376549
4.32 -0.305648
4.33 -0.235328
4.34 -0.1658
4.35 -0.0971481
4.36 -0.0291579
4.37 0.0384639
4.38 0.105998
4.39 0.173623
4.4 0.24132
4.41 0.308762
4.42 0.375347
4.43 0.43995
4.44 0.50161
4.45 0.558037
4.46 0.608213
4.47 0.649765
4.48 0.680907
4.49 0.700633
4.5 0.706041
4.51 0.6981
4.52 0.67452
4.53 0.636659
4.54 0.584854
4.55 0.519794
4.56 0.4444
4.57 0.359374
4.58 0.268543
4.59 0.174013
4.6 0.0788212
4.61 -0.0145796
4.62 -0.103193
4.63 -0.185671
4.64 -0.259463
4.65 -0.324098
4.66 -0.378853
4.67 -0.423209
4.68 -0.458657
4.69 -0.484721
4.7 -0.503978
4.71 -0.517301
4.72 -0.526583
4.73 -0.53353
4.74 -0.539643
4.75 -0.546316
4.76 -0.554756
4.77 -0.565594
4.78 -0.579241
4.79 -0.595872
4.8 -0.614918
4.81 -0.636148
4.82 -0.658486
4.83 -0.68115
4.84 -0.703116
4.85 -0.723594
4.86 -0.741505
4.87 -0.756603
4.88 -0.768096
4.89 -0.776111
4.9 -0.780667
4.91 -0.781941
4.92 -0.780724
4.93 -0.777325
4.94 -0.772778
4.95 -0.767721
4.96 -0.762953
4.97 -0.759053
4.98 -0.756729
4.99 -0.756136
5 -0.757737
5.01 -0.761422
5.02 -0.767154
5.03 -0.774816
5.04 -0.78396
5.05 -0.794467
5.06 -0.805812
5.07 -0.817755
5.08 -0.829973
5.09 -0.842224
5.1 -0.854265
5.11 -0.865931
5.12 -0.876942
5.13 -0.887063
5.14 -0.895927
5.15 -0.902899
5.16 -0.907556
5.17 -0.908497
5.18 -0.905143
5.19 -0.895853
5.2 -0.879167
5.21 -0.854046
5.22 -0.817683
5.23 -0.770156
5.24 -0.708611
5.25 -0.633132
5.26 -0.542946
5.27 -0.437266
5.28 -0.318204
5.29 -0.184887
5.3 -0.0412031
5.31 0.111207
5.32 0.268695
5.33 0.427579
5.34 0.583244
5.35 0.731915
5.36 0.867952
5.37 0.987826
5.38 1.08751
5.39 1.16215
5.4 1.21187
5.41 1.23035
5.42 1.22104
5.43 1.18166
5.44 1.11403
5.45 1.02157
5.46 0.904861
5.47 0.770793
5.48 0.621757
5.49 0.46399
5.5 0.302041
5.51 0.141177
5.52 -0.0145676
5.53 -0.15969
5.54 -0.292272
5.55 -0.408705
5.56 -0.507406
5.57 -0.588541
5.58 -0.650047
5.59 -0.695357
5.6 -0.72395
5.61 -0.739298
5.62 -0.743461
5.63 -0.738734
5.64 -0.728335
5.65 -0.713944
5.66 -0.698063
5.67 -0.682013
5.68 -0.666826
5.69 -0.652814
5.7 -0.63994
5.71 -0.627436
5.72 -0.614264
5.73 -0.599126
5.74 -0.580672
5.75 -0.557211
5.76 -0.528211
5.77 -0.491786
5.78 -0.44856
5.79 -0.39807
5.8 -0.341162
5.81 -0.279273
5.82 -0.213766
5.83 -0.14716
5.84 -0.0818702
5.85 -0.0205098
5.86 0.0344191
5.87 0.0798577
5.88 0.114876
5.89 0.135813
5.9 0.143474
5.91 0.136242
5.92 0.114519
5.93 0.0797886
5.94 0.0320549
5.95 -0.0251319
5.96 -0.0906096
5.97 -0.161077
5.98 -0.234133
5.99 -0.307045
6 -0.377704
6.01 -0.443463
6.02 -0.503454
6.03 -0.556195
6.04 -0.601285
6.05 -0.639187
6.06 -0.669662
6.07 -0.69464
6.08 -0.714755
6.09 -0.731928
6.1 -0.747556
6.11 -0.763177
6.12 -0.779923
6.13 -0.799053
6.14 -0.820807
6.15 -0.845557
6.16 -0.872979
6.17 -0.902357
6.18 -0.932849
6.19 -0.963193
6.2 -0.992032
6.21 -1.01816
6.22 -1.04048
6.23 -1.0578
6.24 -1.07012
6.25 -1.0764
6.26 -1.07768
6.27 -1.07414
6.28 -1.06683
6.29 -1.05699
6.3 -1.04572
6.31 -1.03432
6.32 -1.02376
6.33 -1.01452
6.34 -1.00663
6.35 -0.999412
6.36 -0.991501
6.37 -0.98027
6.38 -0.963166
6.39 -0.936086
6.4 -0.894561
6.41 -0.835179
6.42 -0.7503
6.43 -0.638993
6.44 -0.493497
6.45 -0.312935
6.46 -0.0947017
6.47 0.164317
6.48 0.459342
6.49 0.793922
6.5 1.1588
6.51 1.55104
6.52 1.96245
6.53 2.38421
6.54 2.80647
6.55 3.21917
6.56 3.60967
6.57 3.96832
6.58 4.28503
6.59 4.54701
6.6 4.75274
6.61 4.88562
6.62 4.95111
6.63 4.94149
6.64 4.85785
6.65 4.70637
6.66 4.48381
6.67 4.206
6.68 3.87444
6.69 3.50334
6.7 3.10227
6.71 2.68212
6.72 2.25513
6.73 1.83249
6.74 1.42371
6.75 1.03864
6.76 0.685116
6.77 0.366762
6.78 0.0926997
6.79 -0.140856
6.8 -0.328089
6.81 -0.473661
6.82 -0.579473
6.83 -0.647514
6.84 -0.685966
6.85 -0.695752
6.86 -0.686142
6.87 -0.660775
6.88 -0.625363
6.89 -0.584602
6.9 -0.542261
6.91 -0.501476
6.92 -0.464774
6.93 -0.433311
6.94 -0.407742
6.95 -0.388374
6.96 -0.374067
6.97 -0.364661
6.98 -0.358428
6.99 -0.35456
7 -0.35197
7.01 -0.349914
7.02 -0.347974
7.03 -0.346081
7.04 -0.344567
7.05 -0.344078
7.06 -0.345475
7.07 -0.350071
7.08 -0.358558
7.09 -0.372807
7.1 -0.392958
7.11 -0.420104
7.12 -0.45446
7.13 -0.495499
7.14 -0.543411
7.15 -0.596312
7.16 -0.653406
7.17 -0.712613
7.18 -0.772185
7.19 -0.829932
7.2 -0.884301
7.21 -0.932744
7.22 -0.974586
7.23 -1.00824
7.24 -1.03314
7.25 -1.04964
7.26 -1.05712
7.27 -1.05761
7.28 -1.0515
7.29 -1.04092
7.3 -1.02747
7.31 -1.01297
7.32 -0.999091
7.33 -0.987568
7.34 -0.979175
7.35 -0.974756
7.36 -0.974338
7.37 -0.977232
7.38 -0.982597
7.39 -0.988523
7.4 -0.992872
7.41 -0.993172
7.42 -0.986866
7.43 -0.97052
7.44 -0.942838
7.45 -0.899321
7.46 -0.840193
7.47 -0.76296
7.48 -0.667181
7.49 -0.554073
7.5 -0.422551
7.51 -0.276822
7.52 -0.117703
7.53 0.0504688
7.54 0.224276
7.55 0.399431
7.56 0.571865
7.57 0.736221
7.58 0.889361
7.59 1.02663
7.6 1.14449
7.61 1.24153
7.62 1.31265
7.63 1.36009
7.64 1.38025
7.65 1.37537
7.66 1.34614
7.67 1.29301
7.68 1.22055
7.69 1.12858
7.7 1.02271
7.71 0.904942
7.72 0.779008
7.73 0.648364
7.74 0.51605
7.75 0.385136
7.76 0.258624
7.77 0.138714
7.78 0.0273983
7.79 -0.0729046
7.8 -0.162143
7.81 -0.237349
7.82 -0.299686
7.83 -0.347785
7.84 -0.381711
7.85 -0.40248
7.86 -0.40895
7.87 -0.403779
7.88 -0.386513
7.89 -0.359333
7.9 -0.323537
7.91 -0.280516
7.92 -0.232751
7.93 -0.181747
7.94 -0.130078
7.95 -0.0798277
7.96 -0.03337
7.97 0.00759461
7.98 0.0400967
7.99 0.0636328
8 0.0755739
8.01 0.0756603
8.02 0.0632269
8.03 0.0373855
8.04 -9.929e-05
8.05 -0.0501989
8.06 -0.109962
8.07 -0.178492
8.08 -0.253518
8.09 -0.332627
8.1 -0.413646
8.11 -0.494072
8.12 -0.571526
8.13 -0.644152
8.14 -0.710392
8.15 -0.768527
8.16 -0.818779
8.17 -0.859615
8.18 -0.892552
8.19 -0.917692
8.2 -0.936293
8.21 -0.949973
8.22 -0.959799
8.23 -0.967708
8.24 -0.974814
8.25 -0.982224
8.26 -0.990467
8.27 -0.999608
8.28 -1.00901
8.29 -1.01728
8.3 -1.02266
8.31 -1.02248
8.32 -1.01351
8.33 -0.993262
8.34 -0.956212
8.35 -0.901321
8.36 -0.822956
8.37 -0.719893
8.38 -0.590029
8.39 -0.43043
8.4 -0.244168
8.41 -0.0279788
8.42 0.212043
8.43 0.474427
8.44 0.754062
8.45 1.04489
8.46 1.34102
8.47 1.635
8.48 1.91886
8.49 2.18544
8.5 2.42784
8.51 2.63699
8.52 2.81108
8.53 2.9388
8.54 3.02246
8.55 3.05645
8.56 3.04025
8.57 2.97749
8.58 2.86452
8.59 2.71159
8.6 2.51856
8.61 2.29435
8.62 2.04492
8.63 1.77666
8.64 1.49827
8.65 1.21619
8.66 0.937813
8.67 0.669512
8.68 0.417209
8.69 0.184071
8.7 -0.0233605
8.71 -0.206356
8.72 -0.36056
8.73 -0.48787
8.74 -0.588976
8.75 -0.664276
8.76 -0.718853
8.77 -0.752741
8.78 -0.772016
8.79 -0.779022
8.8 -0.777692
8.81 -0.771571
8.82 -0.763508
8.83 -0.756249
8.84 -0.752047
8.85 -0.752285
8.86 -0.757876
8.87 -0.769603
8.88 -0.786711
8.89 -0.809488
8.9 -0.836329
8.91 -0.866458
8.92 -0.898488
8.93 -0.931129
8.94 -0.963034
8.95 -0.993239
8.96 -1.02058
8.97 -1.04455
8.98 -1.06475
8.99 -1.08078
9 -1.0932
9.01 -1.1018
9.02 -1.10757
9.03 -1.11093
9.04 -1.11262
9.05 -1.11335
9.06 -1.11369
9.07 -1.11413
9.08 -1.11499
9.09 -1.11631
9.1 -1.11794
9.11 -1.11948
9.12 -1.12037
9.13 -1.1196
9.14 -1.11642
9.15 -1.10962
9.16 -1.09804
9.17 -1.08103
9.18 -1.05678
9.19 -1.02555
9.2 -0.985944
9.21 -0.938293
9.22 -0.882675
9.23 -0.819119
9.24 -0.749254
9.25 -0.673377
9.26 -0.593768
9.27 -0.511865
9.28 -0.42982
9.29 -0.349534
9.3 -0.273679
9.31 -0.20362
9.32 -0.142059
9.33 -0.0901636
9.34 -0.0492198
9.35 -0.0209827
9.36 -0.00452762
9.37 -0.00181935
9.38 -0.0106776
9.39 -0.0310988
9.4 -0.0616195
9.41 -0.100122
9.42 -0.145479
9.43 -0.194732
9.44 -0.246116
9.45 -0.297219
9.46 -0.346144
9.47 -0.390726
9.48 -0.430072
9.49 -0.462071
9.5 -0.486944
9.51 -0.50391
9.52 -0.513178
9.53 -0.515739
9.54 -0.511744
9.55 -0.503256
9.56 -0.491176
9.57 -0.477354
9.58 -0.463236
9.59 -0.450463
9.6 -0.440096
9.61 -0.433756
9.62 -0.431756
9.63 -0.434905
9.64 -0.443398
9.65 -0.456801
9.66 -0.475349
9.67 -0.497759
9.68 -0.523735
9.69 -0.552155
9.7 -0.582229
9.71 -0.613161
9.72 -0.644226
9.73 -0.674838
9.74 -0.70468
9.75 -0.733501
9.76 -0.761234
9.77 -0.787976
9.78 -0.813653
9.79 -0.83841
9.8 -0.861976
9.81 -0.88402
9.82 -0.903872
9.83 -0.920147
9.84 -0.931825
9.85 -0.935906
9.86 -0.930853
9.87 -0.913213
9.88 -0.879547
9.89 -0.827815
9.9 -0.751608
9.91 -0.651155
9.92 -0.520376
9.93 -0.358748
9.94 -0.16465
9.95 0.0648807
9.96 0.325663
9.97 0.621089
9.98 0.944065
9.99 1.29272
10 1.66134
10.01 2.043
10.02 2.43124
10.03 2.81755
10.04 3.19308
10.05 3.54957
10.06 3.8792
10.07 4.1713
10.08 4.4235
10.09 4.62256
10.1 4.77029
10.11 4.85979
10.12 4.88932
10.13 4.86268
10.14 4.77396
10.15 4.63483
10.16 4.4438
10.17 4.21051
10.18 3.94138
10.19 3.64268
10.2 3.32509
10.21 2.99473
10.22 2.66129
10.23 2.33182
10.24 2.01374
10.25 1.71162
10.26 1.43315
10.27 1.17845
10.28 0.952846
10.29 0.755546
10.3 0.586455
10.31 0.446117
10.32 0.329437
10.33 0.23708
10.34 0.162648
10.35 0.103869
10.36 0.056603
10.37 0.0167595
10.38 -0.0186037
10.39 -0.0530468
10.4 -0.0890951
10.41 -0.128752
10.42 -0.173324
10.43 -0.224039
10.44 -0.280421
10.45 -0.343049
10.46 -0.410396
10.47 -0.48173
10.48 -0.555569
10.49 -0.630386
10.5 -0.704511
10.51 -0.776555
10.52 -0.844774
10.53 -0.90806
10.54 -0.965402
10.55 -1.01544
10.56 -1.05842
10.57 -1.09277
10.58 -1.11942
10.59 -1.13786
10.6 -1.14832
10.61 -1.15165
10.62 -1.14737
10.63 -1.13705
10.64 -1.12055
10.65 -1.09893
10.66 -1.07279
10.67 -1.04255
10.68 -1.00927
10.69 -0.973188
10.7 -0.935318
10.71 -0.896169
10.72 -0.856466
10.73 -0.816851
10.74 -0.778111
10.75 -0.740772
10.76 -0.705695
10.77 -0.673422
10.78 -0.644533
10.79 -0.61991
10.8 -0.59956
10.81 -0.584669
10.82 -0.574933
10.83 -0.570962
10.84 -0.572921
10.85 -0.580441
10.86 -0.594191
10.87 -0.613082
10.88 -0.637383
10.89 -0.666242
10.9 -0.6991
10.91 -0.735444
10.92 -0.774171
10.93 -0.814718
10.94 -0.85596
10.95 -0.897068
10.96 -0.937055
10.97 -0.975216
10.98 -1.01037
10.99 -1.04225
11 -1.06986
11.01 -1.093
11.02 -1.11141
11.03 -1.12467
11.04 -1.13345
11.05 -1.13735
11.06 -1.13746
11.07 -1.13415
11.08 -1.12831
11.09 -1.12091
11.1 -1.11285
11.11 -1.10516
11.12 -1.09883
11.13 -1.09462
11.14 -1.09309
11.15 -1.09482
11.16 -1.09947
11.17 -1.10718
11.18 -1.11683
11.19 -1.12746
11.2 -1.13739
11.21 -1.14495
11.22 -1.1472
11.23 -1.14248
11.24 -1.12718
11.25 -1.09908
11.26 -1.05575
11.27 -0.993403
11.28 -0.912255
11.29 -0.80754
11.3 -0.681135
11.31 -0.531317
11.32 -0.358619
11.33 -0.165808
11.34 0.0474347
11.35 0.275322
11.36 0.515743
11.37 0.763194
11.38 1.01299
11.39 1.25922
11.4 1.49719
11.41 1.71941
11.42 1.9224
11.43 2.10012
11.44 2.24783
11.45 2.36438
11.46 2.44234
11.47 2.48557
11.48 2.48927
11.49 2.4565
11.5 2.38886
11.51 2.28685
11.52 2.15749
11.53 2.00108
11.54 1.82565
11.55 1.6348
11.56 1.43417
11.57 1.22904
11.58 1.02436
11.59 0.824317
11.6 0.63343
11.61 0.454469
11.62 0.289623
11.63 0.141694
11.64 0.00951274
11.65 -0.104373
11.66 -0.20283
11.67 -0.28603
11.68 -0.355788
11.69 -0.414855
11.7 -0.464243
11.71 -0.507481
11.72 -0.546031
11.73 -0.582239
11.74 -0.617647
11.75 -0.653614
11.76 -0.690827
11.77 -0.729872
11.78 -0.770402
11.79 -0.811966
11.8 -0.853513
11.81 -0.893879
11.82 -0.931104
11.83 -0.963962
11.84 -0.990067
11.85 -1.00793
11.86 -1.016
11.87 -1.01187
11.88 -0.995743
11.89 -0.964648
11.9 -0.919769
11.91 -0.859985
11.92 -0.78544
11.93 -0.69768
11.94 -0.595928
11.95 -0.483457
11.96 -0.360703
11.97 -0.230404
11.98 -0.0946949
11.99 0.0440471
12 0.183106
12.01 0.319589
12.02 0.451124
12.03 0.574906
12.04 0.688255
12.05 0.789901
12.06 0.875926
12.07 0.946991
12.08 1.00004
12.09 1.03533
12.1 1.05266
12.11 1.05087
12.12 1.03268
12.13 0.996675
12.14 0.946449
12.15 0.882831
12.16 0.808061
12.17 0.725004
12.18 0.635261
12.19 0.542148
12.2 0.447704
12.21 0.354376
12.22 0.264018
12.23 0.178745
12.24 0.0991847
12.25 0.0272333
12.26 -0.0375506
12.27 -0.0946794
12.28 -0.144525
12.29 -0.188258
12.3 -0.226165
12.31 -0.260257
12.32 -0.291457
12.33 -0.321387
12.34 -0.351262
12.35 -0.382346
12.36 -0.415301
12.37 -0.451024
12.38 -0.489352
12.39 -0.530219
