# xPDFsuite Configuration #
[PDF]
wavelength = 0.1432
dataformat = twotheta
inputfile = 1_1Pd_CeO2_cycle-00497.chi
backgroundfile = background-00000.chi
mode = xray
bgscale = 1.007
composition = CeO2
outputtype = gr
qmaxinst = 28.8974762299
qmin = 0.5
qmax = 27.9
rmax = 50.0
rmin = 0.0
rstep = 0.01
rpoly = 1.8657

[Misc]
inputdir = G:/SankarDec16/1Pd/Chi
savedir = D:/DATA/APS_CeO2/1Pd
backgroundfilefull = G:/SankarDec16/Background/background-00000.chi

#### start data
#S 1
#L r($\AA$)  G($\AA^{-2}$)
0 0
0.01 -0.00459717
0.02 -0.00884839
0.03 -0.0123974
0.04 -0.0149759
0.05 -0.0164344
0.06 -0.0165326
0.07 -0.0154302
0.08 -0.0130495
0.09 -0.0096953
0.1 -0.00557841
0.11 -0.00102154
0.12 0.00362282
0.13 0.00795972
0.14 0.0117085
0.15 0.014526
0.16 0.0162108
0.17 0.016682
0.18 0.015775
0.19 0.0137241
0.2 0.0105374
0.21 0.00656989
0.22 0.00208374
0.23 -0.00255892
0.24 -0.00702606
0.25 -0.0108923
0.26 -0.0139554
0.27 -0.0159016
0.28 -0.0166059
0.29 -0.0160597
0.3 -0.0141823
0.31 -0.0112715
0.32 -0.0074208
0.33 -0.00301914
0.34 0.0016325
0.35 0.00614929
0.36 0.0102354
0.37 0.0134551
0.38 0.0156939
0.39 0.0166825
0.4 0.0163782
0.41 0.0148455
0.42 0.012091
0.43 0.0084627
0.44 0.00413497
0.45 -0.000487477
0.46 -0.00507905
0.47 -0.00925007
0.48 -0.0127551
0.49 -0.0151685
0.5 -0.0164692
0.51 -0.0164452
0.52 -0.0151382
0.53 -0.0126828
0.54 -0.0091735
0.55 -0.00499155
0.56 -0.000384366
0.57 0.00424641
0.58 0.00856603
0.59 0.0121982
0.6 0.0149595
0.61 0.0164549
0.62 0.0167576
0.63 0.0157233
0.64 0.0134763
0.65 0.0102153
0.66 0.00611835
0.67 0.00158249
0.68 -0.00308343
0.69 -0.0074994
0.7 -0.0113373
0.71 -0.0142514
0.72 -0.0161292
0.73 -0.0166239
0.74 -0.0158999
0.75 -0.0138864
0.76 -0.0107842
0.77 -0.0068463
0.78 -0.0023247
0.79 0.00238658
0.8 0.00693337
0.81 0.0109751
0.82 0.0142065
0.83 0.0163289
0.84 0.0173053
0.85 0.0168536
0.86 0.0152188
0.87 0.0124049
0.88 0.00867606
0.89 0.00432308
0.9 -0.000346915
0.91 -0.00496663
0.92 -0.00916471
0.93 -0.0126626
0.94 -0.0152031
0.95 -0.0165619
0.96 -0.0167825
0.97 -0.0156837
0.98 -0.0135755
0.99 -0.0105521
1 -0.006931
1.01 -0.00302473
1.02 0.000810806
1.03 0.00427225
1.04 0.00698939
1.05 0.008785
1.06 0.00948299
1.07 0.00897605
1.08 0.00741929
1.09 0.00479456
1.1 0.00149741
1.11 -0.00222911
1.12 -0.00597541
1.13 -0.00937884
1.14 -0.0119579
1.15 -0.013484
1.16 -0.0135012
1.17 -0.0119422
1.18 -0.00867612
1.19 -0.00367668
1.2 0.00274588
1.21 0.0105228
1.22 0.0190742
1.23 0.0280194
1.24 0.0367867
1.25 0.0448847
1.26 0.0516346
1.27 0.05675
1.28 0.0595652
1.29 0.0599738
1.3 0.0577335
1.31 0.0526978
1.32 0.0452284
1.33 0.035167
1.34 0.0232529
1.35 0.00975334
1.36 -0.0047073
1.37 -0.019557
1.38 -0.0341536
1.39 -0.0479812
1.4 -0.060361
1.41 -0.0709448
1.42 -0.0793294
1.43 -0.0851391
1.44 -0.0884928
1.45 -0.088916
1.46 -0.086914
1.47 -0.0824063
1.48 -0.0757287
1.49 -0.0672451
1.5 -0.0571565
1.51 -0.046014
1.52 -0.0340661
1.53 -0.0217572
1.54 -0.00939366
1.55 0.00268935
1.56 0.0142803
1.57 0.025027
1.58 0.0348614
1.59 0.0435299
1.6 0.0509161
1.61 0.0569617
1.62 0.0614068
1.63 0.0643752
1.64 0.0655865
1.65 0.0651442
1.66 0.062973
1.67 0.0590051
1.68 0.0534485
1.69 0.046112
1.7 0.0373802
1.71 0.0272848
1.72 0.0161062
1.73 0.00413586
1.74 -0.00835549
1.75 -0.02098
1.76 -0.0333786
1.77 -0.045209
1.78 -0.0561467
1.79 -0.0658437
1.8 -0.0742257
1.81 -0.0808987
1.82 -0.086063
1.83 -0.0896113
1.84 -0.0917348
1.85 -0.0926938
1.86 -0.092698
1.87 -0.0921975
1.88 -0.0915221
1.89 -0.091076
1.9 -0.0911927
1.91 -0.0922132
1.92 -0.0942312
1.93 -0.0975359
1.94 -0.101917
1.95 -0.107339
1.96 -0.113485
1.97 -0.119982
1.98 -0.126333
1.99 -0.132055
2 -0.136453
2.01 -0.139054
2.02 -0.139304
2.03 -0.136586
2.04 -0.13086
2.05 -0.1213
2.06 -0.108339
2.07 -0.0916454
2.08 -0.0714574
2.09 -0.0481383
2.1 -0.0217268
2.11 0.00700303
2.12 0.0379102
2.13 0.0703491
2.14 0.103972
2.15 0.138428
2.16 0.173371
2.17 0.208642
2.18 0.244064
2.19 0.279587
2.2 0.315191
2.21 0.350875
2.22 0.38664
2.23 0.422423
2.24 0.458082
2.25 0.493371
2.26 0.527921
2.27 0.561116
2.28 0.592492
2.29 0.620809
2.3 0.645613
2.31 0.665601
2.32 0.679837
2.33 0.687698
2.34 0.687531
2.35 0.679748
2.36 0.662842
2.37 0.637463
2.38 0.603545
2.39 0.561293
2.4 0.512277
2.41 0.456619
2.42 0.396668
2.43 0.333576
2.44 0.269282
2.45 0.205451
2.46 0.144092
2.47 0.086372
2.48 0.0342226
2.49 -0.0117587
2.5 -0.0507606
2.51 -0.0821615
2.52 -0.106808
2.53 -0.12408
2.54 -0.135875
2.55 -0.142758
2.56 -0.146275
2.57 -0.147878
2.58 -0.149003
2.59 -0.150995
2.6 -0.155224
2.61 -0.162451
2.62 -0.173323
2.63 -0.188266
2.64 -0.206771
2.65 -0.228921
2.66 -0.253416
2.67 -0.279479
2.68 -0.305798
2.69 -0.331225
2.7 -0.354277
2.71 -0.374246
2.72 -0.389803
2.73 -0.40075
2.74 -0.406771
2.75 -0.407834
2.76 -0.404898
2.77 -0.398249
2.78 -0.389543
2.79 -0.379881
2.8 -0.370811
2.81 -0.363592
2.82 -0.359902
2.83 -0.360286
2.84 -0.366101
2.85 -0.377267
2.86 -0.393877
2.87 -0.415644
2.88 -0.441274
2.89 -0.470043
2.9 -0.500024
2.91 -0.52971
2.92 -0.557275
2.93 -0.581324
2.94 -0.599826
2.95 -0.612436
2.96 -0.617575
2.97 -0.615607
2.98 -0.606567
2.99 -0.590936
3 -0.570405
3.01 -0.545866
3.02 -0.519671
3.03 -0.493565
3.04 -0.469642
3.05 -0.449475
3.06 -0.435273
3.07 -0.427386
3.08 -0.427446
3.09 -0.434986
3.1 -0.44987
3.11 -0.471473
3.12 -0.49795
3.13 -0.528239
3.14 -0.559906
3.15 -0.591122
3.16 -0.619811
3.17 -0.644502
3.18 -0.663159
3.19 -0.675694
3.2 -0.68087
3.21 -0.679525
3.22 -0.672247
3.23 -0.660237
3.24 -0.645544
3.25 -0.63007
3.26 -0.616133
3.27 -0.606044
3.28 -0.601889
3.29 -0.604927
3.3 -0.617298
3.31 -0.638298
3.32 -0.668942
3.33 -0.707515
3.34 -0.752751
3.35 -0.802579
3.36 -0.854227
3.37 -0.904738
3.38 -0.951368
3.39 -0.991019
3.4 -1.02122
3.41 -1.04067
3.42 -1.0468
3.43 -1.04101
3.44 -1.02227
3.45 -0.993169
3.46 -0.955591
3.47 -0.912392
3.48 -0.867163
3.49 -0.823642
3.5 -0.785042
3.51 -0.754865
3.52 -0.735536
3.53 -0.727925
3.54 -0.733726
3.55 -0.750208
3.56 -0.776219
3.57 -0.806918
3.58 -0.83751
3.59 -0.860969
3.6 -0.871611
3.61 -0.858515
3.62 -0.81744
3.63 -0.738623
3.64 -0.615945
3.65 -0.446664
3.66 -0.221439
3.67 0.0538107
3.68 0.385014
3.69 0.764115
3.7 1.18685
3.71 1.64633
3.72 2.12984
3.73 2.62809
3.74 3.12607
3.75 3.61025
3.76 4.06586
3.77 4.48184
3.78 4.83922
3.79 5.13522
3.8 5.35201
3.81 5.48936
3.82 5.5419
3.83 5.50463
3.84 5.38832
3.85 5.18463
3.86 4.91302
3.87 4.57629
3.88 4.18775
3.89 3.76093
3.9 3.30621
3.91 2.83962
3.92 2.37295
3.93 1.91846
3.94 1.48625
3.95 1.08711
3.96 0.723818
3.97 0.407953
3.98 0.135386
3.99 -0.0893484
4 -0.268673
4.01 -0.407361
4.02 -0.505563
4.03 -0.573541
4.04 -0.613389
4.05 -0.633781
4.06 -0.639951
4.07 -0.63745
4.08 -0.631568
4.09 -0.626312
4.1 -0.624572
4.11 -0.628568
4.12 -0.639179
4.13 -0.65607
4.14 -0.678994
4.15 -0.705716
4.16 -0.734636
4.17 -0.763205
4.18 -0.789199
4.19 -0.809991
4.2 -0.824321
4.21 -0.829239
4.22 -0.824933
4.23 -0.809931
4.24 -0.784297
4.25 -0.748825
4.26 -0.703208
4.27 -0.649785
4.28 -0.588875
4.29 -0.522581
4.3 -0.452173
4.31 -0.37903
4.32 -0.304592
4.33 -0.229906
4.34 -0.155907
4.35 -0.0833434
4.36 -0.0127399
4.37 0.0556696
4.38 0.121344
4.39 0.184464
4.4 0.24449
4.41 0.301437
4.42 0.35495
4.43 0.404391
4.44 0.449689
4.45 0.489379
4.46 0.523489
4.47 0.55071
4.48 0.570284
4.49 0.581862
4.5 0.583731
4.51 0.576685
4.52 0.559219
4.53 0.532151
4.54 0.495533
4.55 0.449521
4.56 0.39583
4.57 0.334397
4.58 0.267614
4.59 0.196447
4.6 0.122689
4.61 0.0479365
4.62 -0.0261227
4.63 -0.0981867
4.64 -0.166616
4.65 -0.230575
4.66 -0.2892
4.67 -0.341613
4.68 -0.388208
4.69 -0.427993
4.7 -0.462167
4.71 -0.490679
4.72 -0.514316
4.73 -0.533994
4.74 -0.55017
4.75 -0.564088
4.76 -0.576276
4.77 -0.587618
4.78 -0.59867
4.79 -0.609949
4.8 -0.621737
4.81 -0.634335
4.82 -0.647684
4.83 -0.661779
4.84 -0.676423
4.85 -0.691363
4.86 -0.706298
4.87 -0.720924
4.88 -0.734866
4.89 -0.747873
4.9 -0.759691
4.91 -0.77004
4.92 -0.778951
4.93 -0.786102
4.94 -0.791737
4.95 -0.795788
4.96 -0.79842
4.97 -0.799865
4.98 -0.800242
4.99 -0.799943
5 -0.799186
5.01 -0.798336
5.02 -0.797697
5.03 -0.797638
5.04 -0.798375
5.05 -0.800359
5.06 -0.803646
5.07 -0.808507
5.08 -0.814996
5.09 -0.823002
5.1 -0.832521
5.11 -0.843056
5.12 -0.854239
5.13 -0.865338
5.14 -0.87557
5.15 -0.883774
5.16 -0.889123
5.17 -0.889674
5.18 -0.884727
5.19 -0.872423
5.2 -0.851394
5.21 -0.820899
5.22 -0.778503
5.23 -0.724931
5.24 -0.658077
5.25 -0.578773
5.26 -0.487001
5.27 -0.382881
5.28 -0.26872
5.29 -0.144657
5.3 -0.0141213
5.31 0.121034
5.32 0.257687
5.33 0.392976
5.34 0.523063
5.35 0.645557
5.36 0.756136
5.37 0.852678
5.38 0.932495
5.39 0.992317
5.4 1.03274
5.41 1.04927
5.42 1.04481
5.43 1.01775
5.44 0.969444
5.45 0.902316
5.46 0.816423
5.47 0.716633
5.48 0.6041
5.49 0.483066
5.5 0.356421
5.51 0.227466
5.52 0.0992285
5.53 -0.0249295
5.54 -0.143056
5.55 -0.252558
5.56 -0.351757
5.57 -0.440071
5.58 -0.515327
5.59 -0.578982
5.6 -0.629624
5.61 -0.668768
5.62 -0.696943
5.63 -0.714663
5.64 -0.724003
5.65 -0.724845
5.66 -0.719471
5.67 -0.708361
5.68 -0.69261
5.69 -0.673166
5.7 -0.650287
5.71 -0.624865
5.72 -0.596895
5.73 -0.566786
5.74 -0.534619
5.75 -0.50038
5.76 -0.464362
5.77 -0.426412
5.78 -0.386997
5.79 -0.346293
5.8 -0.304783
5.81 -0.263013
5.82 -0.221718
5.83 -0.181574
5.84 -0.143624
5.85 -0.108631
5.86 -0.0774818
5.87 -0.0513318
5.88 -0.0303597
5.89 -0.0161853
5.9 -0.00838807
5.91 -0.00783991
5.92 -0.0145876
5.93 -0.0282087
5.94 -0.0492745
5.95 -0.0763978
5.96 -0.10978
5.97 -0.148206
5.98 -0.191009
5.99 -0.237467
6 -0.286411
6.01 -0.337282
6.02 -0.389001
6.03 -0.440905
6.04 -0.492257
6.05 -0.542552
6.06 -0.591094
6.07 -0.637734
6.08 -0.681889
6.09 -0.723495
6.1 -0.762343
6.11 -0.79814
6.12 -0.831121
6.13 -0.860743
6.14 -0.887426
6.15 -0.910911
6.16 -0.931269
6.17 -0.948717
6.18 -0.963015
6.19 -0.974737
6.2 -0.983776
6.21 -0.990642
6.22 -0.995639
6.23 -0.999129
6.24 -1.00168
6.25 -1.00366
6.26 -1.00559
6.27 -1.00784
6.28 -1.01069
6.29 -1.01421
6.3 -1.01835
6.31 -1.02264
6.32 -1.02637
6.33 -1.02846
6.34 -1.02755
6.35 -1.02145
6.36 -1.00877
6.37 -0.985608
6.38 -0.950658
6.39 -0.900131
6.4 -0.831082
6.41 -0.741924
6.42 -0.627167
6.43 -0.488115
6.44 -0.319803
6.45 -0.123387
6.46 0.101718
6.47 0.356302
6.48 0.635769
6.49 0.941265
6.5 1.26559
6.51 1.60577
6.52 1.95557
6.53 2.30873
6.54 2.65775
6.55 2.99624
6.56 3.31498
6.57 3.60776
6.58 3.86762
6.59 4.08556
6.6 4.26091
6.61 4.38136
6.62 4.45096
6.63 4.46356
6.64 4.41931
6.65 4.32215
6.66 4.16823
6.67 3.96878
6.68 3.72315
6.69 3.4413
6.7 3.12935
6.71 2.7942
6.72 2.44554
6.73 2.09018
6.74 1.73682
6.75 1.39275
6.76 1.06503
6.77 0.757966
6.78 0.479528
6.79 0.229224
6.8 0.0131473
6.81 -0.170098
6.82 -0.320138
6.83 -0.436329
6.84 -0.524038
6.85 -0.58157
6.86 -0.616224
6.87 -0.629637
6.88 -0.626183
6.89 -0.610225
6.9 -0.584331
6.91 -0.552992
6.92 -0.518531
6.93 -0.483728
6.94 -0.450389
6.95 -0.420186
6.96 -0.393645
6.97 -0.371963
6.98 -0.354656
6.99 -0.341982
7 -0.333587
7.01 -0.328903
7.02 -0.32797
7.03 -0.329977
7.04 -0.335076
7.05 -0.342937
7.06 -0.353624
7.07 -0.367462
7.08 -0.384331
7.09 -0.405052
7.1 -0.429381
7.11 -0.457812
7.12 -0.490389
7.13 -0.526815
7.14 -0.56727
7.15 -0.610748
7.16 -0.656918
7.17 -0.704651
7.18 -0.752985
7.19 -0.800672
7.2 -0.846706
7.21 -0.889505
7.22 -0.92844
7.23 -0.962335
7.24 -0.99052
7.25 -1.01295
7.26 -1.02876
7.27 -1.03901
7.28 -1.04348
7.29 -1.04331
7.3 -1.03928
7.31 -1.03227
7.32 -1.02352
7.33 -1.01379
7.34 -1.00398
7.35 -0.994605
7.36 -0.98593
7.37 -0.977814
7.38 -0.969781
7.39 -0.961006
7.4 -0.950153
7.41 -0.935828
7.42 -0.916426
7.43 -0.889659
7.44 -0.854701
7.45 -0.808328
7.46 -0.750638
7.47 -0.679692
7.48 -0.59497
7.49 -0.497168
7.5 -0.385168
7.51 -0.261924
7.52 -0.127726
7.53 0.0143041
7.54 0.161723
7.55 0.31141
7.56 0.460115
7.57 0.603794
7.58 0.739676
7.59 0.863958
7.6 0.97351
7.61 1.06682
7.62 1.1394
7.63 1.19262
7.64 1.22305
7.65 1.2321
7.66 1.21992
7.67 1.18641
7.68 1.13522
7.69 1.06566
7.7 0.982491
7.71 0.887171
7.72 0.782828
7.73 0.672551
7.74 0.558795
7.75 0.4446
7.76 0.332525
7.77 0.224797
7.78 0.123327
7.79 0.0303746
7.8 -0.0537248
7.81 -0.12632
7.82 -0.188183
7.83 -0.238043
7.84 -0.27585
7.85 -0.30241
7.86 -0.316696
7.87 -0.320959
7.88 -0.314782
7.89 -0.300013
7.9 -0.277737
7.91 -0.249091
7.92 -0.216171
7.93 -0.180155
7.94 -0.143206
7.95 -0.106998
7.96 -0.0734665
7.97 -0.0440239
7.98 -0.0210468
7.99 -0.00501913
8 0.00193407
8.01 -0.000469047
8.02 -0.0128202
8.03 -0.0359053
8.04 -0.0683793
8.05 -0.111116
8.06 -0.161801
8.07 -0.219796
8.08 -0.283334
8.09 -0.350495
8.1 -0.419605
8.11 -0.488598
8.12 -0.555586
8.13 -0.619009
8.14 -0.67756
8.15 -0.729784
8.16 -0.775755
8.17 -0.814134
8.18 -0.846028
8.19 -0.87139
8.2 -0.891101
8.21 -0.906372
8.22 -0.917851
8.23 -0.927072
8.24 -0.934711
8.25 -0.941598
8.26 -0.948036
8.27 -0.953883
8.28 -0.95866
8.29 -0.960928
8.3 -0.959367
8.31 -0.951633
8.32 -0.935083
8.33 -0.90776
8.34 -0.864987
8.35 -0.80621
8.36 -0.726743
8.37 -0.625834
8.38 -0.501912
8.39 -0.352736
8.4 -0.181122
8.41 0.0154296
8.42 0.231627
8.43 0.466038
8.44 0.714231
8.45 0.971079
8.46 1.2315
8.47 1.48937
8.48 1.73797
8.49 1.97151
8.5 2.18431
8.51 2.36898
8.52 2.5242
8.53 2.64073
8.54 2.72067
8.55 2.75948
8.56 2.75682
8.57 2.71569
8.58 2.633
8.59 2.51711
8.6 2.36761
8.61 2.19156
8.62 1.99349
8.63 1.77808
8.64 1.55221
8.65 1.32028
8.66 1.08824
8.67 0.860641
8.68 0.641974
8.69 0.434854
8.7 0.24396
8.71 0.0689626
8.72 -0.086857
8.73 -0.224309
8.74 -0.343425
8.75 -0.443869
8.76 -0.528721
8.77 -0.597111
8.78 -0.652891
8.79 -0.696895
8.8 -0.731239
8.81 -0.758155
8.82 -0.778607
8.83 -0.794939
8.84 -0.808001
8.85 -0.81919
8.86 -0.829338
8.87 -0.83917
8.88 -0.849193
8.89 -0.859848
8.9 -0.871292
8.91 -0.883712
8.92 -0.897168
8.93 -0.911602
8.94 -0.9271
8.95 -0.943453
8.96 -0.960672
8.97 -0.97857
8.98 -0.997015
8.99 -1.01584
9 -1.03481
9.01 -1.05366
9.02 -1.07211
9.03 -1.08981
9.04 -1.10637
9.05 -1.1215
9.06 -1.13455
9.07 -1.14538
9.08 -1.15332
9.09 -1.15813
9.1 -1.15946
9.11 -1.15674
9.12 -1.15015
9.13 -1.1388
9.14 -1.12313
9.15 -1.10269
9.16 -1.07746
9.17 -1.04771
9.18 -1.01292
9.19 -0.973883
9.2 -0.93026
9.21 -0.882629
9.22 -0.831281
9.23 -0.776448
9.24 -0.718968
9.25 -0.659083
9.26 -0.597804
9.27 -0.535799
9.28 -0.474045
9.29 -0.413405
9.3 -0.355219
9.31 -0.300175
9.32 -0.249784
9.33 -0.20482
9.34 -0.166203
9.35 -0.13527
9.36 -0.11179
9.37 -0.0974875
9.38 -0.0914087
9.39 -0.0941051
9.4 -0.105167
9.41 -0.123511
9.42 -0.149101
9.43 -0.179855
9.44 -0.215056
9.45 -0.252864
9.46 -0.291856
9.47 -0.330386
9.48 -0.367177
9.49 -0.400487
9.5 -0.429666
9.51 -0.453626
9.52 -0.471843
9.53 -0.484525
9.54 -0.491123
9.55 -0.492956
9.56 -0.490241
9.57 -0.484368
9.58 -0.476447
9.59 -0.467803
9.6 -0.459712
9.61 -0.453662
9.62 -0.450509
9.63 -0.45134
9.64 -0.456855
9.65 -0.467099
9.66 -0.482808
9.67 -0.50303
9.68 -0.527847
9.69 -0.556231
9.7 -0.587396
9.71 -0.620454
9.72 -0.654293
9.73 -0.687958
9.74 -0.720571
9.75 -0.751301
9.76 -0.779443
9.77 -0.804693
9.78 -0.826189
9.79 -0.844135
9.8 -0.857771
9.81 -0.867017
9.82 -0.87144
9.83 -0.87001
9.84 -0.862576
9.85 -0.846862
9.86 -0.822416
9.87 -0.786866
9.88 -0.737986
9.89 -0.674555
9.9 -0.591805
9.91 -0.490083
9.92 -0.364659
9.93 -0.215022
9.94 -0.0397127
9.95 0.163935
9.96 0.392905
9.97 0.650422
9.98 0.931127
9.99 1.23398
10 1.55478
10.01 1.88804
10.02 2.22901
10.03 2.57051
10.04 2.90552
10.05 3.22692
10.06 3.52799
10.07 3.79962
10.08 4.03919
10.09 4.23524
10.1 4.38855
10.11 4.49273
10.12 4.5456
10.13 4.54982
10.14 4.49953
10.15 4.40435
10.16 4.2622
10.17 4.08101
10.18 3.86589
10.19 3.62165
10.2 3.35761
10.21 3.07825
10.22 2.79231
10.23 2.5055
10.24 2.22421
10.25 1.95269
10.26 1.6971
10.27 1.45832
10.28 1.24065
10.29 1.04396
10.3 0.868455
10.31 0.714822
10.32 0.579406
10.33 0.463009
10.34 0.360946
10.35 0.271797
10.36 0.19274
10.37 0.120874
10.38 0.0545924
10.39 -0.00875193
10.4 -0.0704118
10.41 -0.131726
10.42 -0.1934
10.43 -0.255877
10.44 -0.319097
10.45 -0.382897
10.46 -0.446738
10.47 -0.510042
10.48 -0.572086
10.49 -0.632353
10.5 -0.68989
10.51 -0.744573
10.52 -0.795621
10.53 -0.842955
10.54 -0.886398
10.55 -0.925574
10.56 -0.960925
10.57 -0.99183
10.58 -1.01884
10.59 -1.04165
10.6 -1.06019
10.61 -1.07465
10.62 -1.08425
10.63 -1.08947
10.64 -1.08955
10.65 -1.0846
10.66 -1.07449
10.67 -1.05878
10.68 -1.03817
10.69 -1.01209
10.7 -0.981625
10.71 -0.947018
10.72 -0.909105
10.73 -0.868943
10.74 -0.827452
10.75 -0.785949
10.76 -0.7457
10.77 -0.707922
10.78 -0.673712
10.79 -0.644508
10.8 -0.620576
10.81 -0.603535
10.82 -0.592996
10.83 -0.589601
10.84 -0.593284
10.85 -0.603301
10.86 -0.619929
10.87 -0.641551
10.88 -0.667894
10.89 -0.69764
10.9 -0.729848
10.91 -0.763562
10.92 -0.797751
10.93 -0.831549
10.94 -0.864282
10.95 -0.89533
10.96 -0.924245
10.97 -0.950939
10.98 -0.974976
10.99 -0.996745
11 -1.01609
11.01 -1.03337
11.02 -1.04882
11.03 -1.0626
11.04 -1.07513
11.05 -1.08646
11.06 -1.09692
11.07 -1.10661
11.08 -1.11561
11.09 -1.124
11.1 -1.1317
11.11 -1.13875
11.12 -1.14498
11.13 -1.1503
11.14 -1.15454
11.15 -1.15736
11.16 -1.15865
11.17 -1.15772
11.18 -1.15437
11.19 -1.14782
11.2 -1.13726
11.21 -1.12216
11.22 -1.10067
11.23 -1.07256
11.24 -1.03568
11.25 -0.989131
11.26 -0.931647
11.27 -0.860942
11.28 -0.777367
11.29 -0.677715
11.3 -0.563188
11.31 -0.432416
11.32 -0.285455
11.33 -0.123928
11.34 0.0529075
11.35 0.241228
11.36 0.440044
11.37 0.64564
11.38 0.854827
11.39 1.06356
11.4 1.26811
11.41 1.46305
11.42 1.64521
11.43 1.80971
11.44 1.95233
11.45 2.07152
11.46 2.16072
11.47 2.22217
11.48 2.25117
11.49 2.24934
11.5 2.21723
11.51 2.15423
11.52 2.06579
11.53 1.95101
11.54 1.81655
11.55 1.66482
11.56 1.50025
11.57 1.32754
11.58 1.15025
11.59 0.972791
11.6 0.798735
11.61 0.631083
11.62 0.47211
11.63 0.324513
11.64 0.188123
11.65 0.0653727
11.66 -0.0453792
11.67 -0.143817
11.68 -0.230892
11.69 -0.308471
11.7 -0.376787
11.71 -0.438541
11.72 -0.494382
11.73 -0.546021
11.74 -0.594469
11.75 -0.640396
11.76 -0.684534
11.77 -0.72678
11.78 -0.767206
11.79 -0.805263
11.8 -0.840197
11.81 -0.871441
11.82 -0.897322
11.83 -0.91758
11.84 -0.930458
11.85 -0.935376
11.86 -0.931574
11.87 -0.917649
11.88 -0.894289
11.89 -0.859679
11.9 -0.815107
11.91 -0.760068
11.92 -0.694922
11.93 -0.620876
11.94 -0.537493
11.95 -0.446949
11.96 -0.349433
11.97 -0.246595
11.98 -0.139643
11.99 -0.0298268
12 0.0811968
12.01 0.191926
12.02 0.300793
12.03 0.406113
12.04 0.506075
12.05 0.599582
12.06 0.683866
12.07 0.758767
12.08 0.821721
12.09 0.87216
12.1 0.909215
12.11 0.931097
12.12 0.93913
12.13 0.931035
12.14 0.909022
12.15 0.872821
12.16 0.823485
12.17 0.763155
12.18 0.69214
12.19 0.613773
12.2 0.529274
12.21 0.441283
12.22 0.351824
12.23 0.263115
12.24 0.176802
12.25 0.0950668
12.26 0.0186774
12.27 -0.0511315
12.28 -0.113753
12.29 -0.169579
12.3 -0.217921
12.31 -0.26042
12.32 -0.297278
12.33 -0.32998
12.34 -0.359668
12.35 -0.387493
12.36 -0.414703
12.37 -0.442258
12.38 -0.470817
