# xPDFsuite Configuration #
[PDF]
wavelength = 0.1432
dataformat = twotheta
inputfile = 1_1Pd_CeO2_cycle-00155.chi
backgroundfile = background-00000.chi
mode = xray
bgscale = 1.007
composition = CeO2
outputtype = gr
qmaxinst = 28.8974762299
qmin = 0.5
qmax = 27.9
rmax = 50.0
rmin = 0.0
rstep = 0.01
rpoly = 1.8657

[Misc]
inputdir = G:/SankarDec16/1Pd/Chi
savedir = D:/DATA/APS_CeO2/1Pd
backgroundfilefull = G:/SankarDec16/Background/background-00000.chi

#### start data
#S 1
#L r($\AA$)  G($\AA^{-2}$)
0 0
0.01 -0.00548258
0.02 -0.0105518
0.03 -0.0147821
0.04 -0.017853
0.05 -0.0195861
0.06 -0.0196951
0.07 -0.018371
0.08 -0.015522
0.09 -0.011513
0.1 -0.00659627
0.11 -0.0011583
0.12 0.00437996
0.13 0.00954589
0.14 0.0140053
0.15 0.0173486
0.16 0.0193365
0.17 0.0198738
0.18 0.018766
0.19 0.0162943
0.2 0.012471
0.21 0.00772151
0.22 0.00236037
0.23 -0.00317854
0.24 -0.00849927
0.25 -0.0130927
0.26 -0.0167198
0.27 -0.0190071
0.28 -0.0198079
0.29 -0.0191148
0.3 -0.0168348
0.31 -0.0133263
0.32 -0.00870487
0.33 -0.00343645
0.34 0.00211757
0.35 0.0074963
0.36 0.0123481
0.37 0.016152
0.38 0.0187756
0.39 0.0198997
0.4 0.0194776
0.41 0.0175906
0.42 0.0142517
0.43 0.00987955
0.44 0.00468748
0.45 -0.000839962
0.46 -0.00631215
0.47 -0.0112631
0.48 -0.0154029
0.49 -0.0182237
0.5 -0.0197065
0.51 -0.0196024
0.52 -0.0179671
0.53 -0.0149668
0.54 -0.0107209
0.55 -0.00568791
0.56 -0.00016921
0.57 0.00535536
0.58 0.0104849
0.59 0.0147706
0.6 0.0179987
0.61 0.0196993
0.62 0.0199682
0.63 0.018639
0.64 0.0158677
0.65 0.011898
0.66 0.0069504
0.67 0.00150117
0.68 -0.00407442
0.69 -0.00932421
0.7 -0.0138565
0.71 -0.0172613
0.72 -0.0194114
0.73 -0.0198976
0.74 -0.0189261
0.75 -0.0164207
0.76 -0.0126303
0.77 -0.00786344
0.78 -0.00243053
0.79 0.0031979
0.8 0.00859277
0.81 0.0133519
0.82 0.0171136
0.83 0.0195275
0.84 0.0205596
0.85 0.0198833
0.86 0.0178035
0.87 0.0143379
0.88 0.00981403
0.89 0.00458721
0.9 -0.000962059
0.91 -0.00639736
0.92 -0.0112658
0.93 -0.0152425
0.94 -0.0180242
0.95 -0.0193515
0.96 -0.019292
0.97 -0.0176422
0.98 -0.0147918
0.99 -0.0108723
1 -0.00628198
1.01 -0.00140939
1.02 0.00329533
1.03 0.00746702
1.04 0.0106393
1.05 0.0126023
1.06 0.0131384
1.07 0.012115
1.08 0.00973214
1.09 0.00595804
1.1 0.00129313
1.11 -0.00396732
1.12 -0.00931319
1.13 -0.0142909
1.14 -0.0183042
1.15 -0.0210548
1.16 -0.0219691
1.17 -0.0209411
1.18 -0.0177849
1.19 -0.0124326
1.2 -0.00524005
1.21 0.00376991
1.22 0.0139032
1.23 0.024751
1.24 0.0356478
1.25 0.046013
1.26 0.0550766
1.27 0.0624601
1.28 0.0673991
1.29 0.0697206
1.3 0.0691148
1.31 0.0653691
1.32 0.0588477
1.33 0.0493089
1.34 0.0375497
1.35 0.0238062
1.36 0.00873176
1.37 -0.00706551
1.38 -0.0229459
1.39 -0.0383199
1.4 -0.0525086
1.41 -0.0651026
1.42 -0.0756698
1.43 -0.0837983
1.44 -0.0895573
1.45 -0.0924372
1.46 -0.0928881
1.47 -0.0907769
1.48 -0.0863785
1.49 -0.0800037
1.5 -0.0717595
1.51 -0.0621671
1.52 -0.0513639
1.53 -0.0397683
1.54 -0.0276265
1.55 -0.0152145
1.56 -0.00278157
1.57 0.00940686
1.58 0.0211673
1.59 0.0322438
1.6 0.0424241
1.61 0.0515451
1.62 0.0592446
1.63 0.0655018
1.64 0.069897
1.65 0.0724053
1.66 0.0728276
1.67 0.0709654
1.68 0.0670027
1.69 0.0606005
1.7 0.0522265
1.71 0.0418756
1.72 0.0299061
1.73 0.0167113
1.74 0.00264534
1.75 -0.0117342
1.76 -0.0259426
1.77 -0.0394878
1.78 -0.0519219
1.79 -0.0627711
1.8 -0.0719274
1.81 -0.0788865
1.82 -0.0839235
1.83 -0.0869331
1.84 -0.0882062
1.85 -0.0881196
1.86 -0.0870195
1.87 -0.0855057
1.88 -0.0840821
1.89 -0.0832736
1.9 -0.0835326
1.91 -0.0853083
1.92 -0.0886657
1.93 -0.0939808
1.94 -0.100882
1.95 -0.109272
1.96 -0.118659
1.97 -0.128492
1.98 -0.138058
1.99 -0.146697
2 -0.153476
2.01 -0.157811
2.02 -0.159023
2.03 -0.15641
2.04 -0.150024
2.05 -0.138997
2.06 -0.124022
2.07 -0.104908
2.08 -0.0821645
2.09 -0.056404
2.1 -0.0279851
2.11 0.00213725
2.12 0.0335144
2.13 0.0654308
2.14 0.0974509
2.15 0.129209
2.16 0.160585
2.17 0.191526
2.18 0.222279
2.19 0.253151
2.2 0.284594
2.21 0.317017
2.22 0.351035
2.23 0.38678
2.24 0.424699
2.25 0.464572
2.26 0.506175
2.27 0.548917
2.28 0.591882
2.29 0.633736
2.3 0.673208
2.31 0.708451
2.32 0.737699
2.33 0.759599
2.34 0.771462
2.35 0.773234
2.36 0.762351
2.37 0.739221
2.38 0.703347
2.39 0.654606
2.4 0.595102
2.41 0.524629
2.42 0.446716
2.43 0.36295
2.44 0.276331
2.45 0.189541
2.46 0.10578
2.47 0.027181
2.48 -0.0430095
2.49 -0.103493
2.5 -0.152671
2.51 -0.189175
2.52 -0.21413
2.53 -0.226104
2.54 -0.228104
2.55 -0.22081
2.56 -0.206729
2.57 -0.18834
2.58 -0.168067
2.59 -0.148531
2.6 -0.132311
2.61 -0.121194
2.62 -0.116768
2.63 -0.12042
2.64 -0.131701
2.65 -0.151687
2.66 -0.178315
2.67 -0.210932
2.68 -0.247532
2.69 -0.286126
2.7 -0.324523
2.71 -0.360789
2.72 -0.392631
2.73 -0.418821
2.74 -0.43817
2.75 -0.44974
2.76 -0.454287
2.77 -0.451209
2.78 -0.442661
2.79 -0.429588
2.8 -0.414051
2.81 -0.397973
2.82 -0.383592
2.83 -0.372461
2.84 -0.366724
2.85 -0.367147
2.86 -0.374532
2.87 -0.389312
2.88 -0.410343
2.89 -0.437555
2.9 -0.46858
2.91 -0.501952
2.92 -0.535354
2.93 -0.566797
2.94 -0.593673
2.95 -0.614835
2.96 -0.627967
2.97 -0.632792
2.98 -0.628786
2.99 -0.615892
3 -0.595817
3.01 -0.569004
3.02 -0.538351
3.03 -0.505721
3.04 -0.473792
3.05 -0.444755
3.06 -0.421499
3.07 -0.405062
3.08 -0.397849
3.09 -0.399882
3.1 -0.411491
3.11 -0.432457
3.12 -0.460752
3.13 -0.495619
3.14 -0.533927
3.15 -0.573588
3.16 -0.611831
3.17 -0.646507
3.18 -0.674795
3.19 -0.695979
3.2 -0.708009
3.21 -0.711336
3.22 -0.706155
3.23 -0.693366
3.24 -0.675334
3.25 -0.653786
3.26 -0.631847
3.27 -0.612209
3.28 -0.59773
3.29 -0.59038
3.3 -0.593144
3.31 -0.605866
3.32 -0.630359
3.33 -0.665167
3.34 -0.709303
3.35 -0.76085
3.36 -0.816586
3.37 -0.873536
3.38 -0.92808
3.39 -0.9766
3.4 -1.01581
3.41 -1.04373
3.42 -1.05694
3.43 -1.05649
3.44 -1.04069
3.45 -1.01214
3.46 -0.972738
3.47 -0.925556
3.48 -0.874885
3.49 -0.825045
3.5 -0.780253
3.51 -0.744967
3.52 -0.722636
3.53 -0.714857
3.54 -0.724498
3.55 -0.748792
3.56 -0.787359
3.57 -0.834833
3.58 -0.886064
3.59 -0.933261
3.6 -0.969378
3.61 -0.98213
3.62 -0.965575
3.63 -0.908089
3.64 -0.801704
3.65 -0.642381
3.66 -0.418395
3.67 -0.135746
3.68 0.213403
3.69 0.620318
3.7 1.08063
3.71 1.58692
3.72 2.12425
3.73 2.68239
3.74 3.24316
3.75 3.7908
3.76 4.30754
3.77 4.7799
3.78 5.18536
3.79 5.51997
3.8 5.76252
3.81 5.91235
3.82 5.96299
3.83 5.90853
3.84 5.76173
3.85 5.51322
3.86 5.18619
3.87 4.78465
3.88 4.3249
3.89 3.82343
3.9 3.29362
3.91 2.75438
3.92 2.22075
3.93 1.7071
3.94 1.2256
3.95 0.78918
3.96 0.400217
3.97 0.0726484
3.98 -0.199917
3.99 -0.412703
4 -0.569826
4.01 -0.678113
4.02 -0.739069
4.03 -0.765921
4.04 -0.762584
4.05 -0.740132
4.06 -0.705646
4.07 -0.666637
4.08 -0.629158
4.09 -0.599105
4.1 -0.578899
4.11 -0.571419
4.12 -0.577082
4.13 -0.594687
4.14 -0.623642
4.15 -0.660009
4.16 -0.70145
4.17 -0.743954
4.18 -0.784271
4.19 -0.818681
4.2 -0.845253
4.21 -0.8601
4.22 -0.863348
4.23 -0.853144
4.24 -0.829641
4.25 -0.793945
4.26 -0.745851
4.27 -0.68839
4.28 -0.622147
4.29 -0.549792
4.3 -0.472953
4.31 -0.393342
4.32 -0.312598
4.33 -0.231924
4.34 -0.152218
4.35 -0.0741753
4.36 0.00183071
4.37 0.0757254
4.38 0.147169
4.39 0.216429
4.4 0.283093
4.41 0.347115
4.42 0.408039
4.43 0.465004
4.44 0.517645
4.45 0.564025
4.46 0.603827
4.47 0.635209
4.48 0.656975
4.49 0.668533
4.5 0.667597
4.51 0.655191
4.52 0.629473
4.53 0.591675
4.54 0.542118
4.55 0.481388
4.56 0.411933
4.57 0.334309
4.58 0.25171
4.59 0.165868
4.6 0.0793089
4.61 -0.00591054
4.62 -0.0872962
4.63 -0.163682
4.64 -0.232921
4.65 -0.294571
4.66 -0.34799
4.67 -0.392691
4.68 -0.429882
4.69 -0.459103
4.7 -0.482484
4.71 -0.500705
4.72 -0.515316
4.73 -0.527725
4.74 -0.539128
4.75 -0.550704
4.76 -0.563394
4.77 -0.577722
4.78 -0.593993
4.79 -0.612293
4.8 -0.632159
4.81 -0.653273
4.82 -0.674777
4.83 -0.695935
4.84 -0.715871
4.85 -0.733942
4.86 -0.749169
4.87 -0.761458
4.88 -0.770108
4.89 -0.775342
4.9 -0.777247
4.91 -0.776068
4.92 -0.772616
4.93 -0.767277
4.94 -0.761073
4.95 -0.754695
4.96 -0.748969
4.97 -0.744482
4.98 -0.742027
4.99 -0.741729
5 -0.744137
5.01 -0.749122
5.02 -0.756661
5.03 -0.76665
5.04 -0.778555
5.05 -0.792262
5.06 -0.807096
5.07 -0.822727
5.08 -0.838675
5.09 -0.85455
5.1 -0.869896
5.11 -0.884425
5.12 -0.897621
5.13 -0.909148
5.14 -0.918516
5.15 -0.92496
5.16 -0.92814
5.17 -0.926523
5.18 -0.919764
5.19 -0.906281
5.2 -0.884829
5.21 -0.854606
5.22 -0.813056
5.23 -0.76052
5.24 -0.694451
5.25 -0.615148
5.26 -0.522048
5.27 -0.414588
5.28 -0.29485
5.29 -0.162182
5.3 -0.0202424
5.31 0.129347
5.32 0.283153
5.33 0.437753
5.34 0.58878
5.35 0.73279
5.36 0.864461
5.37 0.98054
5.38 1.07725
5.39 1.14999
5.4 1.1989
5.41 1.2179
5.42 1.21023
5.43 1.17359
5.44 1.10959
5.45 1.0214
5.46 0.909294
5.47 0.77984
5.48 0.635076
5.49 0.48094
5.5 0.321713
5.51 0.16237
5.52 0.00693871
5.53 -0.139354
5.54 -0.274357
5.55 -0.394462
5.56 -0.497851
5.57 -0.584397
5.58 -0.651761
5.59 -0.702986
5.6 -0.737176
5.61 -0.757471
5.62 -0.765629
5.63 -0.763617
5.64 -0.754626
5.65 -0.740016
5.66 -0.722516
5.67 -0.703421
5.68 -0.683986
5.69 -0.664821
5.7 -0.646143
5.71 -0.627608
5.72 -0.60854
5.73 -0.588008
5.74 -0.564979
5.75 -0.538114
5.76 -0.506944
5.77 -0.469928
5.78 -0.427502
5.79 -0.379261
5.8 -0.325861
5.81 -0.268469
5.82 -0.208235
5.83 -0.147257
5.84 -0.0876305
5.85 -0.0315969
5.86 0.0186516
5.87 0.0604018
5.88 0.0928156
5.89 0.112574
5.9 0.120341
5.91 0.114582
5.92 0.0955531
5.93 0.064506
5.94 0.021286
5.95 -0.0309423
5.96 -0.091284
5.97 -0.156779
5.98 -0.225305
5.99 -0.294441
6 -0.362183
6.01 -0.426188
6.02 -0.485493
6.03 -0.5387
6.04 -0.585302
6.05 -0.625576
6.06 -0.659163
6.07 -0.687668
6.08 -0.711512
6.09 -0.732327
6.1 -0.751278
6.11 -0.769646
6.12 -0.788466
6.13 -0.808754
6.14 -0.83082
6.15 -0.854969
6.16 -0.880965
6.17 -0.908244
6.18 -0.936071
6.19 -0.963447
6.2 -0.989198
6.21 -1.01236
6.22 -1.03201
6.23 -1.04719
6.24 -1.05797
6.25 -1.06351
6.26 -1.0648
6.27 -1.06204
6.28 -1.05624
6.29 -1.0485
6.3 -1.03981
6.31 -1.03125
6.32 -1.02363
6.33 -1.01723
6.34 -1.0119
6.35 -1.00676
6.36 -1.00037
6.37 -0.989908
6.38 -0.972859
6.39 -0.945046
6.4 -0.902043
6.41 -0.840536
6.42 -0.752924
6.43 -0.638483
6.44 -0.489563
6.45 -0.305478
6.46 -0.0837849
6.47 0.178445
6.48 0.476319
6.49 0.813175
6.5 1.17973
6.51 1.5729
6.52 1.98447
6.53 2.40563
6.54 2.82646
6.55 3.23704
6.56 3.62474
6.57 3.98005
6.58 4.29299
6.59 4.5509
6.6 4.75243
6.61 4.88114
6.62 4.94263
6.63 4.92936
6.64 4.84257
6.65 4.68853
6.66 4.46421
6.67 4.1854
6.68 3.85375
6.69 3.48344
6.7 3.08401
6.71 2.66633
6.72 2.24247
6.73 1.82356
6.74 1.41885
6.75 1.03802
6.76 0.688668
6.77 0.374217
6.78 0.103488
6.79 -0.12743
6.8 -0.313001
6.81 -0.457962
6.82 -0.564311
6.83 -0.634131
6.84 -0.675438
6.85 -0.689209
6.86 -0.684383
6.87 -0.664434
6.88 -0.634744
6.89 -0.599695
6.9 -0.562649
6.91 -0.526464
6.92 -0.493231
6.93 -0.463889
6.94 -0.438866
6.95 -0.418222
6.96 -0.400963
6.97 -0.386713
6.98 -0.374156
6.99 -0.362619
7 -0.351417
7.01 -0.340243
7.02 -0.32917
7.03 -0.318613
7.04 -0.309489
7.05 -0.302853
7.06 -0.299963
7.07 -0.302579
7.08 -0.311324
7.09 -0.328511
7.1 -0.353843
7.11 -0.388377
7.12 -0.431919
7.13 -0.483415
7.14 -0.542574
7.15 -0.606812
7.16 -0.674674
7.17 -0.743467
7.18 -0.810891
7.19 -0.874121
7.2 -0.931531
7.21 -0.979936
7.22 -1.01903
7.23 -1.04713
7.24 -1.06402
7.25 -1.07062
7.26 -1.06671
7.27 -1.05515
7.28 -1.03703
7.29 -1.01522
7.3 -0.991976
7.31 -0.969911
7.32 -0.95088
7.33 -0.937411
7.34 -0.930003
7.35 -0.929702
7.36 -0.936256
7.37 -0.948447
7.38 -0.965088
7.39 -0.98335
7.4 -1.00044
7.41 -1.01301
7.42 -1.01778
7.43 -1.01046
7.44 -0.989419
7.45 -0.949273
7.46 -0.890423
7.47 -0.810074
7.48 -0.707986
7.49 -0.585873
7.5 -0.442914
7.51 -0.284288
7.52 -0.11144
7.53 0.0703551
7.54 0.256891
7.55 0.442943
7.56 0.624012
7.57 0.79375
7.58 0.949082
7.59 1.08494
7.6 1.19789
7.61 1.28693
7.62 1.3471
7.63 1.38164
7.64 1.38745
7.65 1.36775
7.66 1.32404
7.67 1.25769
7.68 1.17383
7.69 1.0733
7.7 0.961762
7.71 0.841757
7.72 0.717049
7.73 0.590784
7.74 0.466043
7.75 0.344996
7.76 0.230291
7.77 0.123235
7.78 0.0251169
7.79 -0.062475
7.8 -0.140079
7.81 -0.205592
7.82 -0.260404
7.83 -0.303626
7.84 -0.335459
7.85 -0.356734
7.86 -0.366419
7.87 -0.366476
7.88 -0.356223
7.89 -0.337136
7.9 -0.309968
7.91 -0.275475
7.92 -0.235647
7.93 -0.191355
7.94 -0.144966
7.95 -0.0982223
7.96 -0.0534046
7.97 -0.0123599
7.98 0.0219674
7.99 0.048563
8 0.0645692
8.01 0.0692076
8.02 0.0614007
8.03 0.0397869
8.04 0.00583225
8.05 -0.0418826
8.06 -0.100449
8.07 -0.16914
8.08 -0.245628
8.09 -0.327285
8.1 -0.411791
8.11 -0.4962
8.12 -0.577803
8.13 -0.654319
8.14 -0.723834
8.15 -0.784224
8.16 -0.83559
8.17 -0.876037
8.18 -0.907237
8.19 -0.92926
8.2 -0.943585
8.21 -0.95216
8.22 -0.956366
8.23 -0.958614
8.24 -0.960473
8.25 -0.963465
8.26 -0.968479
8.27 -0.975989
8.28 -0.985354
8.29 -0.995544
8.3 -1.00446
8.31 -1.00939
8.32 -1.00677
8.33 -0.993633
8.34 -0.96403
8.35 -0.916374
8.36 -0.84446
8.37 -0.746611
8.38 -0.620326
8.39 -0.462222
8.4 -0.275428
8.41 -0.0563
8.42 0.188647
8.43 0.457845
8.44 0.745756
8.45 1.04579
8.46 1.35154
8.47 1.65491
8.48 1.94729
8.49 2.22103
8.5 2.46874
8.51 2.68087
8.52 2.85567
8.53 2.98137
8.54 3.06076
8.55 3.0883
8.56 3.06391
8.57 2.99178
8.58 2.86876
8.59 2.70581
8.6 2.50341
8.61 2.27103
8.62 2.01509
8.63 1.7425
8.64 1.46193
8.65 1.18025
8.66 0.904414
8.67 0.640746
8.68 0.394738
8.69 0.16902
8.7 -0.0303528
8.71 -0.2053
8.72 -0.352068
8.73 -0.473067
8.74 -0.569408
8.75 -0.641949
8.76 -0.695724
8.77 -0.731123
8.78 -0.753803
8.79 -0.765988
8.8 -0.771169
8.81 -0.772367
8.82 -0.771896
8.83 -0.771913
8.84 -0.774045
8.85 -0.779213
8.86 -0.787936
8.87 -0.800564
8.88 -0.816452
8.89 -0.835554
8.9 -0.856748
8.91 -0.879415
8.92 -0.902655
8.93 -0.925741
8.94 -0.947905
8.95 -0.9688
8.96 -0.987932
8.97 -1.00528
8.98 -1.02086
8.99 -1.03476
9 -1.04742
9.01 -1.05904
9.02 -1.07011
9.03 -1.08092
9.04 -1.09175
9.05 -1.10274
9.06 -1.11391
9.07 -1.1251
9.08 -1.13597
9.09 -1.14601
9.1 -1.15463
9.11 -1.16087
9.12 -1.16422
9.13 -1.16319
9.14 -1.15741
9.15 -1.14571
9.16 -1.12727
9.17 -1.10194
9.18 -1.0683
9.19 -1.02728
9.2 -0.977973
9.21 -0.921288
9.22 -0.857739
9.23 -0.787869
9.24 -0.713397
9.25 -0.635104
9.26 -0.555047
9.27 -0.474755
9.28 -0.396193
9.29 -0.320909
9.3 -0.251405
9.31 -0.188496
9.32 -0.13457
9.33 -0.0903386
9.34 -0.0567363
9.35 -0.0351235
9.36 -0.0244048
9.37 -0.0261731
9.38 -0.0382811
9.39 -0.0605859
9.4 -0.0916514
9.41 -0.129517
9.42 -0.173046
9.43 -0.219606
9.44 -0.267517
9.45 -0.314631
9.46 -0.359228
9.47 -0.399323
9.48 -0.434184
9.49 -0.461847
9.5 -0.482617
9.51 -0.495804
9.52 -0.501673
9.53 -0.501226
9.54 -0.494693
9.55 -0.484091
9.56 -0.470388
9.57 -0.455424
9.58 -0.440664
9.59 -0.427808
9.6 -0.417879
9.61 -0.412603
9.62 -0.412228
9.63 -0.417598
9.64 -0.428879
9.65 -0.445557
9.66 -0.467841
9.67 -0.49428
9.68 -0.524473
9.69 -0.557119
9.7 -0.591258
9.71 -0.62588
9.72 -0.660136
9.73 -0.693174
9.74 -0.724637
9.75 -0.75412
9.76 -0.781506
9.77 -0.806958
9.78 -0.830344
9.79 -0.852061
9.8 -0.871917
9.81 -0.889846
9.82 -0.905401
9.83 -0.917469
9.84 -0.92525
9.85 -0.926052
9.86 -0.918456
9.87 -0.899203
9.88 -0.86494
9.89 -0.813574
9.9 -0.738765
9.91 -0.640479
9.92 -0.512539
9.93 -0.354131
9.94 -0.163387
9.95 0.0629617
9.96 0.320961
9.97 0.614341
9.98 0.936112
9.99 1.28459
10 1.65413
10.01 2.03771
10.02 2.42888
10.03 2.81883
10.04 3.19853
10.05 3.55939
10.06 3.89325
10.07 4.18909
10.08 4.44429
10.09 4.64518
10.1 4.79348
10.11 4.8821
10.12 4.90922
10.13 4.87878
10.14 4.78485
10.15 4.63953
10.16 4.4415
10.17 4.20085
10.18 3.92438
10.19 3.61882
10.2 3.29514
10.21 2.96
10.22 2.62319
10.23 2.29207
10.24 1.97418
10.25 1.67396
10.26 1.39921
10.27 1.14961
10.28 0.930362
10.29 0.740227
10.3 0.578745
10.31 0.446027
10.32 0.336617
10.33 0.250717
10.34 0.181724
10.35 0.127073
10.36 0.0824742
10.37 0.0438887
10.38 0.0082336
10.39 -0.0277071
10.4 -0.0663938
10.41 -0.109477
10.42 -0.157987
10.43 -0.212834
10.44 -0.273249
10.45 -0.3395
10.46 -0.409897
10.47 -0.483526
10.48 -0.558829
10.49 -0.634338
10.5 -0.708363
10.51 -0.779762
10.52 -0.84692
10.53 -0.908988
10.54 -0.965169
10.55 -1.01435
10.56 -1.05693
10.57 -1.09155
10.58 -1.11913
10.59 -1.13921
10.6 -1.15196
10.61 -1.15805
10.62 -1.15684
10.63 -1.14963
10.64 -1.13602
10.65 -1.11677
10.66 -1.09226
10.67 -1.06262
10.68 -1.02889
10.69 -0.991051
10.7 -0.950283
10.71 -0.907114
10.72 -0.862472
10.73 -0.817293
10.74 -0.772647
10.75 -0.729457
10.76 -0.688979
10.77 -0.652116
10.78 -0.619756
10.79 -0.593163
10.8 -0.572348
10.81 -0.558839
10.82 -0.552087
10.83 -0.552686
10.84 -0.560549
10.85 -0.574928
10.86 -0.596168
10.87 -0.622667
10.88 -0.654232
10.89 -0.689556
10.9 -0.727697
10.91 -0.767673
10.92 -0.808334
10.93 -0.848684
10.94 -0.887839
10.95 -0.924937
10.96 -0.959226
10.97 -0.990401
10.98 -1.01757
10.99 -1.04105
11 -1.06029
11.01 -1.0756
11.02 -1.08717
11.03 -1.09506
11.04 -1.10007
11.05 -1.10227
11.06 -1.10256
11.07 -1.10143
11.08 -1.09954
11.09 -1.09753
11.1 -1.09608
11.11 -1.09564
11.12 -1.0968
11.13 -1.09981
11.14 -1.10481
11.15 -1.11191
11.16 -1.12061
11.17 -1.13059
11.18 -1.14085
11.19 -1.15032
11.2 -1.15746
11.21 -1.16089
11.22 -1.15787
11.23 -1.14722
11.24 -1.1257
11.25 -1.09155
11.26 -1.0427
11.27 -0.975812
11.28 -0.891255
11.29 -0.78467
11.3 -0.657856
11.31 -0.50919
11.32 -0.339102
11.33 -0.150091
11.34 0.0582991
11.35 0.280743
11.36 0.515428
11.37 0.757261
11.38 1.00189
11.39 1.24381
11.4 1.47846
11.41 1.69872
11.42 1.90105
11.43 2.07952
11.44 2.2293
11.45 2.34901
11.46 2.43109
11.47 2.47901
11.48 2.48771
11.49 2.45987
11.5 2.39679
11.51 2.2986
11.52 2.17219
11.53 2.01751
11.54 1.84262
11.55 1.65103
11.56 1.4484
11.57 1.24023
11.58 1.03152
11.59 0.826864
11.6 0.630969
11.61 0.446956
11.62 0.2773
11.63 0.125141
11.64 -0.0105218
11.65 -0.126793
11.66 -0.226527
11.67 -0.309744
11.68 -0.378246
11.69 -0.434925
11.7 -0.480774
11.71 -0.519657
11.72 -0.553169
11.73 -0.583972
11.74 -0.613863
11.75 -0.644509
11.76 -0.67682
11.77 -0.711716
11.78 -0.748965
11.79 -0.788324
11.8 -0.82886
11.81 -0.869365
11.82 -0.90803
11.83 -0.943378
11.84 -0.973022
11.85 -0.995228
11.86 -1.00825
11.87 -1.00945
11.88 -0.998759
11.89 -0.972938
11.9 -0.932933
11.91 -0.877373
11.92 -0.806174
11.93 -0.720793
11.94 -0.620173
11.95 -0.507695
11.96 -0.38364
11.97 -0.250869
11.98 -0.111611
11.99 0.0316642
12 0.175953
12.01 0.318214
12.02 0.455744
12.03 0.585487
12.04 0.704452
12.05 0.81115
12.06 0.901291
12.07 0.97546
12.08 1.03031
12.09 1.06605
12.1 1.08244
12.11 1.07824
12.12 1.05643
12.13 1.01554
12.14 0.959546
12.15 0.88946
12.16 0.807847
12.17 0.717884
12.18 0.621538
12.19 0.522382
12.2 0.422818
12.21 0.325491
12.22 0.232419
12.23 0.145942
12.24 0.0665524
12.25 -0.00367932
12.26 -0.0654959
12.27 -0.118508
12.28 -0.163349
12.29 -0.201512
12.3 -0.233566
12.31 -0.261876
12.32 -0.287693
12.33 -0.312916
12.34 -0.338976
12.35 -0.367399
12.36 -0.39881
12.37 -0.434309
12.38 -0.473519
12.39 -0.51632
12.4 -0.561813
