# xPDFsuite Configuration #
[PDF]
wavelength = 0.1432
dataformat = twotheta
inputfile = 1_1Pd_CeO2_cycle-00237.chi
backgroundfile = background-00000.chi
mode = xray
bgscale = 1.007
composition = CeO2
outputtype = gr
qmaxinst = 28.8974762299
qmin = 0.5
qmax = 27.9
rmax = 50.0
rmin = 0.0
rstep = 0.01
rpoly = 1.8657

[Misc]
inputdir = G:/SankarDec16/1Pd/Chi
savedir = D:/DATA/APS_CeO2/1Pd
backgroundfilefull = G:/SankarDec16/Background/background-00000.chi

#### start data
#S 1
#L r($\AA$)  G($\AA^{-2}$)
0 0
0.01 -0.00589855
0.02 -0.0113527
0.03 -0.0159048
0.04 -0.0192102
0.05 -0.0210771
0.06 -0.0211973
0.07 -0.0197761
0.08 -0.0167144
0.09 -0.0124042
0.1 -0.00711662
0.11 -0.00126687
0.12 0.00469238
0.13 0.0102532
0.14 0.0150559
0.15 0.0186598
0.16 0.020807
0.17 0.0213947
0.18 0.0202127
0.19 0.0175631
0.2 0.0134578
0.21 0.00835396
0.22 0.00258917
0.23 -0.00337044
0.24 -0.0090988
0.25 -0.0140488
0.26 -0.0179622
0.27 -0.020437
0.28 -0.0213143
0.29 -0.020585
0.3 -0.0181476
0.31 -0.0143866
0.32 -0.00942473
0.33 -0.00376258
0.34 0.00221189
0.35 0.00800343
0.36 0.0132331
0.37 0.0173408
0.38 0.0201822
0.39 0.0214133
0.4 0.0209818
0.41 0.0189736
0.42 0.0154007
0.43 0.0107123
0.44 0.00513576
0.45 -0.000807963
0.46 -0.00669935
0.47 -0.0120373
0.48 -0.0165086
0.49 -0.0195666
0.5 -0.0211887
0.51 -0.0211052
0.52 -0.0193737
0.53 -0.016171
0.54 -0.0116232
0.55 -0.00622212
0.56 -0.000290021
0.57 0.00565687
0.58 0.0111876
0.59 0.0158189
0.6 0.0193187
0.61 0.0211805
0.62 0.0215044
0.63 0.0201088
0.64 0.0171587
0.65 0.0129139
0.66 0.00760866
0.67 0.00175465
0.68 -0.00424683
0.69 -0.00990861
0.7 -0.0148093
0.71 -0.0185066
0.72 -0.0208612
0.73 -0.0214311
0.74 -0.0204345
0.75 -0.0177866
0.76 -0.0137516
0.77 -0.00865926
0.78 -0.00283976
0.79 0.00320118
0.8 0.00900493
0.81 0.0141383
0.82 0.0182125
0.83 0.0208507
0.84 0.0220143
0.85 0.0213528
0.86 0.019191
0.87 0.0155484
0.88 0.0107759
0.89 0.00525543
0.9 -0.000602834
0.91 -0.00633027
0.92 -0.011438
0.93 -0.0155773
0.94 -0.0184216
0.95 -0.019693
0.96 -0.019467
0.97 -0.0175287
0.98 -0.0143036
0.99 -0.00994217
1 -0.00488451
1.01 0.000440072
1.02 0.00552555
1.03 0.00997022
1.04 0.0132433
1.05 0.0151091
1.06 0.0153138
1.07 0.0136939
1.08 0.0104694
1.09 0.00557448
1.1 -0.000425491
1.11 -0.00721902
1.12 -0.0142338
1.13 -0.0209521
1.14 -0.0267017
1.15 -0.0311094
1.16 -0.0335027
1.17 -0.0337072
1.18 -0.0314567
1.19 -0.0265954
1.2 -0.0194688
1.21 -0.00997565
1.22 0.00113374
1.23 0.0135083
1.24 0.0264539
1.25 0.0393418
1.26 0.051396
1.27 0.0621141
1.28 0.0706898
1.29 0.0768204
1.3 0.0800969
1.31 0.0801778
1.32 0.077323
1.33 0.07112
1.34 0.062296
1.35 0.0509356
1.36 0.0376002
1.37 0.022845
1.38 0.00716139
1.39 -0.0087913
1.4 -0.0244568
1.41 -0.0393279
1.42 -0.0529517
1.43 -0.064859
1.44 -0.0749516
1.45 -0.0826607
1.46 -0.0882046
1.47 -0.0913005
1.48 -0.0920139
1.49 -0.0904787
1.5 -0.086552
1.51 -0.0806509
1.52 -0.0726552
1.53 -0.0629294
1.54 -0.0516069
1.55 -0.038873
1.56 -0.0250934
1.57 -0.0104195
1.58 0.00468772
1.59 0.019901
1.6 0.0347659
1.61 0.0488781
1.62 0.0616055
1.63 0.0726609
1.64 0.0812988
1.65 0.087276
1.66 0.0901568
1.67 0.0895033
1.68 0.0855129
1.69 0.0775669
1.7 0.0663761
1.71 0.0519031
1.72 0.0347248
1.73 0.0154938
1.74 -0.00519048
1.75 -0.0263791
1.76 -0.0472288
1.77 -0.0668823
1.78 -0.084544
1.79 -0.0993559
1.8 -0.111102
1.81 -0.118823
1.82 -0.122964
1.83 -0.12325
1.84 -0.12012
1.85 -0.11419
1.86 -0.105962
1.87 -0.0965302
1.88 -0.0867197
1.89 -0.0775524
1.9 -0.0699055
1.91 -0.0647247
1.92 -0.0623285
1.93 -0.0636735
1.94 -0.068356
1.95 -0.0765804
1.96 -0.0878185
1.97 -0.10135
1.98 -0.116423
1.99 -0.131854
2 -0.146467
2.01 -0.159108
2.02 -0.168644
2.03 -0.173815
2.04 -0.1743
2.05 -0.16858
2.06 -0.157238
2.07 -0.139678
2.08 -0.116332
2.09 -0.0878978
2.1 -0.0546545
2.11 -0.0180705
2.12 0.0212485
2.13 0.0619905
2.14 0.103261
2.15 0.144108
2.16 0.183942
2.17 0.222018
2.18 0.258341
2.19 0.292722
2.2 0.325418
2.21 0.356831
2.22 0.387368
2.23 0.417638
2.24 0.448127
2.25 0.479211
2.26 0.511096
2.27 0.543764
2.28 0.57685
2.29 0.609703
2.3 0.641434
2.31 0.670755
2.32 0.69622
2.33 0.716588
2.34 0.729515
2.35 0.73456
2.36 0.729259
2.37 0.713486
2.38 0.686392
2.39 0.647357
2.4 0.597899
2.41 0.537224
2.42 0.468357
2.43 0.392327
2.44 0.311721
2.45 0.229008
2.46 0.146952
2.47 0.0679332
2.48 -0.00502043
2.49 -0.0702042
2.5 -0.125782
2.51 -0.170015
2.52 -0.203485
2.53 -0.224329
2.54 -0.23501
2.55 -0.235724
2.56 -0.228545
2.57 -0.215686
2.58 -0.199135
2.59 -0.181617
2.6 -0.165448
2.61 -0.152675
2.62 -0.14502
2.63 -0.144107
2.64 -0.149923
2.65 -0.163827
2.66 -0.184237
2.67 -0.210865
2.68 -0.24208
2.69 -0.276141
2.7 -0.311209
2.71 -0.345328
2.72 -0.37642
2.73 -0.403097
2.74 -0.424084
2.75 -0.438273
2.76 -0.446098
2.77 -0.446738
2.78 -0.441983
2.79 -0.432488
2.8 -0.420026
2.81 -0.406325
2.82 -0.393344
2.83 -0.382661
2.84 -0.376249
2.85 -0.375012
2.86 -0.379826
2.87 -0.391271
2.88 -0.408467
2.89 -0.431542
2.9 -0.458426
2.91 -0.487906
2.92 -0.517915
2.93 -0.54663
2.94 -0.571703
2.95 -0.591967
2.96 -0.605281
2.97 -0.611264
2.98 -0.609351
2.99 -0.599394
3 -0.582871
3.01 -0.560116
3.02 -0.533747
3.03 -0.505444
3.04 -0.47766
3.05 -0.452424
3.06 -0.432406
3.07 -0.418597
3.08 -0.413226
3.09 -0.416335
3.1 -0.428227
3.11 -0.44868
3.12 -0.475801
3.13 -0.508812
3.14 -0.544785
3.15 -0.581696
3.16 -0.616915
3.17 -0.648412
3.18 -0.673482
3.19 -0.691512
3.2 -0.700563
3.21 -0.701161
3.22 -0.693574
3.23 -0.678785
3.24 -0.659166
3.25 -0.636563
3.26 -0.614059
3.27 -0.594417
3.28 -0.580501
3.29 -0.574259
3.3 -0.578729
3.31 -0.593657
3.32 -0.620879
3.33 -0.658833
3.34 -0.706466
3.35 -0.761757
3.36 -0.821349
3.37 -0.882123
3.38 -0.940305
3.39 -0.992097
3.4 -1.03405
3.41 -1.06404
3.42 -1.07841
3.43 -1.07824
3.44 -1.0616
3.45 -1.03117
3.46 -0.988797
3.47 -0.93759
3.48 -0.882042
3.49 -0.826512
3.5 -0.775537
3.51 -0.733767
3.52 -0.704951
3.53 -0.690942
3.54 -0.694961
3.55 -0.714412
3.56 -0.749272
3.57 -0.794277
3.58 -0.844431
3.59 -0.892088
3.6 -0.930049
3.61 -0.946192
3.62 -0.934222
3.63 -0.882435
3.64 -0.782573
3.65 -0.630302
3.66 -0.41361
3.67 -0.138168
3.68 0.204194
3.69 0.604995
3.7 1.06011
3.71 1.56236
3.72 2.09681
3.73 2.65349
3.74 3.21405
3.75 3.76273
3.76 4.28165
3.77 4.75711
3.78 5.16645
3.79 5.50543
3.8 5.75264
3.81 5.90717
3.82 5.96234
3.83 5.91205
3.84 5.76896
3.85 5.52348
3.86 5.19884
3.87 4.79897
3.88 4.3402
3.89 3.8391
3.9 3.30905
3.91 2.76913
3.92 2.23442
3.93 1.71941
3.94 1.23635
3.95 0.798246
3.96 0.407545
3.97 0.0782194
3.98 -0.196095
3.99 -0.410608
4 -0.569435
4.01 -0.679401
4.02 -0.742012
4.03 -0.770488
4.04 -0.768721
4.05 -0.747758
4.06 -0.714631
4.07 -0.676777
4.08 -0.640206
4.09 -0.610679
4.1 -0.590591
4.11 -0.582714
4.12 -0.587411
4.13 -0.603474
4.14 -0.630237
4.15 -0.66387
4.16 -0.702033
4.17 -0.740863
4.18 -0.77723
4.19 -0.807589
4.2 -0.830186
4.21 -0.841379
4.22 -0.841446
4.23 -0.828765
4.24 -0.803653
4.25 -0.767294
4.26 -0.719693
4.27 -0.66376
4.28 -0.600193
4.29 -0.531484
4.3 -0.45915
4.31 -0.384737
4.32 -0.30961
4.33 -0.234755
4.34 -0.160778
4.35 -0.0881088
4.36 -0.0168588
4.37 0.0530653
4.38 0.121615
4.39 0.189033
4.4 0.255111
4.41 0.319703
4.42 0.382319
4.43 0.442021
4.44 0.498193
4.45 0.548802
4.46 0.593215
4.47 0.629395
4.48 0.655896
4.49 0.671936
4.5 0.674992
4.51 0.666015
4.52 0.642983
4.53 0.607136
4.54 0.558771
4.55 0.498482
4.56 0.428859
4.57 0.350468
4.58 0.266708
4.59 0.179397
4.6 0.0912003
4.61 0.00428405
4.62 -0.0787595
4.63 -0.156706
4.64 -0.227354
4.65 -0.290262
4.66 -0.344794
4.67 -0.390494
4.68 -0.428622
4.69 -0.458762
4.7 -0.483095
4.71 -0.502338
4.72 -0.518061
4.73 -0.531667
4.74 -0.544332
4.75 -0.557181
4.76 -0.571081
4.77 -0.586473
4.78 -0.603572
4.79 -0.622346
4.8 -0.642295
4.81 -0.662959
4.82 -0.683517
4.83 -0.703181
4.84 -0.721123
4.85 -0.736787
4.86 -0.749269
4.87 -0.75865
4.88 -0.76438
4.89 -0.766865
4.9 -0.766365
4.91 -0.763328
4.92 -0.758636
4.93 -0.752905
4.94 -0.7471
4.95 -0.741993
4.96 -0.738344
4.97 -0.736614
4.98 -0.737504
4.99 -0.740882
5 -0.747109
5.01 -0.755798
5.02 -0.766701
5.03 -0.779454
5.04 -0.793413
5.05 -0.808182
5.06 -0.823141
5.07 -0.837857
5.08 -0.851919
5.09 -0.865087
5.1 -0.877006
5.11 -0.887692
5.12 -0.896842
5.13 -0.904425
5.14 -0.91021
5.15 -0.913732
5.16 -0.914781
5.17 -0.912144
5.18 -0.90542
5.19 -0.893147
5.2 -0.874005
5.21 -0.847026
5.22 -0.809549
5.23 -0.761575
5.24 -0.700324
5.25 -0.62576
5.26 -0.537034
5.27 -0.433249
5.28 -0.31634
5.29 -0.1853
5.3 -0.0438384
5.31 0.106564
5.32 0.26241
5.33 0.420107
5.34 0.575201
5.35 0.723888
5.36 0.860624
5.37 0.981803
5.38 1.08336
5.39 1.16034
5.4 1.21273
5.41 1.23409
5.42 1.22767
5.43 1.19105
5.44 1.12585
5.45 1.0354
5.46 0.920055
5.47 0.786709
5.48 0.637602
5.49 0.479009
5.5 0.315487
5.51 0.152331
5.52 -0.00625772
5.53 -0.154718
5.54 -0.290901
5.55 -0.411045
5.56 -0.513356
5.57 -0.597828
5.58 -0.66216
5.59 -0.709699
5.6 -0.739704
5.61 -0.755616
5.62 -0.759434
5.63 -0.753405
5.64 -0.740888
5.65 -0.723536
5.66 -0.704107
5.67 -0.684045
5.68 -0.664617
5.69 -0.646357
5.7 -0.629497
5.71 -0.613456
5.72 -0.597483
5.73 -0.580417
5.74 -0.561058
5.75 -0.537874
5.76 -0.510244
5.77 -0.47644
5.78 -0.436827
5.79 -0.390885
5.8 -0.339223
5.81 -0.283019
5.82 -0.223364
5.83 -0.162465
5.84 -0.102399
5.85 -0.0455041
5.86 0.00597889
5.87 0.0492935
5.88 0.0835206
5.89 0.105332
5.9 0.115323
5.91 0.111938
5.92 0.0954013
5.93 0.0669258
5.94 0.0263223
5.95 -0.023297
5.96 -0.081103
5.97 -0.144209
5.98 -0.210578
5.99 -0.277912
6 -0.344265
6.01 -0.407481
6.02 -0.46661
6.03 -0.520379
6.04 -0.568327
6.05 -0.610703
6.06 -0.647212
6.07 -0.67928
6.08 -0.707288
6.09 -0.732651
6.1 -0.756351
6.11 -0.779421
6.12 -0.802676
6.13 -0.826805
6.14 -0.851962
6.15 -0.878189
6.16 -0.905094
6.17 -0.932082
6.18 -0.958232
6.19 -0.982775
6.2 -1.00451
6.21 -1.02277
6.22 -1.03687
6.23 -1.04614
6.24 -1.05102
6.25 -1.05105
6.26 -1.04751
6.27 -1.04096
6.28 -1.03266
6.29 -1.02379
6.3 -1.01564
6.31 -1.00906
6.32 -1.00493
6.33 -1.00322
6.34 -1.00354
6.35 -1.00469
6.36 -1.00482
6.37 -1.00069
6.38 -0.989431
6.39 -0.966485
6.4 -0.927121
6.41 -0.867902
6.42 -0.780924
6.43 -0.665673
6.44 -0.514405
6.45 -0.326752
6.46 -0.100511
6.47 0.166922
6.48 0.47024
6.49 0.81238
6.5 1.1837
6.51 1.58076
6.52 1.99507
6.53 2.41771
6.54 2.83853
6.55 3.24783
6.56 3.63297
6.57 3.98478
6.58 4.29355
6.59 4.54699
6.6 4.74416
6.61 4.86906
6.62 4.92757
6.63 4.9125
6.64 4.8253
6.65 4.67226
6.66 4.45049
6.67 4.17546
6.68 3.84874
6.69 3.48405
6.7 3.09056
6.71 2.67867
6.72 2.26004
6.73 1.84524
6.74 1.44329
6.75 1.0635
6.76 0.713308
6.77 0.396203
6.78 0.1209
6.79 -0.116029
6.8 -0.308865
6.81 -0.46177
6.82 -0.576262
6.83 -0.65381
6.84 -0.701977
6.85 -0.721027
6.86 -0.719694
6.87 -0.701009
6.88 -0.670207
6.89 -0.631793
6.9 -0.589019
6.91 -0.545351
6.92 -0.503108
6.93 -0.463916
6.94 -0.42877
6.95 -0.398433
6.96 -0.372433
6.97 -0.351188
6.98 -0.333614
6.99 -0.319516
7 -0.308359
7.01 -0.299692
7.02 -0.293691
7.03 -0.290099
7.04 -0.289573
7.05 -0.292426
7.06 -0.299309
7.07 -0.311243
7.08 -0.328312
7.09 -0.352022
7.1 -0.381866
7.11 -0.418452
7.12 -0.461481
7.13 -0.510103
7.14 -0.56401
7.15 -0.621336
7.16 -0.680989
7.17 -0.741055
7.18 -0.799887
7.19 -0.855456
7.2 -0.906625
7.21 -0.951059
7.22 -0.988544
7.23 -1.01781
7.24 -1.03862
7.25 -1.05157
7.26 -1.05631
7.27 -1.05487
7.28 -1.04778
7.29 -1.03705
7.3 -1.02416
7.31 -1.0108
7.32 -0.99834
7.33 -0.988327
7.34 -0.981286
7.35 -0.977847
7.36 -0.977865
7.37 -0.980582
7.38 -0.985032
7.39 -0.989432
7.4 -0.991665
7.41 -0.989462
7.42 -0.980452
7.43 -0.961441
7.44 -0.931342
7.45 -0.885951
7.46 -0.825613
7.47 -0.748025
7.48 -0.652827
7.49 -0.541191
7.5 -0.412077
7.51 -0.269436
7.52 -0.113969
7.53 0.0502853
7.54 0.220163
7.55 0.391694
7.56 0.561023
7.57 0.723143
7.58 0.874984
7.59 1.01207
7.6 1.13089
7.61 1.2299
7.62 1.304
7.63 1.35507
7.64 1.37931
7.65 1.37858
7.66 1.35327
7.67 1.30343
7.68 1.23343
7.69 1.14267
7.7 1.03674
7.71 0.917492
7.72 0.788673
7.73 0.653937
7.74 0.516426
7.75 0.379653
7.76 0.246926
7.77 0.120911
7.78 0.00400685
7.79 -0.100869
7.8 -0.193433
7.81 -0.270173
7.82 -0.332281
7.83 -0.378161
7.84 -0.40793
7.85 -0.422854
7.86 -0.421886
7.87 -0.408261
7.88 -0.381872
7.89 -0.345486
7.9 -0.300904
7.91 -0.250128
7.92 -0.195962
7.93 -0.140588
7.94 -0.0866075
7.95 -0.0364341
7.96 0.00754524
7.97 0.0438653
7.98 0.0695543
7.99 0.0847537
8 0.0871244
8.01 0.0770607
8.02 0.0544336
8.03 0.0190021
8.04 -0.0270375
8.05 -0.0839481
8.06 -0.148626
8.07 -0.219777
8.08 -0.29502
8.09 -0.372101
8.1 -0.448745
8.11 -0.52305
8.12 -0.592836
8.13 -0.656876
8.14 -0.714111
8.15 -0.763428
8.16 -0.805521
8.17 -0.839514
8.18 -0.867157
8.19 -0.888957
8.2 -0.90634
8.21 -0.920828
8.22 -0.933638
8.23 -0.946186
8.24 -0.959446
8.25 -0.973968
8.26 -0.989831
8.27 -1.00656
8.28 -1.02306
8.29 -1.03736
8.3 -1.04743
8.31 -1.05023
8.32 -1.04235
8.33 -1.02136
8.34 -0.98158
8.35 -0.922422
8.36 -0.838365
8.37 -0.728683
8.38 -0.591675
8.39 -0.424893
8.4 -0.231833
8.41 -0.0097695
8.42 0.234959
8.43 0.500523
8.44 0.781633
8.45 1.07227
8.46 1.36639
8.47 1.65693
8.48 1.93601
8.49 2.19692
8.5 2.4331
8.51 2.63594
8.52 2.80399
8.53 2.92644
8.54 3.00581
8.55 3.03683
8.56 3.01914
8.57 2.95635
8.58 2.84495
8.59 2.69483
8.6 2.50581
8.61 2.28638
8.62 2.04219
8.63 1.77926
8.64 1.50593
8.65 1.22822
8.66 0.953312
8.67 0.687294
8.68 0.435936
8.69 0.202435
8.7 -0.00679538
8.71 -0.192708
8.72 -0.350875
8.73 -0.482837
8.74 -0.588993
8.75 -0.669387
8.76 -0.728787
8.77 -0.76683
8.78 -0.789408
8.79 -0.798597
8.8 -0.798186
8.81 -0.79175
8.82 -0.782007
8.83 -0.771998
8.84 -0.764031
8.85 -0.759815
8.86 -0.760526
8.87 -0.767266
8.88 -0.779573
8.89 -0.798091
8.9 -0.8214
8.91 -0.848971
8.92 -0.879559
8.93 -0.911862
8.94 -0.944666
8.95 -0.976757
8.96 -1.00694
8.97 -1.03443
8.98 -1.05859
8.99 -1.07878
9 -1.09528
9.01 -1.10758
9.02 -1.11651
9.03 -1.12226
9.04 -1.12544
9.05 -1.12678
9.06 -1.12671
9.07 -1.12593
9.08 -1.12477
9.09 -1.12351
9.1 -1.12219
9.11 -1.1206
9.12 -1.11842
9.13 -1.11489
9.14 -1.10938
9.15 -1.10088
9.16 -1.08832
9.17 -1.07106
9.18 -1.04737
9.19 -1.01738
9.2 -0.979629
9.21 -0.93429
9.22 -0.881282
9.23 -0.820456
9.24 -0.753263
9.25 -0.679803
9.26 -0.602239
9.27 -0.521869
9.28 -0.440761
9.29 -0.360816
9.3 -0.28463
9.31 -0.213702
9.32 -0.150747
9.33 -0.0970776
9.34 -0.054097
9.35 -0.0236943
9.36 -0.00508111
9.37 -0.000363005
9.38 -0.00744796
9.39 -0.0264296
9.4 -0.0559017
9.41 -0.0937447
9.42 -0.138876
9.43 -0.188247
9.44 -0.240079
9.45 -0.291862
9.46 -0.341627
9.47 -0.387125
9.48 -0.427386
9.49 -0.460227
9.5 -0.485829
9.51 -0.503374
9.52 -0.51306
9.53 -0.5159
9.54 -0.512052
9.55 -0.503636
9.56 -0.491587
9.57 -0.477807
9.58 -0.463777
9.59 -0.451174
9.6 -0.441062
9.61 -0.435071
9.62 -0.43348
9.63 -0.437065
9.64 -0.445959
9.65 -0.459676
9.66 -0.478363
9.67 -0.500701
9.68 -0.526319
9.69 -0.554082
9.7 -0.583192
9.71 -0.61286
9.72 -0.642441
9.73 -0.671406
9.74 -0.699568
9.75 -0.726797
9.76 -0.753178
9.77 -0.778919
9.78 -0.804146
9.79 -0.82903
9.8 -0.853451
9.81 -0.87706
9.82 -0.899173
9.83 -0.918368
9.84 -0.933437
9.85 -0.941258
9.86 -0.940026
9.87 -0.926052
9.88 -0.895601
9.89 -0.846421
9.9 -0.771724
9.91 -0.671681
9.92 -0.539912
9.93 -0.375898
9.94 -0.178012
9.95 0.0567052
9.96 0.323758
9.97 0.626424
9.98 0.957147
9.99 1.31371
10 1.68993
10.01 2.07849
10.02 2.47234
10.03 2.86277
10.04 3.2404
10.05 3.59686
10.06 3.9242
10.07 4.21161
10.08 4.4571
10.09 4.64735
10.1 4.78483
10.11 4.863
10.12 4.8807
10.13 4.8423
10.14 4.74261
10.15 4.59374
10.16 4.39492
10.17 4.15612
10.18 3.88406
10.19 3.5854
10.2 3.27051
10.21 2.94581
10.22 2.62031
10.23 2.30084
10.24 1.99422
10.25 1.70436
10.26 1.43828
10.27 1.19541
10.28 0.980351
10.29 0.791758
10.3 0.629091
10.31 0.492349
10.32 0.376578
10.33 0.281986
10.34 0.202722
10.35 0.136635
10.36 0.0800908
10.37 0.0296452
10.38 -0.0170739
10.39 -0.0628545
10.4 -0.109507
10.41 -0.158405
10.42 -0.210333
10.43 -0.265905
10.44 -0.324659
10.45 -0.386643
10.46 -0.450764
10.47 -0.516327
10.48 -0.582274
10.49 -0.647677
10.5 -0.711355
10.51 -0.772707
10.52 -0.830655
10.53 -0.884753
10.54 -0.934527
10.55 -0.979252
10.56 -1.01923
10.57 -1.05345
10.58 -1.08246
10.59 -1.10578
10.6 -1.12326
10.61 -1.13518
10.62 -1.14064
10.63 -1.14043
10.64 -1.13378
10.65 -1.12108
10.66 -1.1024
10.67 -1.07752
10.68 -1.04741
10.69 -1.01177
10.7 -0.971917
10.71 -0.928333
10.72 -0.882076
10.73 -0.834322
10.74 -0.78626
10.75 -0.73917
10.76 -0.694514
10.77 -0.653478
10.78 -0.617167
10.79 -0.587079
10.8 -0.563312
10.81 -0.547595
10.82 -0.539329
10.83 -0.539152
10.84 -0.546913
10.85 -0.561736
10.86 -0.583897
10.87 -0.61159
10.88 -0.644504
10.89 -0.681174
10.9 -0.720542
10.91 -0.761511
10.92 -0.8029
10.93 -0.843645
10.94 -0.882918
10.95 -0.919885
10.96 -0.953886
10.97 -0.984718
10.98 -1.01161
10.99 -1.035
11 -1.05446
11.01 -1.07038
11.02 -1.08301
11.03 -1.09247
11.04 -1.09949
11.05 -1.10418
11.06 -1.10728
11.07 -1.10917
11.08 -1.11038
11.09 -1.11138
11.1 -1.11264
11.11 -1.1145
11.12 -1.11735
11.13 -1.12134
11.14 -1.12655
11.15 -1.13299
11.16 -1.14026
11.17 -1.14798
11.18 -1.15534
11.19 -1.16139
11.2 -1.16474
11.21 -1.16422
11.22 -1.15728
11.23 -1.14293
11.24 -1.1181
11.25 -1.08118
11.26 -1.03019
11.27 -0.961889
11.28 -0.876594
11.29 -0.77001
11.3 -0.643771
11.31 -0.496186
11.32 -0.327538
11.33 -0.140164
11.34 0.0665386
11.35 0.28739
11.36 0.520715
11.37 0.7615
11.38 1.00544
11.39 1.24706
11.4 1.48173
11.41 1.70229
11.42 1.90506
11.43 2.08398
11.44 2.23407
11.45 2.35382
11.46 2.4355
11.47 2.48251
11.48 2.4897
11.49 2.45975
11.5 2.39401
11.51 2.29268
11.52 2.16283
11.53 2.00457
11.54 1.82623
11.55 1.63154
11.56 1.42644
11.57 1.21657
11.58 1.0073
11.59 0.803157
11.6 0.609085
11.61 0.428111
11.62 0.26263
11.63 0.115675
11.64 -0.0140862
11.65 -0.123983
11.66 -0.217273
11.67 -0.294331
11.68 -0.357362
11.69 -0.409524
11.7 -0.452287
11.71 -0.489533
11.72 -0.523174
11.73 -0.555801
11.74 -0.589141
11.75 -0.624773
11.76 -0.663181
11.77 -0.705058
11.78 -0.749638
11.79 -0.796253
11.8 -0.843459
11.81 -0.889686
11.82 -0.932538
11.83 -0.970458
11.84 -1.00066
11.85 -1.02143
11.86 -1.0311
11.87 -1.02709
11.88 -1.00982
11.89 -0.976284
11.9 -0.92807
11.91 -0.864296
11.92 -0.78549
11.93 -0.693551
11.94 -0.588124
11.95 -0.472717
11.96 -0.348111
11.97 -0.217154
11.98 -0.0820387
11.99 0.0548101
12 0.19095
12.01 0.323582
12.02 0.450753
12.03 0.569972
12.04 0.678971
12.05 0.776805
12.06 0.860024
12.07 0.929413
12.08 0.982252
12.09 1.0188
12.1 1.03882
12.11 1.04113
12.12 1.02806
12.13 0.997973
12.14 0.953979
12.15 0.896499
12.16 0.827282
12.17 0.748848
12.18 0.662235
12.19 0.570687
12.2 0.475868
12.21 0.380269
12.22 0.285813
12.23 0.194695
12.24 0.108021
12.25 0.0279329
12.26 -0.0454076
12.27 -0.11104
12.28 -0.168761
12.29 -0.219336
12.3 -0.262394
12.31 -0.29985
12.32 -0.332168
12.33 -0.360992
12.34 -0.387577
12.35 -0.413217
12.36 -0.439086
12.37 -0.466264
12.38 -0.49525
12.39 -0.526441
12.4 -0.559744
12.41 -0.594565
