# xPDFsuite Configuration #
[PDF]
wavelength = 0.1432
dataformat = twotheta
inputfile = 1_1Pd_CeO2_cycle-00302.chi
backgroundfile = background-00000.chi
mode = xray
bgscale = 1.007
composition = CeO2
outputtype = gr
qmaxinst = 28.8974762299
qmin = 0.5
qmax = 27.9
rmax = 50.0
rmin = 0.0
rstep = 0.01
rpoly = 1.8657

[Misc]
inputdir = G:/SankarDec16/1Pd/Chi
savedir = D:/DATA/APS_CeO2/1Pd
backgroundfilefull = G:/SankarDec16/Background/background-00000.chi

#### start data
#S 1
#L r($\AA$)  G($\AA^{-2}$)
0 0
0.01 -0.00679715
0.02 -0.0130834
0.03 -0.0183324
0.04 -0.0221477
0.05 -0.0243084
0.06 -0.024459
0.07 -0.0228349
0.08 -0.0193208
0.09 -0.0143663
0.1 -0.0082822
0.11 -0.00154461
0.12 0.00532559
0.13 0.0117454
0.14 0.0172993
0.15 0.0214797
0.16 0.0239878
0.17 0.0247027
0.18 0.0233795
0.19 0.0203628
0.2 0.0156625
0.21 0.00980227
0.22 0.00316821
0.23 -0.0037053
0.24 -0.0103267
0.25 -0.0160679
0.26 -0.0206273
0.27 -0.0235399
0.28 -0.024618
0.29 -0.0238464
0.3 -0.0211021
0.31 -0.0168236
0.32 -0.0111455
0.33 -0.0046418
0.34 0.00224383
0.35 0.00894294
0.36 0.0150161
0.37 0.0198188
0.38 0.0231774
0.39 0.024691
0.4 0.0242918
0.41 0.0220716
0.42 0.0180352
0.43 0.012695
0.44 0.00630442
0.45 -0.000538122
0.46 -0.00735195
0.47 -0.0135602
0.48 -0.0187962
0.49 -0.0224287
0.5 -0.0244203
0.51 -0.024453
0.52 -0.0225825
0.53 -0.0190036
0.54 -0.0138496
0.55 -0.0076832
0.56 -0.000865641
0.57 0.00600758
0.58 0.012441
0.59 0.0178755
0.6 0.0220346
0.61 0.0243294
0.62 0.0248611
0.63 0.0234097
0.64 0.0201522
0.65 0.0153781
0.66 0.00934345
0.67 0.00263591
0.68 -0.00429221
0.69 -0.0108754
0.7 -0.0166264
0.71 -0.0210297
0.72 -0.023912
0.73 -0.0247544
0.74 -0.0237921
0.75 -0.0209134
0.76 -0.0164089
0.77 -0.0106487
0.78 -0.00399969
0.79 0.00295342
0.8 0.00968967
0.81 0.0157005
0.82 0.0205317
0.83 0.0237369
0.84 0.0252555
0.85 0.0246661
0.86 0.022327
0.87 0.0182421
0.88 0.0128024
0.89 0.00644048
0.9 -0.000383137
0.91 -0.00711875
0.92 -0.0132046
0.93 -0.0182197
0.94 -0.0217717
0.95 -0.0235155
0.96 -0.0235141
0.97 -0.0214837
0.98 -0.0178949
0.99 -0.0128876
1 -0.00694826
1.01 -0.000561141
1.02 0.00571629
1.03 0.011401
1.04 0.0158933
1.05 0.018889
1.06 0.0200746
1.07 0.0192266
1.08 0.0165548
1.09 0.0119331
1.1 0.00596681
1.11 -0.001044
1.12 -0.00849121
1.13 -0.0158161
1.14 -0.0223169
1.15 -0.027561
1.16 -0.0308438
1.17 -0.0319503
1.18 -0.0305905
1.19 -0.0265927
1.2 -0.0203031
1.21 -0.0116265
1.22 -0.00133475
1.23 0.0101961
1.24 0.0222434
1.25 0.0341578
1.26 0.0451352
1.27 0.0546808
1.28 0.0619852
1.29 0.0667831
1.3 0.068708
1.31 0.06749
1.32 0.0634558
1.33 0.0563212
1.34 0.0468744
1.35 0.0353281
1.36 0.0223272
1.37 0.00847399
1.38 -0.00562322
1.39 -0.0193755
1.4 -0.0321598
1.41 -0.0435899
1.42 -0.0532881
1.43 -0.060916
1.44 -0.0665596
1.45 -0.0698424
1.46 -0.0711858
1.47 -0.0705398
1.48 -0.0681782
1.49 -0.0643791
1.5 -0.0592614
1.51 -0.0532081
1.52 -0.046304
1.53 -0.0387985
1.54 -0.0307966
1.55 -0.0223858
1.56 -0.0136701
1.57 -0.00466459
1.58 0.004525
1.59 0.0138342
1.6 0.0231311
1.61 0.0322651
1.62 0.0409712
1.63 0.049051
1.64 0.056084
1.65 0.0618097
1.66 0.0658578
1.67 0.0677911
1.68 0.0675563
1.69 0.0645166
1.7 0.0589619
1.71 0.0506323
1.72 0.0397362
1.73 0.0266085
1.74 0.0114495
1.75 -0.00500584
1.76 -0.0223016
1.77 -0.0396819
1.78 -0.056508
1.79 -0.0720301
1.8 -0.0858483
1.81 -0.0971057
1.82 -0.105842
1.83 -0.111633
1.84 -0.114565
1.85 -0.114922
1.86 -0.112833
1.87 -0.109087
1.88 -0.104114
1.89 -0.0987348
1.9 -0.0936036
1.91 -0.08947
1.92 -0.086753
1.93 -0.0862089
1.94 -0.0877799
1.95 -0.0917379
1.96 -0.0978601
1.97 -0.105737
1.98 -0.114938
1.99 -0.124632
2 -0.134016
2.01 -0.142207
2.02 -0.148338
2.03 -0.151408
2.04 -0.151075
2.05 -0.146096
2.06 -0.136782
2.07 -0.122548
2.08 -0.103582
2.09 -0.0803078
2.1 -0.0527509
2.11 -0.0220043
2.12 0.0116614
2.13 0.0472526
2.14 0.0841648
2.15 0.121751
2.16 0.159477
2.17 0.196929
2.18 0.233924
2.19 0.270354
2.2 0.306307
2.21 0.34196
2.22 0.377541
2.23 0.413281
2.24 0.449388
2.25 0.485891
2.26 0.522697
2.27 0.559463
2.28 0.595697
2.29 0.630392
2.3 0.662755
2.31 0.691364
2.32 0.714869
2.33 0.732203
2.34 0.741128
2.35 0.741567
2.36 0.731279
2.37 0.710495
2.38 0.678661
2.39 0.635496
2.4 0.582691
2.41 0.51983
2.42 0.449911
2.43 0.374144
2.44 0.295078
2.45 0.215053
2.46 0.136783
2.47 0.0623043
2.48 -0.00553967
2.49 -0.0654078
2.5 -0.11576
2.51 -0.155213
2.52 -0.184566
2.53 -0.20236
2.54 -0.211098
2.55 -0.211207
2.56 -0.204779
2.57 -0.193942
2.58 -0.180702
2.59 -0.167443
2.6 -0.156352
2.61 -0.1491
2.62 -0.147114
2.63 -0.151653
2.64 -0.162435
2.65 -0.180395
2.66 -0.203843
2.67 -0.232215
2.68 -0.263801
2.69 -0.296896
2.7 -0.329587
2.71 -0.360237
2.72 -0.386854
2.73 -0.408429
2.74 -0.423982
2.75 -0.43278
2.76 -0.43557
2.77 -0.431978
2.78 -0.42397
2.79 -0.412525
2.8 -0.399554
2.81 -0.386794
2.82 -0.376349
2.83 -0.369486
2.84 -0.36815
2.85 -0.372855
2.86 -0.384186
2.87 -0.402334
2.88 -0.426055
2.89 -0.455002
2.9 -0.486852
2.91 -0.520007
2.92 -0.552182
2.93 -0.581484
2.94 -0.605324
2.95 -0.622813
2.96 -0.631748
2.97 -0.632125
2.98 -0.623635
2.99 -0.606489
3 -0.582581
3.01 -0.552674
3.02 -0.51974
3.03 -0.485857
3.04 -0.453772
3.05 -0.425656
3.06 -0.404485
3.07 -0.391052
3.08 -0.387727
3.09 -0.394241
3.1 -0.410702
3.11 -0.436602
3.12 -0.469643
3.13 -0.508706
3.14 -0.550482
3.15 -0.592589
3.16 -0.632098
3.17 -0.666816
3.18 -0.693748
3.19 -0.71241
3.2 -0.720731
3.21 -0.719481
3.22 -0.709091
3.23 -0.690792
3.24 -0.667298
3.25 -0.640759
3.26 -0.614581
3.27 -0.591835
3.28 -0.575629
3.29 -0.568035
3.3 -0.572308
3.31 -0.588052
3.32 -0.617158
3.33 -0.657808
3.34 -0.708752
3.35 -0.767683
3.36 -0.83093
3.37 -0.895007
3.38 -0.95589
3.39 -1.00947
3.4 -1.05209
3.41 -1.08158
3.42 -1.09411
3.43 -1.09098
3.44 -1.07031
3.45 -1.03511
3.46 -0.987516
3.47 -0.931042
3.48 -0.87054
3.49 -0.810881
3.5 -0.75685
3.51 -0.713502
3.52 -0.684795
3.53 -0.672626
3.54 -0.680422
3.55 -0.70523
3.56 -0.74699
3.57 -0.799949
3.58 -0.858722
3.59 -0.915125
3.6 -0.961453
3.61 -0.984889
3.62 -0.97877
3.63 -0.930807
3.64 -0.832395
3.65 -0.679082
3.66 -0.458447
3.67 -0.176584
3.68 0.174802
3.69 0.586649
3.7 1.05443
3.71 1.57039
3.72 2.1189
3.73 2.68928
3.74 3.26252
3.75 3.82216
3.76 4.34974
3.77 4.83125
3.78 5.24339
3.79 5.58218
3.8 5.82586
3.81 5.97399
3.82 6.02015
3.83 5.95866
3.84 5.80293
3.85 5.54392
3.86 5.20568
3.87 4.79282
3.88 4.32238
3.89 3.81137
3.9 3.27393
3.91 2.72911
3.92 2.19249
3.93 1.67833
3.94 1.19879
3.95 0.766641
3.96 0.383699
3.97 0.0636369
3.98 -0.200715
3.99 -0.405113
4 -0.554338
4.01 -0.655712
4.02 -0.711415
4.03 -0.734809
4.04 -0.7303
4.05 -0.708861
4.06 -0.677546
4.07 -0.643719
4.08 -0.612907
4.09 -0.590734
4.1 -0.578916
4.11 -0.579821
4.12 -0.593254
4.13 -0.617567
4.14 -0.651538
4.15 -0.69114
4.16 -0.733588
4.17 -0.775003
4.18 -0.812187
4.19 -0.841596
4.2 -0.861818
4.21 -0.869262
4.22 -0.864728
4.23 -0.846872
4.24 -0.816434
4.25 -0.774936
4.26 -0.722776
4.27 -0.663041
4.28 -0.59673
4.29 -0.526352
4.3 -0.453454
4.31 -0.379548
4.32 -0.305747
4.33 -0.232918
4.34 -0.161301
4.35 -0.0910616
4.36 -0.021987
4.37 0.0462597
4.38 0.113961
4.39 0.181421
4.4 0.24866
4.41 0.315464
4.42 0.381307
4.43 0.44514
4.44 0.506061
4.45 0.561835
4.46 0.611458
4.47 0.652575
4.48 0.683392
4.49 0.702881
4.5 0.70812
4.51 0.700043
4.52 0.676333
4.53 0.638323
4.54 0.586336
4.55 0.521054
4.56 0.445402
4.57 0.360095
4.58 0.268986
4.59 0.174208
4.6 0.0788293
4.61 -0.0146745
4.62 -0.103271
4.63 -0.185616
4.64 -0.259137
4.65 -0.323387
4.66 -0.377661
4.67 -0.421471
4.68 -0.456355
4.69 -0.481889
4.7 -0.500696
4.71 -0.513704
4.72 -0.522846
4.73 -0.529849
4.74 -0.536255
4.75 -0.543428
4.76 -0.55258
4.77 -0.564291
4.78 -0.578925
4.79 -0.596593
4.8 -0.616659
4.81 -0.638806
4.82 -0.661906
4.83 -0.685106
4.84 -0.707337
4.85 -0.727801
4.86 -0.74538
4.87 -0.759892
4.88 -0.770555
4.89 -0.777582
4.9 -0.781066
4.91 -0.781283
4.92 -0.77911
4.93 -0.774983
4.94 -0.769988
4.95 -0.764858
4.96 -0.760436
4.97 -0.757297
4.98 -0.756192
4.99 -0.757175
5 -0.760687
5.01 -0.766491
5.02 -0.774447
5.03 -0.784301
5.04 -0.795488
5.05 -0.807721
5.06 -0.820404
5.07 -0.833171
5.08 -0.84564
5.09 -0.857569
5.1 -0.868651
5.11 -0.878849
5.12 -0.887898
5.13 -0.895717
5.14 -0.902063
5.15 -0.90646
5.16 -0.908635
5.17 -0.907381
5.18 -0.90222
5.19 -0.891659
5.2 -0.874322
5.21 -0.849182
5.22 -0.813511
5.23 -0.767253
5.24 -0.707543
5.25 -0.63429
5.26 -0.546579
5.27 -0.443436
5.28 -0.326792
5.29 -0.195535
5.3 -0.0534222
5.31 0.0981037
5.32 0.255517
5.33 0.41517
5.34 0.572589
5.35 0.723849
5.36 0.863342
5.37 0.987343
5.38 1.09168
5.39 1.17127
5.4 1.22603
5.41 1.24935
5.42 1.24445
5.43 1.20879
5.44 1.14397
5.45 1.05331
5.46 0.937099
5.47 0.802335
5.48 0.65124
5.49 0.490207
5.5 0.32387
5.51 0.157618
5.52 -0.00421514
5.53 -0.155964
5.54 -0.295358
5.55 -0.418527
5.56 -0.523574
5.57 -0.610436
5.58 -0.676698
5.59 -0.725726
5.6 -0.7567
5.61 -0.773099
5.62 -0.776928
5.63 -0.770448
5.64 -0.757106
5.65 -0.738554
5.66 -0.717663
5.67 -0.695915
5.68 -0.674649
5.69 -0.654458
5.7 -0.635623
5.71 -0.617613
5.72 -0.599715
5.73 -0.580796
5.74 -0.559679
5.75 -0.534858
5.76 -0.505711
5.77 -0.470547
5.78 -0.429724
5.79 -0.382749
5.8 -0.330251
5.81 -0.273418
5.82 -0.213396
5.83 -0.152385
5.84 -0.0925215
5.85 -0.0361486
5.86 0.0144711
5.87 0.0565516
5.88 0.0892144
5.89 0.109095
5.9 0.116873
5.91 0.111022
5.92 0.0918484
5.93 0.0606564
5.94 0.0173687
5.95 -0.0347946
5.96 -0.094856
5.97 -0.159822
5.98 -0.227539
5.99 -0.295568
6 -0.361959
6.01 -0.424388
6.02 -0.482002
6.03 -0.533489
6.04 -0.578468
6.05 -0.617321
6.06 -0.649851
6.07 -0.677716
6.08 -0.701485
6.09 -0.72281
6.1 -0.742894
6.11 -0.76304
6.12 -0.784181
6.13 -0.807334
6.14 -0.832628
6.15 -0.860272
6.16 -0.889867
6.17 -0.920703
6.18 -0.951864
6.19 -0.982245
6.2 -1.0105
6.21 -1.0356
6.22 -1.05655
6.23 -1.0723
6.24 -1.08301
6.25 -1.08774
6.26 -1.08763
6.27 -1.0829
6.28 -1.07466
6.29 -1.06411
6.3 -1.05232
6.31 -1.04051
6.32 -1.02954
6.33 -1.01981
6.34 -1.01122
6.35 -1.00298
6.36 -0.993689
6.37 -0.980606
6.38 -0.961232
6.39 -0.931456
6.4 -0.886896
6.41 -0.824256
6.42 -0.736036
6.43 -0.621476
6.44 -0.473021
6.45 -0.289962
6.46 -0.0698615
6.47 0.190201
6.48 0.485439
6.49 0.819199
6.5 1.18237
6.51 1.572
6.52 1.98005
6.53 2.39789
6.54 2.81586
6.55 3.22419
6.56 3.61053
6.57 3.9655
6.58 4.27924
6.59 4.53925
6.6 4.74405
6.61 4.87733
6.62 4.94438
6.63 4.93753
6.64 4.85769
6.65 4.7108
6.66 4.4934
6.67 4.22092
6.68 3.89453
6.69 3.52807
6.7 3.13078
6.71 2.71316
6.72 2.28737
6.73 1.86418
6.74 1.45326
6.75 1.06435
6.76 0.705455
6.77 0.380474
6.78 0.0987178
6.79 -0.143102
6.8 -0.338808
6.81 -0.492584
6.82 -0.60592
6.83 -0.680311
6.84 -0.723746
6.85 -0.736607
6.86 -0.728236
6.87 -0.702051
6.88 -0.66382
6.89 -0.618478
6.9 -0.569842
6.91 -0.521589
6.92 -0.476495
6.93 -0.436238
6.94 -0.401883
6.95 -0.374224
6.96 -0.352426
6.97 -0.336844
6.98 -0.325829
6.99 -0.318848
7 -0.314867
7.01 -0.313016
7.02 -0.312935
7.03 -0.314135
7.04 -0.316822
7.05 -0.321228
7.06 -0.327909
7.07 -0.337824
7.08 -0.351383
7.09 -0.370121
7.1 -0.39406
7.11 -0.424116
7.12 -0.460467
7.13 -0.502669
7.14 -0.550928
7.15 -0.603627
7.16 -0.66012
7.17 -0.718602
7.18 -0.777543
7.19 -0.835003
7.2 -0.889554
7.21 -0.93887
7.22 -0.982237
7.23 -1.01811
7.24 -1.0458
7.25 -1.06551
7.26 -1.0764
7.27 -1.08023
7.28 -1.07709
7.29 -1.06884
7.3 -1.05681
7.31 -1.04256
7.32 -1.02772
7.33 -1.01376
7.34 -1.00165
7.35 -0.992236
7.36 -0.985781
7.37 -0.981898
7.38 -0.98004
7.39 -0.978723
7.4 -0.976227
7.41 -0.970463
7.42 -0.959223
7.43 -0.939477
7.44 -0.909967
7.45 -0.866597
7.46 -0.809348
7.47 -0.735772
7.48 -0.645191
7.49 -0.538463
7.5 -0.414223
7.51 -0.276142
7.52 -0.124602
7.53 0.0365368
7.54 0.204267
7.55 0.37477
7.56 0.544087
7.57 0.707321
7.58 0.861138
7.59 1.00097
7.6 1.12308
7.61 1.22568
7.62 1.30344
7.63 1.35803
7.64 1.38541
7.65 1.38732
7.66 1.36401
7.67 1.31542
7.68 1.24599
7.69 1.15506
7.7 1.04837
7.71 0.927846
7.72 0.797398
7.73 0.660836
7.74 0.52145
7.75 0.382895
7.76 0.248621
7.77 0.121374
7.78 0.00361269
7.79 -0.101694
7.8 -0.19432
7.81 -0.270739
7.82 -0.332266
7.83 -0.377369
7.84 -0.406278
7.85 -0.420356
7.86 -0.418669
7.87 -0.404512
7.88 -0.377864
7.89 -0.341509
7.9 -0.297257
7.91 -0.247108
7.92 -0.193794
7.93 -0.139461
7.94 -0.0866085
7.95 -0.0375745
7.96 0.00534657
7.97 0.0407552
7.98 0.0657726
7.99 0.0805513
8 0.0828095
8.01 0.0729202
8.02 0.0507362
8.03 0.0159856
8.04 -0.0292142
8.05 -0.0851778
8.06 -0.14889
8.07 -0.219128
8.08 -0.293582
8.09 -0.370041
8.1 -0.446295
8.11 -0.520433
8.12 -0.590303
8.13 -0.65464
8.14 -0.712361
8.15 -0.762309
8.16 -0.805117
8.17 -0.839862
8.18 -0.868237
8.19 -0.890704
8.2 -0.908656
8.21 -0.923606
8.22 -0.93675
8.23 -0.949537
8.24 -0.962954
8.25 -0.977592
8.26 -0.99357
8.27 -1.01046
8.28 -1.02719
8.29 -1.04182
8.3 -1.05234
8.31 -1.05568
8.32 -1.04843
8.33 -1.0281
8.34 -0.98894
8.35 -0.930308
8.36 -0.846581
8.37 -0.736963
8.38 -0.599679
8.39 -0.432193
8.4 -0.238008
8.41 -0.0143131
8.42 0.232475
8.43 0.500516
8.44 0.784436
8.45 1.07811
8.46 1.37536
8.47 1.66899
8.48 1.95096
8.49 2.21441
8.5 2.45266
8.51 2.65693
8.52 2.82577
8.53 2.94821
8.54 3.02687
8.55 3.05646
8.56 3.03669
8.57 2.97131
8.58 2.8569
8.59 2.70358
8.6 2.5113
8.61 2.28874
8.62 2.0417
8.63 1.77637
8.64 1.50114
8.65 1.22218
8.66 0.946616
8.67 0.680567
8.68 0.429734
8.69 0.197194
8.7 -0.0107264
8.71 -0.195165
8.72 -0.35183
8.73 -0.482421
8.74 -0.587463
8.75 -0.667135
8.76 -0.726234
8.77 -0.764503
8.78 -0.787759
8.79 -0.798064
8.8 -0.799109
8.81 -0.794341
8.82 -0.786344
8.83 -0.778002
8.84 -0.771456
8.85 -0.768288
8.86 -0.769568
8.87 -0.776283
8.88 -0.788005
8.89 -0.805302
8.9 -0.826899
8.91 -0.852337
8.92 -0.880535
8.93 -0.910369
8.94 -0.940838
8.95 -0.970903
8.96 -0.999606
8.97 -1.02629
8.98 -1.05046
8.99 -1.07159
9 -1.08988
9.01 -1.10493
9.02 -1.11733
9.03 -1.12716
9.04 -1.13483
9.05 -1.14079
9.06 -1.14519
9.07 -1.14848
9.08 -1.15067
9.09 -1.15184
9.1 -1.15184
9.11 -1.15023
9.12 -1.14679
9.13 -1.14053
9.14 -1.13112
9.15 -1.11757
9.16 -1.09909
9.17 -1.07531
9.18 -1.04478
9.19 -1.00798
9.2 -0.963814
9.21 -0.912745
9.22 -0.854961
9.23 -0.790635
9.24 -0.721233
9.25 -0.647178
9.26 -0.570451
9.27 -0.492406
9.28 -0.414973
9.29 -0.339799
9.3 -0.269357
9.31 -0.204746
9.32 -0.148445
9.33 -0.101425
9.34 -0.0648139
9.35 -0.0401797
9.36 -0.0265885
9.37 -0.0258173
9.38 -0.0357801
9.39 -0.0564212
9.4 -0.086323
9.41 -0.123476
9.42 -0.166746
9.43 -0.213366
9.44 -0.261607
9.45 -0.309201
9.46 -0.354351
9.47 -0.394992
9.48 -0.430344
9.49 -0.458398
9.5 -0.479466
9.51 -0.492867
9.52 -0.498905
9.53 -0.498631
9.54 -0.492342
9.55 -0.482099
9.56 -0.468939
9.57 -0.454727
9.58 -0.440945
9.59 -0.429305
9.6 -0.420777
9.61 -0.417061
9.62 -0.418315
9.63 -0.425309
9.64 -0.438106
9.65 -0.456116
9.66 -0.479427
9.67 -0.506561
9.68 -0.537028
9.69 -0.569528
9.7 -0.603107
9.71 -0.636769
9.72 -0.669764
9.73 -0.70129
9.74 -0.731127
9.75 -0.758974
9.76 -0.78484
9.77 -0.808978
9.78 -0.831393
9.79 -0.852498
9.8 -0.872187
9.81 -0.890369
9.82 -0.906566
9.83 -0.919615
9.84 -0.928589
9.85 -0.930692
9.86 -0.924346
9.87 -0.906142
9.88 -0.872568
9.89 -0.821433
9.9 -0.746204
9.91 -0.646863
9.92 -0.517112
9.93 -0.356195
9.94 -0.16229
9.95 0.0678036
9.96 0.329942
9.97 0.627726
9.98 0.95393
9.99 1.30667
10 1.68005
10.01 2.06691
10.02 2.4605
10.03 2.85199
10.04 3.23214
10.05 3.59236
10.06 3.92451
10.07 4.21755
10.08 4.4691
10.09 4.66553
10.1 4.80889
10.11 4.89226
10.12 4.91413
10.13 4.87868
10.14 4.7803
10.15 4.63123
10.16 4.43047
10.17 4.1882
10.18 3.91129
10.19 3.60661
10.2 3.28496
10.21 2.95307
10.22 2.62042
10.23 2.29424
10.24 1.98177
10.25 1.68719
10.26 1.41798
10.27 1.17354
10.28 0.95872
10.29 0.77206
10.3 0.612896
10.31 0.481079
10.32 0.371216
10.33 0.283257
10.34 0.21084
10.35 0.151413
10.36 0.100883
10.37 0.0554987
10.38 0.0123844
10.39 -0.0312784
10.4 -0.0776356
10.41 -0.127984
10.42 -0.18305
10.43 -0.243367
10.44 -0.30806
10.45 -0.376994
10.46 -0.448555
10.47 -0.521681
10.48 -0.59485
10.49 -0.666799
10.5 -0.735848
10.51 -0.801288
10.52 -0.861681
10.53 -0.916581
10.54 -0.965517
10.55 -1.00777
10.56 -1.04399
10.57 -1.07328
10.58 -1.09666
10.59 -1.11395
10.6 -1.12543
10.61 -1.1317
10.62 -1.1323
10.63 -1.12818
10.64 -1.1189
10.65 -1.10489
10.66 -1.08625
10.67 -1.0628
10.68 -1.03524
10.69 -1.00318
10.7 -0.967557
10.71 -0.928599
10.72 -0.887016
10.73 -0.843697
10.74 -0.799471
10.75 -0.755472
10.76 -0.712889
10.77 -0.672866
10.78 -0.636483
10.79 -0.605226
10.8 -0.579429
10.81 -0.56089
10.82 -0.549345
10.83 -0.545655
10.84 -0.549968
10.85 -0.561639
10.86 -0.581257
10.87 -0.60711
10.88 -0.639105
10.89 -0.67578
10.9 -0.716064
10.91 -0.758831
10.92 -0.802665
10.93 -0.846382
10.94 -0.888847
10.95 -0.928992
10.96 -0.965869
10.97 -0.999077
10.98 -1.02754
10.99 -1.05164
11 -1.07077
11.01 -1.08537
11.02 -1.0957
11.03 -1.102
11.04 -1.10524
11.05 -1.10569
11.06 -1.10443
11.07 -1.1021
11.08 -1.09952
11.09 -1.09739
11.1 -1.0965
11.11 -1.09721
11.12 -1.10011
11.13 -1.10531
11.14 -1.11281
11.15 -1.12253
11.16 -1.13381
11.17 -1.14606
11.18 -1.15815
11.19 -1.16882
11.2 -1.17638
11.21 -1.17944
11.22 -1.17509
11.23 -1.16235
11.24 -1.13791
11.25 -1.10024
11.26 -1.04742
11.27 -0.976292
11.28 -0.887475
11.29 -0.776851
11.3 -0.646405
11.31 -0.494727
11.32 -0.322411
11.33 -0.132
11.34 0.076785
11.35 0.298763
11.36 0.532078
11.37 0.771809
11.38 1.01375
11.39 1.25256
11.4 1.48392
11.41 1.70092
11.42 1.90022
11.43 2.07608
11.44 2.22383
11.45 2.34217
11.46 2.42368
11.47 2.47174
11.48 2.48132
11.49 2.45496
11.5 2.39386
11.51 2.29799
11.52 2.17405
11.53 2.0218
11.54 1.84914
11.55 1.65942
11.56 1.45816
11.57 1.25081
11.58 1.04226
11.59 0.837168
11.6 0.640242
11.61 0.45472
11.62 0.283187
11.63 0.128913
11.64 -0.00893671
11.65 -0.127307
11.66 -0.228917
11.67 -0.313654
11.68 -0.383213
11.69 -0.440463
11.7 -0.4863
11.71 -0.524685
11.72 -0.557209
11.73 -0.586655
11.74 -0.614926
11.75 -0.643814
11.76 -0.674372
11.77 -0.707667
11.78 -0.743575
11.79 -0.781967
11.8 -0.821992
11.81 -0.862448
11.82 -0.901603
11.83 -0.937879
11.84 -0.968881
11.85 -0.992761
11.86 -1.00767
11.87 -1.01086
11.88 -1.00213
11.89 -0.978119
11.9 -0.939677
11.91 -0.885339
11.92 -0.814953
11.93 -0.729976
11.94 -0.629285
11.95 -0.51635
11.96 -0.391454
11.97 -0.257551
11.98 -0.116948
11.99 0.0278041
12 0.173606
12.01 0.317332
12.02 0.456216
12.03 0.587145
12.04 0.70709
12.05 0.814566
12.06 0.905261
12.07 0.979816
12.08 1.0349
12.09 1.07078
12.1 1.08726
12.11 1.08315
12.12 1.06146
12.13 1.02076
12.14 0.965027
12.15 0.895269
12.16 0.814026
12.17 0.72444
12.18 0.628421
12.19 0.529495
12.2 0.429993
12.21 0.332514
12.22 0.239035
12.23 0.151845
12.24 0.0714615
12.25 -7.68853e-05
12.26 -0.0634411
12.27 -0.118204
12.28 -0.164918
12.29 -0.204989
12.3 -0.238876
12.31 -0.268862
12.32 -0.296079
12.33 -0.322357
12.34 -0.349068
12.35 -0.377664
12.36 -0.408811
12.37 -0.443559
12.38 -0.481636
12.39 -0.522964
12.4 -0.566745
12.41 -0.611761
