# xPDFsuite Configuration #
[PDF]
wavelength = 0.1432
dataformat = twotheta
inputfile = 1_1Pd_CeO2_cycle-00010.chi
backgroundfile = background-00000.chi
mode = xray
bgscale = 1.007
composition = CeO2
outputtype = gr
qmaxinst = 28.8974762299
qmin = 0.5
qmax = 27.9
rmax = 50.0
rmin = 0.0
rstep = 0.01
rpoly = 1.8657

[Misc]
inputdir = G:/SankarDec16/1Pd/Chi
savedir = D:/DATA/APS_CeO2/1Pd
backgroundfilefull = G:/SankarDec16/Background/background-00000.chi

#### start data
#S 1
#L r($\AA$)  G($\AA^{-2}$)
0 0
0.01 -0.00651459
0.02 -0.0125382
0.03 -0.0175653
0.04 -0.0212151
0.05 -0.0232759
0.06 -0.0234072
0.07 -0.0218359
0.08 -0.0184529
0.09 -0.0136911
0.1 -0.00785052
0.11 -0.00138974
0.12 0.00519108
0.13 0.0113307
0.14 0.0166319
0.15 0.020608
0.16 0.0229745
0.17 0.0236179
0.18 0.0223067
0.19 0.0193747
0.2 0.0148358
0.21 0.00919519
0.22 0.0028261
0.23 -0.00375626
0.24 -0.0100814
0.25 -0.0155446
0.26 -0.0198614
0.27 -0.0225877
0.28 -0.0235486
0.29 -0.0227348
0.3 -0.0200348
0.31 -0.0158739
0.32 -0.0103884
0.33 -0.00413155
0.34 0.00246766
0.35 0.00886196
0.36 0.0146331
0.37 0.0191623
0.38 0.0222911
0.39 0.0236397
0.4 0.0231516
0.41 0.0209222
0.42 0.016966
0.43 0.0117793
0.44 0.00561478
0.45 -0.000952299
0.46 -0.00745815
0.47 -0.0133492
0.48 -0.0182801
0.49 -0.0216473
0.5 -0.0234267
0.51 -0.0233214
0.52 -0.0213962
0.53 -0.0178472
0.54 -0.0128148
0.55 -0.00684292
0.56 -0.000288376
0.57 0.00627864
0.58 0.012382
0.59 0.0174881
0.6 0.0213415
0.61 0.0233835
0.62 0.0237257
0.63 0.0221689
0.64 0.0188965
0.65 0.0141966
0.66 0.00832921
0.67 0.00185989
0.68 -0.00476703
0.69 -0.0110137
0.7 -0.0164148
0.71 -0.0204821
0.72 -0.0230629
0.73 -0.0236696
0.74 -0.0225449
0.75 -0.0195963
0.76 -0.0151173
0.77 -0.00947321
0.78 -0.00303064
0.79 0.0036513
0.8 0.0100642
0.81 0.0157291
0.82 0.0202157
0.83 0.0231067
0.84 0.0243596
0.85 0.023585
0.86 0.0211426
0.87 0.0170522
0.88 0.0117013
0.89 0.00551147
0.9 -0.00106574
0.91 -0.00751081
0.92 -0.0132846
0.93 -0.0179992
0.94 -0.0212915
0.95 -0.0228504
0.96 -0.022754
0.97 -0.0207562
0.98 -0.0173196
0.99 -0.0125978
1 -0.00706455
1.01 -0.00118311
1.02 0.0045097
1.03 0.00957427
1.04 0.0134504
1.05 0.0158806
1.06 0.0165972
1.07 0.0154304
1.08 0.0126113
1.09 0.00808302
1.1 0.00243823
1.11 -0.00398702
1.12 -0.0105922
1.13 -0.0168397
1.14 -0.0220316
1.15 -0.0258
1.16 -0.0274681
1.17 -0.026892
1.18 -0.0238395
1.19 -0.0182118
1.2 -0.0104089
1.21 -0.000431177
1.22 0.0109214
1.23 0.0231961
1.24 0.0356318
1.25 0.0475617
1.26 0.0581165
1.27 0.0668481
1.28 0.0728959
1.29 0.0760512
1.3 0.0759628
1.31 0.0723911
1.32 0.0657416
1.33 0.0557533
1.34 0.0433176
1.35 0.0287076
1.36 0.0126576
1.37 -0.00415327
1.38 -0.0210084
1.39 -0.037263
1.4 -0.0521696
1.41 -0.065295
1.42 -0.0761825
1.43 -0.0844092
1.44 -0.0900785
1.45 -0.0926807
1.46 -0.0927332
1.47 -0.0901374
1.48 -0.0852249
1.49 -0.0783526
1.5 -0.0696793
1.51 -0.0597506
1.52 -0.0487425
1.53 -0.0370737
1.54 -0.0249941
1.55 -0.0127719
1.56 -0.000625797
1.57 0.011192
1.58 0.0225386
1.59 0.0331807
1.6 0.042931
1.61 0.0516406
1.62 0.0589562
1.63 0.0648497
1.64 0.0688898
1.65 0.071028
1.66 0.0710387
1.67 0.068689
1.68 0.0641455
1.69 0.057028
1.7 0.0478127
1.71 0.036484
1.72 0.0234228
1.73 0.00905781
1.74 -0.00620863
1.75 -0.0217551
1.76 -0.0370137
1.77 -0.0514212
1.78 -0.0644504
1.79 -0.0755388
1.8 -0.0845626
1.81 -0.0909093
1.82 -0.0949127
1.83 -0.0964411
1.84 -0.0958464
1.85 -0.0935882
1.86 -0.0900931
1.87 -0.0861027
1.88 -0.0822519
1.89 -0.0792049
1.9 -0.0775459
1.91 -0.0778692
1.92 -0.080279
1.93 -0.0853124
1.94 -0.092523
1.95 -0.101854
1.96 -0.112729
1.97 -0.12448
1.98 -0.136279
1.99 -0.147267
2 -0.156327
2.01 -0.162677
2.02 -0.165458
2.03 -0.163762
2.04 -0.15759
2.05 -0.145849
2.06 -0.129336
2.07 -0.107804
2.08 -0.0818818
2.09 -0.0523422
2.1 -0.0197033
2.11 0.0147986
2.12 0.0504527
2.13 0.0862626
2.14 0.121522
2.15 0.155558
2.16 0.188154
2.17 0.218889
2.18 0.24813
2.19 0.276035
2.2 0.303164
2.21 0.330107
2.22 0.357596
2.23 0.386157
2.24 0.416493
2.25 0.448792
2.26 0.483178
2.27 0.519478
2.28 0.556998
2.29 0.594907
2.3 0.631932
2.31 0.666516
2.32 0.69691
2.33 0.721661
2.34 0.738134
2.35 0.745864
2.36 0.742188
2.37 0.727068
2.38 0.699687
2.39 0.659521
2.4 0.608325
2.41 0.545442
2.42 0.474192
2.43 0.395818
2.44 0.313147
2.45 0.228811
2.46 0.145801
2.47 0.0665043
2.48 -0.0059151
2.49 -0.0698459
2.5 -0.12351
2.51 -0.165294
2.52 -0.195993
2.53 -0.213928
2.54 -0.221808
2.55 -0.220061
2.56 -0.210974
2.57 -0.196898
2.58 -0.18005
2.59 -0.163103
2.6 -0.148511
2.61 -0.138181
2.62 -0.133755
2.63 -0.136708
2.64 -0.146783
2.65 -0.165138
2.66 -0.18992
2.67 -0.220597
2.68 -0.255309
2.69 -0.292165
2.7 -0.329088
2.71 -0.364165
2.72 -0.395172
2.73 -0.420852
2.74 -0.44
2.75 -0.451641
2.76 -0.456444
2.77 -0.453756
2.78 -0.445633
2.79 -0.432938
2.8 -0.417652
2.81 -0.401637
2.82 -0.387043
2.83 -0.375418
2.84 -0.368837
2.85 -0.368091
2.86 -0.373982
2.87 -0.386966
2.88 -0.40597
2.89 -0.430963
2.9 -0.459685
2.91 -0.490755
2.92 -0.521969
2.93 -0.551432
2.94 -0.576686
2.95 -0.596641
2.96 -0.60914
2.97 -0.613945
2.98 -0.610607
2.99 -0.599143
3 -0.581189
3.01 -0.557281
3.02 -0.530142
3.03 -0.5016
3.04 -0.474171
3.05 -0.449879
3.06 -0.431422
3.07 -0.419627
3.08 -0.416645
3.09 -0.422305
3.1 -0.436727
3.11 -0.459457
3.12 -0.488447
3.13 -0.522647
3.14 -0.559094
3.15 -0.595618
3.16 -0.629588
3.17 -0.659058
3.18 -0.681367
3.19 -0.696168
3.2 -0.701698
3.21 -0.698782
3.22 -0.687954
3.23 -0.670515
3.24 -0.648999
3.25 -0.625613
3.26 -0.603414
3.27 -0.585322
3.28 -0.574136
3.29 -0.571642
3.3 -0.580755
3.31 -0.600837
3.32 -0.633433
3.33 -0.676567
3.34 -0.728814
3.35 -0.787716
3.36 -0.849723
3.37 -0.911213
3.38 -0.968496
3.39 -1.01757
3.4 -1.05509
3.41 -1.07919
3.42 -1.08637
3.43 -1.07826
3.44 -1.05333
3.45 -1.01482
3.46 -0.965104
3.47 -0.907892
3.48 -0.847959
3.49 -0.790374
3.5 -0.7396
3.51 -0.700619
3.52 -0.677093
3.53 -0.670603
3.54 -0.684252
3.55 -0.714738
3.56 -0.761627
3.57 -0.818907
3.58 -0.880947
3.59 -0.939328
3.6 -0.986402
3.61 -1.00914
3.62 -1.00118
3.63 -0.950299
3.64 -0.848182
3.65 -0.690686
3.66 -0.465716
3.67 -0.17971
3.68 0.175254
3.69 0.589864
3.7 1.05936
3.71 1.57576
3.72 2.12352
3.73 2.69178
3.74 3.26185
3.75 3.81739
3.76 4.34025
3.77 4.81677
3.78 5.22404
3.79 5.55841
3.8 5.79855
3.81 5.94426
3.82 5.98938
3.83 5.92845
3.84 5.77477
3.85 5.51947
3.86 5.18623
3.87 4.7795
3.88 4.31595
3.89 3.81219
3.9 3.28194
3.91 2.74383
3.92 2.21299
3.93 1.70335
3.94 1.22681
3.95 0.79587
3.96 0.412467
3.97 0.0900357
3.98 -0.178169
3.99 -0.387789
4 -0.543208
4.01 -0.651335
4.02 -0.713916
4.03 -0.743878
4.04 -0.745146
4.05 -0.728378
4.06 -0.70034
4.07 -0.66812
4.08 -0.637347
4.09 -0.613418
4.1 -0.598452
4.11 -0.594938
4.12 -0.603066
4.13 -0.621589
4.14 -0.649712
4.15 -0.683816
4.16 -0.721579
4.17 -0.759402
4.18 -0.794346
4.19 -0.823097
4.2 -0.844117
4.21 -0.853977
4.22 -0.853062
4.23 -0.839861
4.24 -0.814702
4.25 -0.778708
4.26 -0.731814
4.27 -0.676744
4.28 -0.614022
4.29 -0.545937
4.3 -0.473816
4.31 -0.398995
4.32 -0.322785
4.33 -0.245968
4.34 -0.169266
4.35 -0.0930943
4.36 -0.0177185
4.37 0.0567544
4.38 0.130054
4.39 0.202141
4.4 0.272496
4.41 0.340718
4.42 0.406073
4.43 0.467361
4.44 0.523963
4.45 0.573588
4.46 0.615829
4.47 0.648653
4.48 0.670844
4.49 0.681899
4.5 0.679561
4.51 0.665152
4.52 0.637
4.53 0.596647
4.54 0.544665
4.55 0.481924
4.56 0.411017
4.57 0.33276
4.58 0.250305
4.59 0.165442
4.6 0.0805794
4.61 -0.00241364
4.62 -0.0812452
4.63 -0.155054
4.64 -0.222002
4.65 -0.281929
4.66 -0.334447
4.67 -0.379338
4.68 -0.417812
4.69 -0.449636
4.7 -0.476689
4.71 -0.499579
4.72 -0.519553
4.73 -0.537673
4.74 -0.554718
4.75 -0.571469
4.76 -0.588352
4.77 -0.605563
4.78 -0.623076
4.79 -0.64064
4.8 -0.657896
4.81 -0.67423
4.82 -0.689251
4.83 -0.702364
4.84 -0.713177
4.85 -0.721576
4.86 -0.727192
4.87 -0.730512
4.88 -0.731568
4.89 -0.731057
4.9 -0.72954
4.91 -0.727762
4.92 -0.726411
4.93 -0.726351
4.94 -0.727992
4.95 -0.731917
4.96 -0.738356
4.97 -0.747225
4.98 -0.758611
4.99 -0.771824
5 -0.786531
5.01 -0.801917
5.02 -0.817308
5.03 -0.831896
5.04 -0.845171
5.05 -0.856307
5.06 -0.865243
5.07 -0.871632
5.08 -0.875571
5.09 -0.877398
5.1 -0.87731
5.11 -0.87603
5.12 -0.873944
5.13 -0.871598
5.14 -0.869286
5.15 -0.867114
5.16 -0.864886
5.17 -0.861968
5.18 -0.857529
5.19 -0.850166
5.2 -0.838173
5.21 -0.820069
5.22 -0.792788
5.23 -0.75558
5.24 -0.705078
5.25 -0.640595
5.26 -0.560726
5.27 -0.463958
5.28 -0.352063
5.29 -0.223401
5.3 -0.0819297
5.31 0.0710405
5.32 0.231772
5.33 0.396271
5.34 0.559827
5.35 0.717927
5.36 0.864554
5.37 0.995452
5.38 1.106
5.39 1.19064
5.4 1.24908
5.41 1.27422
5.42 1.26939
5.43 1.2319
5.44 1.16348
5.45 1.06772
5.46 0.945085
5.47 0.803109
5.48 0.644357
5.49 0.475735
5.5 0.302304
5.51 0.129957
5.52 -0.0367406
5.53 -0.191576
5.54 -0.332321
5.55 -0.454852
5.56 -0.557314
5.57 -0.639844
5.58 -0.700055
5.59 -0.741831
5.6 -0.764575
5.61 -0.772281
5.62 -0.767364
5.63 -0.752573
5.64 -0.731689
5.65 -0.706913
5.66 -0.681237
5.67 -0.65648
5.68 -0.634089
5.69 -0.614584
5.7 -0.598385
5.71 -0.584543
5.72 -0.572284
5.73 -0.560026
5.74 -0.546259
5.75 -0.529067
5.76 -0.507434
5.77 -0.479204
5.78 -0.444463
5.79 -0.402354
5.8 -0.353281
5.81 -0.298372
5.82 -0.238527
5.83 -0.176209
5.84 -0.113488
5.85 -0.0530353
5.86 0.00265316
5.87 0.0504894
5.88 0.0892084
5.89 0.115089
5.9 0.128469
5.91 0.127476
5.92 0.112128
5.93 0.0835915
5.94 0.0414818
5.95 -0.0108421
5.96 -0.0725574
5.97 -0.14045
5.98 -0.212224
5.99 -0.285238
6 -0.357191
6.01 -0.425505
6.02 -0.48896
6.03 -0.545935
6.04 -0.595739
6.05 -0.63856
6.06 -0.673871
6.07 -0.703363
6.08 -0.727387
6.09 -0.747713
6.1 -0.765594
6.11 -0.782432
6.12 -0.799444
6.13 -0.817772
6.14 -0.837893
6.15 -0.860242
6.16 -0.884696
6.17 -0.91075
6.18 -0.937757
6.19 -0.964674
6.2 -0.990353
6.21 -1.01374
6.22 -1.03387
6.23 -1.04966
6.24 -1.06109
6.25 -1.06722
6.26 -1.06893
6.27 -1.06636
6.28 -1.06042
6.29 -1.05221
6.3 -1.04267
6.31 -1.03296
6.32 -1.02389
6.33 -1.01584
6.34 -1.00875
6.35 -1.00186
6.36 -0.99386
6.37 -0.982073
6.38 -0.964072
6.39 -0.935813
6.4 -0.892954
6.41 -0.832202
6.42 -0.746057
6.43 -0.633686
6.44 -0.48746
6.45 -0.306553
6.46 -0.088406
6.47 0.170067
6.48 0.464159
6.49 0.79743
6.5 1.16077
6.51 1.55132
6.52 1.96106
6.53 2.38128
6.54 2.80229
6.55 3.21411
6.56 3.60424
6.57 3.96306
6.58 4.28051
6.59 4.5438
6.6 4.75132
6.61 4.88645
6.62 4.95447
6.63 4.94754
6.64 4.8666
6.65 4.71769
6.66 4.49739
6.67 4.22145
6.68 3.89122
6.69 3.52088
6.7 3.11995
6.71 2.6993
6.72 2.27128
6.73 1.84706
6.74 1.43633
6.75 1.049
6.76 0.693064
6.77 0.372262
6.78 0.0958428
6.79 -0.139896
6.8 -0.329034
6.81 -0.4762
6.82 -0.583269
6.83 -0.652215
6.84 -0.691282
6.85 -0.701396
6.86 -0.691922
6.87 -0.66655
6.88 -0.631056
6.89 -0.590189
6.9 -0.547755
6.91 -0.506907
6.92 -0.470167
6.93 -0.438662
6.94 -0.413002
6.95 -0.393422
6.96 -0.378733
6.97 -0.368667
6.98 -0.361471
6.99 -0.356272
7 -0.351966
7.01 -0.34784
7.02 -0.343483
7.03 -0.338952
7.04 -0.334671
7.05 -0.331444
7.06 -0.330291
7.07 -0.332731
7.08 -0.339574
7.09 -0.352956
7.1 -0.373049
7.11 -0.401105
7.12 -0.437378
7.13 -0.481278
7.14 -0.533038
7.15 -0.590519
7.16 -0.652829
7.17 -0.717601
7.18 -0.782843
7.19 -0.846053
7.2 -0.905437
7.21 -0.958066
7.22 -1.00313
7.23 -1.03879
7.24 -1.06432
7.25 -1.08013
7.26 -1.08542
7.27 -1.0825
7.28 -1.07181
7.29 -1.05579
7.3 -1.03628
7.31 -1.01544
7.32 -0.995255
7.33 -0.977841
7.34 -0.964212
7.35 -0.955513
7.36 -0.951973
7.37 -0.95295
7.38 -0.957812
7.39 -0.964426
7.4 -0.970693
7.41 -0.973862
7.42 -0.971169
7.43 -0.958916
7.44 -0.935492
7.45 -0.896095
7.46 -0.8407
7.47 -0.766556
7.48 -0.673038
7.49 -0.561307
7.5 -0.430123
7.51 -0.283865
7.52 -0.123348
7.53 0.0468523
7.54 0.223124
7.55 0.400928
7.56 0.575943
7.57 0.742516
7.58 0.89733
7.59 1.03551
7.6 1.15339
7.61 1.24954
7.62 1.31877
7.63 1.36353
7.64 1.38027
7.65 1.37148
7.66 1.3381
7.67 1.28084
7.68 1.20454
7.69 1.10934
7.7 1.00099
7.71 0.88175
7.72 0.755463
7.73 0.625573
7.74 0.495244
7.75 0.367295
7.76 0.244698
7.77 0.129371
7.78 0.0230827
7.79 -0.0720201
7.8 -0.156151
7.81 -0.226649
7.82 -0.284857
7.83 -0.329632
7.84 -0.361178
7.85 -0.380524
7.86 -0.386666
7.87 -0.382067
7.88 -0.366283
7.89 -0.341277
7.9 -0.308185
7.91 -0.268213
7.92 -0.223624
7.93 -0.175736
7.94 -0.126967
7.95 -0.0792629
7.96 -0.0349036
7.97 0.0044234
7.98 0.0358097
7.99 0.0586443
8 0.070279
8.01 0.0703296
8.02 0.0580368
8.03 0.0324084
8.04 -0.00488145
8.05 -0.0548864
8.06 -0.114684
8.07 -0.183398
8.08 -0.258734
8.09 -0.338224
8.1 -0.419619
8.11 -0.500329
8.12 -0.577864
8.13 -0.650287
8.14 -0.715969
8.15 -0.773117
8.16 -0.821986
8.17 -0.86101
8.18 -0.891828
8.19 -0.914623
8.2 -0.930809
8.21 -0.942156
8.22 -0.949948
8.23 -0.956248
8.24 -0.962393
8.25 -0.969583
8.26 -0.978433
8.27 -0.989103
8.28 -1.00083
8.29 -1.01228
8.3 -1.02141
8.31 -1.02541
8.32 -1.02083
8.33 -1.00488
8.34 -0.971733
8.35 -0.920149
8.36 -0.844168
8.37 -0.742427
8.38 -0.612688
8.39 -0.451872
8.4 -0.263206
8.41 -0.0433354
8.42 0.201315
8.43 0.46912
8.44 0.754658
8.45 1.05155
8.46 1.35356
8.47 1.65293
8.48 1.94134
8.49 2.21144
8.5 2.45613
8.51 2.66618
8.52 2.83989
8.53 2.96581
8.54 3.04657
8.55 3.07669
8.56 3.05595
8.57 2.98826
8.58 2.87029
8.59 2.71259
8.6 2.51533
8.61 2.28761
8.62 2.03556
8.63 1.76573
8.64 1.4867
8.65 1.20502
8.66 0.927796
8.67 0.661299
8.68 0.411198
8.69 0.180415
8.7 -0.0247654
8.71 -0.205813
8.72 -0.3586
8.73 -0.48512
8.74 -0.58613
8.75 -0.662061
8.76 -0.71785
8.77 -0.75347
8.78 -0.774742
8.79 -0.78381
8.8 -0.784344
8.81 -0.779688
8.82 -0.772397
8.83 -0.765154
8.84 -0.760011
8.85 -0.758388
8.86 -0.761238
8.87 -0.769438
8.88 -0.782501
8.89 -0.800925
8.9 -0.82345
8.91 -0.849619
8.92 -0.878396
8.93 -0.908712
8.94 -0.939624
8.95 -0.970149
8.96 -0.999377
8.97 -1.02667
8.98 -1.05153
8.99 -1.07341
9 -1.09247
9.01 -1.10821
9.02 -1.12116
9.03 -1.1313
9.04 -1.13895
9.05 -1.14451
9.06 -1.14806
9.07 -1.15009
9.08 -1.15059
9.09 -1.14973
9.1 -1.14748
9.11 -1.14355
9.12 -1.13786
9.13 -1.12965
9.14 -1.11872
9.15 -1.1043
9.16 -1.08571
9.17 -1.06263
9.18 -1.03378
9.19 -0.999445
9.2 -0.958563
9.21 -0.911373
9.22 -0.857872
9.23 -0.797971
9.24 -0.732861
9.25 -0.662613
9.26 -0.588982
9.27 -0.51302
9.28 -0.436437
9.29 -0.360831
9.3 -0.288432
9.31 -0.22058
9.32 -0.159717
9.33 -0.107123
9.34 -0.0641904
9.35 -0.0328315
9.36 -0.0125113
9.37 -0.00546215
9.38 -0.0099401
9.39 -0.0262986
9.4 -0.0534427
9.41 -0.0894681
9.42 -0.1336
9.43 -0.182808
9.44 -0.235475
9.45 -0.288989
9.46 -0.341266
9.47 -0.389883
9.48 -0.433559
9.49 -0.469807
9.5 -0.498479
9.51 -0.518416
9.52 -0.529508
9.53 -0.532623
9.54 -0.527603
9.55 -0.516723
9.56 -0.500826
9.57 -0.482087
9.58 -0.462239
9.59 -0.443308
9.6 -0.426796
9.61 -0.414826
9.62 -0.408083
9.63 -0.407807
9.64 -0.414515
9.65 -0.427852
9.66 -0.448376
9.67 -0.474475
9.68 -0.505882
9.69 -0.541048
9.7 -0.578815
9.71 -0.617924
9.72 -0.657133
9.73 -0.695272
9.74 -0.731616
9.75 -0.765433
9.76 -0.796307
9.77 -0.824263
9.78 -0.84888
9.79 -0.870681
9.8 -0.889368
9.81 -0.905081
9.82 -0.917546
9.83 -0.925868
9.84 -0.929577
9.85 -0.926265
9.86 -0.914818
9.87 -0.89226
9.88 -0.855487
9.89 -0.802513
9.9 -0.727238
9.91 -0.629494
9.92 -0.503174
9.93 -0.347263
9.94 -0.159713
9.95 0.0629684
9.96 0.317132
9.97 0.606806
9.98 0.925272
9.99 1.27113
10 1.63896
10.01 2.02185
10.02 2.41358
10.03 2.8052
10.04 3.18775
10.05 3.55242
10.06 3.89089
10.07 4.19191
10.08 4.45255
10.09 4.65882
10.1 4.81219
10.11 4.90524
10.12 4.93592
10.13 4.90804
10.14 4.8154
10.15 4.67021
10.16 4.47104
10.17 4.22815
10.18 3.94848
10.19 3.63893
10.2 3.31078
10.21 2.97092
10.22 2.62944
10.23 2.29397
10.24 1.97229
10.25 1.66899
10.26 1.39212
10.27 1.14131
10.28 0.921895
10.29 0.732497
10.3 0.572564
10.31 0.442077
10.32 0.335322
10.33 0.252315
10.34 0.186188
10.35 0.134149
10.36 0.091681
10.37 0.0546171
10.38 0.0196411
10.39 -0.0164183
10.4 -0.0561384
10.41 -0.101066
10.42 -0.15214
10.43 -0.210154
10.44 -0.2741
10.45 -0.344067
10.46 -0.418112
10.47 -0.495094
10.48 -0.573226
10.49 -0.650905
10.5 -0.726185
10.51 -0.797959
10.52 -0.86446
10.53 -0.924923
10.54 -0.978621
10.55 -1.02452
10.56 -1.06326
10.57 -1.09364
10.58 -1.11684
10.59 -1.13264
10.6 -1.14145
10.61 -1.14412
10.62 -1.14031
10.63 -1.13136
10.64 -1.11706
10.65 -1.09817
10.66 -1.07507
10.67 -1.04788
10.68 -1.01743
10.69 -0.983654
10.7 -0.947438
10.71 -0.909132
10.72 -0.869401
10.73 -0.828961
10.74 -0.788591
10.75 -0.749073
10.76 -0.711401
10.77 -0.676381
10.78 -0.644812
10.79 -0.617831
10.8 -0.595583
10.81 -0.579492
10.82 -0.56925
10.83 -0.565533
10.84 -0.568448
10.85 -0.577475
10.86 -0.593163
10.87 -0.61416
10.88 -0.640512
10.89 -0.671121
10.9 -0.705225
10.91 -0.742073
10.92 -0.780529
10.93 -0.819843
10.94 -0.859028
10.95 -0.897294
10.96 -0.933842
10.97 -0.968215
10.98 -0.999512
10.99 -1.02778
11 -1.05236
11.01 -1.07335
11.02 -1.09072
11.03 -1.10434
11.04 -1.11483
11.05 -1.12203
11.06 -1.12676
11.07 -1.12932
11.08 -1.1303
11.09 -1.1303
11.1 -1.12988
11.11 -1.1296
11.12 -1.13
11.13 -1.13144
11.14 -1.13416
11.15 -1.13831
11.16 -1.1436
11.17 -1.14975
11.18 -1.15595
11.19 -1.16124
11.2 -1.1642
11.21 -1.16356
11.22 -1.15669
11.23 -1.14248
11.24 -1.11775
11.25 -1.0808
11.26 -1.02958
11.27 -0.96079
11.28 -0.874764
11.29 -0.767204
11.3 -0.639837
11.31 -0.491053
11.32 -0.321262
11.33 -0.132913
11.34 0.0744239
11.35 0.295502
11.36 0.528497
11.37 0.768367
11.38 1.01079
11.39 1.25029
11.4 1.48237
11.41 1.69994
11.42 1.89953
11.43 2.07529
11.44 2.22246
11.45 2.33975
11.46 2.41971
11.47 2.46584
11.48 2.47323
11.49 2.44459
11.5 2.3813
11.51 2.28356
11.52 2.15822
11.53 2.00531
11.54 1.83278
11.55 1.64412
11.56 1.44489
11.57 1.24045
11.58 1.03569
11.59 0.835014
11.6 0.642964
11.61 0.462485
11.62 0.295898
11.63 0.146138
11.64 0.0121617
11.65 -0.103358
11.66 -0.203222
11.67 -0.287525
11.68 -0.35804
11.69 -0.417529
11.7 -0.466964
11.71 -0.50995
11.72 -0.54795
11.73 -0.58338
11.74 -0.617833
11.75 -0.65272
11.76 -0.688794
11.77 -0.726696
11.78 -0.766134
11.79 -0.806711
11.8 -0.84743
11.81 -0.887157
11.82 -0.924009
11.83 -0.956762
11.84 -0.983097
11.85 -1.00153
11.86 -1.01054
11.87 -1.00774
11.88 -0.993284
11.89 -0.964232
11.9 -0.921675
11.91 -0.864448
11.92 -0.792598
11.93 -0.707567
11.94 -0.608435
11.95 -0.49836
11.96 -0.3776
11.97 -0.248767
11.98 -0.113876
11.99 0.0248723
12 0.164747
12.01 0.303035
12.02 0.437252
12.03 0.564611
12.04 0.68233
12.05 0.78896
12.06 0.880456
12.07 0.957195
12.08 1.01589
12.09 1.05652
12.1 1.07863
12.11 1.08074
12.12 1.06548
12.13 1.03106
12.14 0.981112
12.15 0.916328
12.16 0.838952
12.17 0.75202
12.18 0.65712
12.19 0.557949
12.2 0.456706
12.21 0.356197
12.22 0.258573
12.23 0.166306
12.24 0.0802758
12.25 0.00276537
12.26 -0.0665444
12.27 -0.126937
12.28 -0.178668
12.29 -0.222978
12.3 -0.26001
12.31 -0.292089
12.32 -0.32017
12.33 -0.346168
12.34 -0.371533
12.35 -0.397782
12.36 -0.425856
12.37 -0.456914
12.38 -0.490983
12.39 -0.528187
12.4 -0.567967
12.41 -0.609276
