# xPDFsuite Configuration #
[PDF]
wavelength = 0.1432
dataformat = twotheta
inputfile = 1_1Pd_CeO2_cycle-00428.chi
backgroundfile = background-00000.chi
mode = xray
bgscale = 1.007
composition = CeO2
outputtype = gr
qmaxinst = 28.8974762299
qmin = 0.5
qmax = 27.9
rmax = 50.0
rmin = 0.0
rstep = 0.01
rpoly = 1.8657

[Misc]
inputdir = G:/SankarDec16/1Pd/Chi
savedir = D:/DATA/APS_CeO2/1Pd
backgroundfilefull = G:/SankarDec16/Background/background-00000.chi

#### start data
#S 1
#L r($\AA$)  G($\AA^{-2}$)
0 0
0.01 -0.00640813
0.02 -0.0123336
0.03 -0.0172795
0.04 -0.0208714
0.05 -0.022901
0.06 -0.0230333
0.07 -0.0214912
0.08 -0.018167
0.09 -0.013486
0.1 -0.00774259
0.11 -0.00138752
0.12 0.00508754
0.13 0.0111311
0.14 0.0163522
0.15 0.020272
0.16 0.0226102
0.17 0.0232544
0.18 0.0219759
0.19 0.0191023
0.2 0.0146459
0.21 0.00910291
0.22 0.00283959
0.23 -0.00363803
0.24 -0.00986687
0.25 -0.0152528
0.26 -0.0195145
0.27 -0.0222148
0.28 -0.0231801
0.29 -0.0223997
0.3 -0.0197623
0.31 -0.0156848
0.32 -0.0102994
0.33 -0.00414941
0.34 0.00234403
0.35 0.00864313
0.36 0.0143356
0.37 0.0188127
0.38 0.0219165
0.39 0.023272
0.4 0.022821
0.41 0.0206555
0.42 0.0167869
0.43 0.0117021
0.44 0.00564699
0.45 -0.000812849
0.46 -0.00722187
0.47 -0.0130355
0.48 -0.0179122
0.49 -0.0212576
0.5 -0.0230447
0.51 -0.022979
0.52 -0.0211211
0.53 -0.0176612
0.54 -0.0127341
0.55 -0.00687372
0.56 -0.000428215
0.57 0.00604104
0.58 0.0120658
0.59 0.0171202
0.6 0.0209501
0.61 0.023004
0.62 0.0233876
0.63 0.0219014
0.64 0.0187222
0.65 0.0141305
0.66 0.00837815
0.67 0.00202124
0.68 -0.00450586
0.69 -0.0106725
0.7 -0.0160199
0.71 -0.020066
0.72 -0.0226563
0.73 -0.0233082
0.74 -0.0222555
0.75 -0.0194032
0.76 -0.0150359
0.77 -0.00951046
0.78 -0.00318368
0.79 0.00339338
0.8 0.00972233
0.81 0.0153289
0.82 0.0197876
0.83 0.0226838
0.84 0.023971
0.85 0.0232607
0.86 0.0209023
0.87 0.0169101
0.88 0.0116615
0.89 0.00556995
0.9 -0.000923446
0.91 -0.00730412
0.92 -0.0130414
0.93 -0.0177473
0.94 -0.0210598
0.95 -0.0226649
0.96 -0.0226326
0.97 -0.02071
0.98 -0.0173474
0.99 -0.0126867
1 -0.00718922
1.01 -0.0013088
1.02 0.00443205
1.03 0.00959369
1.04 0.013626
1.05 0.016265
1.06 0.0172393
1.07 0.0163697
1.08 0.0138709
1.09 0.00966926
1.1 0.00433604
1.11 -0.00181655
1.12 -0.00821176
1.13 -0.0143303
1.14 -0.0195064
1.15 -0.023374
1.16 -0.0252864
1.17 -0.0250946
1.18 -0.0225719
1.19 -0.0176197
1.2 -0.0106134
1.21 -0.00155416
1.22 0.00880009
1.23 0.0200174
1.24 0.0313753
1.25 0.0422418
1.26 0.0517945
1.27 0.0596157
1.28 0.0649001
1.29 0.0674651
1.3 0.0669972
1.31 0.0632978
1.32 0.0567685
1.33 0.0472111
1.34 0.0354786
1.35 0.0218706
1.36 0.00710102
1.37 -0.00818067
1.38 -0.0232664
1.39 -0.0375807
1.4 -0.0504053
1.41 -0.0613803
1.42 -0.0701086
1.43 -0.0762441
1.44 -0.0799484
1.45 -0.0808169
1.46 -0.0794012
1.47 -0.0756916
1.48 -0.070068
1.49 -0.0629104
1.5 -0.0544548
1.51 -0.0451927
1.52 -0.0353539
1.53 -0.025283
1.54 -0.0151972
1.55 -0.00530625
1.56 0.00427889
1.57 0.0133775
1.58 0.0219761
1.59 0.0299496
1.6 0.0372304
1.61 0.0437609
1.62 0.0493306
1.63 0.0539332
1.64 0.0572656
1.65 0.0592646
1.66 0.0597293
1.67 0.0584279
1.68 0.055425
1.69 0.0503406
1.7 0.0434803
1.71 0.0347453
1.72 0.0243692
1.73 0.0126521
1.74 -0.000161991
1.75 -0.0135459
1.76 -0.02709
1.77 -0.0402823
1.78 -0.0526672
1.79 -0.0637371
1.8 -0.0733035
1.81 -0.0808104
1.82 -0.0864342
1.83 -0.0899966
1.84 -0.0917149
1.85 -0.0919202
1.86 -0.0909029
1.87 -0.0892794
1.88 -0.0875422
1.89 -0.0862739
1.9 -0.0859787
1.91 -0.0871852
1.92 -0.090035
1.93 -0.0950129
1.94 -0.101799
1.95 -0.110381
1.96 -0.120302
1.97 -0.131009
1.98 -0.141802
1.99 -0.151926
2 -0.160392
2.01 -0.166475
2.02 -0.16937
2.03 -0.168197
2.04 -0.162894
2.05 -0.152353
2.06 -0.137225
2.07 -0.117153
2.08 -0.0926002
2.09 -0.0641957
2.1 -0.0322468
2.11 0.00209366
2.12 0.0383207
2.13 0.0754647
2.14 0.112881
2.15 0.149922
2.16 0.186228
2.17 0.221368
2.18 0.255437
2.19 0.288425
2.2 0.320618
2.21 0.35236
2.22 0.384042
2.23 0.41602
2.24 0.448639
2.25 0.48199
2.26 0.516035
2.27 0.550471
2.28 0.58476
2.29 0.617932
2.3 0.649092
2.31 0.6768
2.32 0.699642
2.33 0.716498
2.34 0.725106
2.35 0.725342
2.36 0.714973
2.37 0.694222
2.38 0.662556
2.39 0.619734
2.4 0.56746
2.41 0.505395
2.42 0.436531
2.43 0.362127
2.44 0.284733
2.45 0.20667
2.46 0.13065
2.47 0.0586232
2.48 -0.00661216
2.49 -0.0638196
2.5 -0.111552
2.51 -0.148546
2.52 -0.175679
2.53 -0.19165
2.54 -0.198984
2.55 -0.198216
2.56 -0.191464
2.57 -0.180845
2.58 -0.168402
2.59 -0.1564
2.6 -0.147006
2.61 -0.141752
2.62 -0.14196
2.63 -0.14876
2.64 -0.161747
2.65 -0.181707
2.66 -0.206872
2.67 -0.236563
2.68 -0.269012
2.69 -0.302499
2.7 -0.33505
2.71 -0.365119
2.72 -0.390704
2.73 -0.410911
2.74 -0.424834
2.75 -0.431839
2.76 -0.432781
2.77 -0.42739
2.78 -0.417713
2.79 -0.404816
2.8 -0.390666
2.81 -0.377021
2.82 -0.366036
2.83 -0.358931
2.84 -0.357668
2.85 -0.362698
2.86 -0.374572
2.87 -0.393438
2.88 -0.41799
2.89 -0.447856
2.9 -0.480662
2.91 -0.514794
2.92 -0.547949
2.93 -0.57823
2.94 -0.603052
2.95 -0.621534
2.96 -0.631487
2.97 -0.63291
2.98 -0.625499
2.99 -0.60946
3 -0.586668
3.01 -0.557857
3.02 -0.525964
3.03 -0.493015
3.04 -0.461706
3.05 -0.434167
3.06 -0.413299
3.07 -0.3999
3.08 -0.39628
3.09 -0.402201
3.1 -0.417784
3.11 -0.442561
3.12 -0.47432
3.13 -0.512016
3.14 -0.55245
3.15 -0.593349
3.16 -0.631892
3.17 -0.665958
3.18 -0.692671
3.19 -0.711531
3.2 -0.720527
3.21 -0.720356
3.22 -0.711386
3.23 -0.694739
3.24 -0.672973
3.25 -0.648061
3.26 -0.623243
3.27 -0.601392
3.28 -0.585455
3.29 -0.577419
3.3 -0.580366
3.31 -0.594
3.32 -0.620159
3.33 -0.65722
3.34 -0.704098
3.35 -0.758746
3.36 -0.817783
3.37 -0.878115
3.38 -0.935983
3.39 -0.98766
3.4 -1.02977
3.41 -1.06025
3.42 -1.07559
3.43 -1.07684
3.44 -1.06221
3.45 -1.0343
3.46 -0.99493
3.47 -0.9471
3.48 -0.895105
3.49 -0.843064
3.5 -0.795239
3.51 -0.755933
3.52 -0.728543
3.53 -0.714671
3.54 -0.717051
3.55 -0.733105
3.56 -0.76242
3.57 -0.799892
3.58 -0.840583
3.59 -0.877045
3.6 -0.902611
3.61 -0.90557
3.62 -0.880397
3.63 -0.816124
3.64 -0.705357
3.65 -0.54444
3.66 -0.322524
3.67 -0.045502
3.68 0.293702
3.69 0.686601
3.7 1.12881
3.71 1.61301
3.72 2.12511
3.73 2.65508
3.74 3.18601
3.75 3.70298
3.76 4.18945
3.77 4.63302
3.78 5.01272
3.79 5.32534
3.8 5.55132
3.81 5.6905
3.82 5.73721
3.83 5.68637
3.84 5.55012
3.85 5.32012
3.86 5.01799
3.87 4.64759
3.88 4.22399
3.89 3.76229
3.9 3.27466
3.91 2.77822
3.92 2.28643
3.93 1.81209
3.94 1.36596
3.95 0.95937
3.96 0.594332
3.97 0.282908
3.98 0.0193869
3.99 -0.192194
4 -0.355517
4.01 -0.47655
4.02 -0.556587
4.03 -0.606992
4.04 -0.630949
4.05 -0.637791
4.06 -0.633312
4.07 -0.623527
4.08 -0.613433
4.09 -0.60736
4.1 -0.607341
4.11 -0.615306
4.12 -0.631397
4.13 -0.654587
4.14 -0.683947
4.15 -0.716641
4.16 -0.750466
4.17 -0.782573
4.18 -0.810507
4.19 -0.831511
4.2 -0.844593
4.21 -0.846835
4.22 -0.838973
4.23 -0.819867
4.24 -0.790071
4.25 -0.750776
4.26 -0.702135
4.27 -0.646649
4.28 -0.584935
4.29 -0.519028
4.3 -0.450125
4.31 -0.379409
4.32 -0.307932
4.33 -0.236375
4.34 -0.16522
4.35 -0.094761
4.36 -0.0251197
4.37 0.0437006
4.38 0.11155
4.39 0.178441
4.4 0.243972
4.41 0.30779
4.42 0.36924
4.43 0.427233
4.44 0.48116
4.45 0.528932
4.46 0.570106
4.47 0.602791
4.48 0.625815
4.49 0.638662
4.5 0.6392
4.51 0.628583
4.52 0.605197
4.53 0.570398
4.54 0.524638
4.55 0.468624
4.56 0.404708
4.57 0.333497
4.58 0.2579
4.59 0.179462
4.6 0.100367
4.61 0.0223425
4.62 -0.0525876
4.63 -0.123519
4.64 -0.188805
4.65 -0.248181
4.66 -0.301221
4.67 -0.347638
4.68 -0.388403
4.69 -0.423202
4.7 -0.453618
4.71 -0.480094
4.72 -0.503658
4.73 -0.525216
4.74 -0.545365
4.75 -0.564835
4.76 -0.583945
4.77 -0.602925
4.78 -0.621776
4.79 -0.640312
4.8 -0.658306
4.81 -0.675244
4.82 -0.690877
4.83 -0.704723
4.84 -0.716487
4.85 -0.726099
4.86 -0.733239
4.87 -0.738328
4.88 -0.741351
4.89 -0.74287
4.9 -0.743308
4.91 -0.743216
4.92 -0.743151
4.93 -0.743716
4.94 -0.745274
4.95 -0.748241
4.96 -0.75281
4.97 -0.758948
4.98 -0.766729
4.99 -0.775712
5 -0.785693
5.01 -0.796157
5.02 -0.806692
5.03 -0.816826
5.04 -0.826268
5.05 -0.83459
5.06 -0.841799
5.07 -0.847777
5.08 -0.852654
5.09 -0.856669
5.1 -0.860016
5.11 -0.86304
5.12 -0.865924
5.13 -0.868783
5.14 -0.87154
5.15 -0.873842
5.16 -0.875208
5.17 -0.874478
5.18 -0.87077
5.19 -0.862415
5.2 -0.847718
5.21 -0.825386
5.22 -0.792454
5.23 -0.748719
5.24 -0.691201
5.25 -0.619841
5.26 -0.53381
5.27 -0.432315
5.28 -0.317503
5.29 -0.188606
5.3 -0.0495898
5.31 0.0977821
5.32 0.249776
5.33 0.402692
5.34 0.55187
5.35 0.693682
5.36 0.822601
5.37 0.935361
5.38 1.02822
5.39 1.09672
5.4 1.14127
5.41 1.15616
5.42 1.14498
5.43 1.10591
5.44 1.04101
5.45 0.953688
5.46 0.844823
5.47 0.720843
5.48 0.584166
5.49 0.440445
5.5 0.293791
5.51 0.148877
5.52 0.00909106
5.53 -0.120818
5.54 -0.239471
5.55 -0.343946
5.56 -0.433161
5.57 -0.507495
5.58 -0.56547
5.59 -0.610145
5.6 -0.641273
5.61 -0.661805
5.62 -0.673468
5.63 -0.6781
5.64 -0.67819
5.65 -0.674894
5.66 -0.670003
5.67 -0.66426
5.68 -0.658167
5.69 -0.651744
5.7 -0.644483
5.71 -0.635785
5.72 -0.624434
5.73 -0.609497
5.74 -0.589906
5.75 -0.564378
5.76 -0.532917
5.77 -0.494148
5.78 -0.449168
5.79 -0.397984
5.8 -0.341786
5.81 -0.282133
5.82 -0.220656
5.83 -0.159556
5.84 -0.101201
5.85 -0.0477136
5.86 -0.00116334
5.87 0.035978
5.88 0.0633014
5.89 0.0779052
5.9 0.0809366
5.91 0.0713539
5.92 0.0498662
5.93 0.0179742
5.94 -0.0239947
5.95 -0.0730419
5.96 -0.128039
5.97 -0.186363
5.98 -0.246141
5.99 -0.305321
6 -0.362473
6.01 -0.415763
6.02 -0.464807
6.03 -0.508768
6.04 -0.547645
6.05 -0.58199
6.06 -0.61198
6.07 -0.639044
6.08 -0.66389
6.09 -0.687825
6.1 -0.711804
6.11 -0.73681
6.12 -0.763324
6.13 -0.792004
6.14 -0.822591
6.15 -0.854961
6.16 -0.888455
6.17 -0.922259
6.18 -0.955259
6.19 -0.986523
6.2 -1.01469
6.21 -1.03897
6.22 -1.05858
6.23 -1.07269
6.24 -1.08168
6.25 -1.08483
6.26 -1.08338
6.27 -1.07763
6.28 -1.06865
6.29 -1.05754
6.3 -1.04517
6.31 -1.03254
6.32 -1.0202
6.33 -1.00828
6.34 -0.996478
6.35 -0.983719
6.36 -0.968673
6.37 -0.948433
6.38 -0.920866
6.39 -0.882098
6.4 -0.828268
6.41 -0.756644
6.42 -0.660572
6.43 -0.539877
6.44 -0.388058
6.45 -0.20499
6.46 0.011093
6.47 0.262305
6.48 0.544063
6.49 0.858829
6.5 1.1984
6.51 1.55986
6.52 1.93603
6.53 2.31936
6.54 2.70124
6.55 3.07342
6.56 3.42509
6.57 3.74836
6.58 4.0348
6.59 4.27366
6.6 4.4639
6.61 4.59131
6.62 4.66059
6.63 4.66496
6.64 4.60507
6.65 4.48589
6.66 4.30391
6.67 4.07241
6.68 3.7917
6.69 3.47358
6.7 3.12561
6.71 2.75638
6.72 2.37657
6.73 1.99477
6.74 1.61991
6.75 1.26026
6.76 0.923107
6.77 0.612402
6.78 0.336481
6.79 0.0934893
6.8 -0.110655
6.81 -0.278661
6.82 -0.411064
6.83 -0.508261
6.84 -0.576685
6.85 -0.615655
6.86 -0.633188
6.87 -0.631681
6.88 -0.616002
6.89 -0.590631
6.9 -0.558616
6.91 -0.523938
6.92 -0.489049
6.93 -0.456149
6.94 -0.426652
6.95 -0.401784
6.96 -0.381437
6.97 -0.366371
6.98 -0.355572
6.99 -0.348889
7 -0.34561
7.01 -0.34499
7.02 -0.346758
7.03 -0.350223
7.04 -0.355396
7.05 -0.362143
7.06 -0.370655
7.07 -0.381411
7.08 -0.394585
7.09 -0.411157
7.1 -0.431172
7.11 -0.455323
7.12 -0.483869
7.13 -0.516652
7.14 -0.554063
7.15 -0.59512
7.16 -0.639649
7.17 -0.686511
7.18 -0.734769
7.19 -0.78321
7.2 -0.830708
7.21 -0.87574
7.22 -0.917504
7.23 -0.954784
7.24 -0.986794
7.25 -1.01336
7.26 -1.03351
7.27 -1.04817
7.28 -1.05696
7.29 -1.0609
7.3 -1.06066
7.31 -1.05697
7.32 -1.05101
7.33 -1.04337
7.34 -1.03501
7.35 -1.02636
7.36 -1.01768
7.37 -1.00891
7.38 -0.999559
7.39 -0.988963
7.4 -0.975823
7.41 -0.958892
7.42 -0.936659
7.43 -0.906937
7.44 -0.868989
7.45 -0.819654
7.46 -0.75906
7.47 -0.685278
7.48 -0.597757
7.49 -0.497146
7.5 -0.382239
7.51 -0.255923
7.52 -0.118373
7.53 0.0273474
7.54 0.178852
7.55 0.333071
7.56 0.486686
7.57 0.635639
7.58 0.776991
7.59 0.906783
7.6 1.02165
7.61 1.11985
7.62 1.19654
7.63 1.2529
7.64 1.2851
7.65 1.29441
7.66 1.28079
7.67 1.24389
7.68 1.18756
7.69 1.11087
7.7 1.01903
7.71 0.91359
7.72 0.798081
7.73 0.676023
7.74 0.550325
7.75 0.424522
7.76 0.301724
7.77 0.184585
7.78 0.0754044
7.79 -0.0230915
7.8 -0.110597
7.81 -0.18399
7.82 -0.244402
7.83 -0.290526
7.84 -0.322618
7.85 -0.341924
7.86 -0.347722
7.87 -0.342901
7.88 -0.327498
7.89 -0.303898
7.9 -0.273618
7.91 -0.238277
7.92 -0.200096
7.93 -0.16069
7.94 -0.122037
7.95 -0.0858779
7.96 -0.0539396
7.97 -0.0272937
7.98 -0.00806867
7.99 0.00376554
8 0.00646325
8.01 0.000171626
8.02 -0.0153607
8.03 -0.0405553
8.04 -0.0740054
8.05 -0.116301
8.06 -0.165344
8.07 -0.220541
8.08 -0.2804
8.09 -0.343349
8.1 -0.408085
8.11 -0.472961
8.12 -0.536551
8.13 -0.597638
8.14 -0.655217
8.15 -0.708167
8.16 -0.756486
8.17 -0.799106
8.18 -0.836765
8.19 -0.869311
8.2 -0.897255
8.21 -0.921381
8.22 -0.941901
8.23 -0.959877
8.24 -0.975479
8.25 -0.98917
8.26 -1.00094
8.27 -1.01028
8.28 -1.01681
8.29 -1.01879
8.3 -1.01526
8.31 -1.00395
8.32 -0.982531
8.33 -0.949428
8.34 -0.90026
8.35 -0.834894
8.36 -0.748954
8.37 -0.641948
8.38 -0.512469
8.39 -0.358395
8.4 -0.182448
8.41 0.0179201
8.42 0.237692
8.43 0.47568
8.44 0.727782
8.45 0.989127
8.46 1.25502
8.47 1.5194
8.48 1.77578
8.49 2.01826
8.5 2.24102
8.51 2.43641
8.52 2.60263
8.53 2.72988
8.54 2.81965
8.55 2.86669
8.56 2.86992
8.57 2.83192
8.58 2.74861
8.59 2.62847
8.6 2.47043
8.61 2.28181
8.62 2.06734
8.63 1.83197
8.64 1.58356
8.65 1.32703
8.66 1.06959
8.67 0.816808
8.68 0.574385
8.69 0.345844
8.7 0.137325
8.71 -0.051217
8.72 -0.215323
8.73 -0.355771
8.74 -0.472466
8.75 -0.564951
8.76 -0.637333
8.77 -0.688821
8.78 -0.724787
8.79 -0.746922
8.8 -0.758662
8.81 -0.763402
8.82 -0.763521
8.83 -0.762131
8.84 -0.761328
8.85 -0.762925
8.86 -0.768133
8.87 -0.778065
8.88 -0.792501
8.89 -0.812053
8.9 -0.835582
8.91 -0.862637
8.92 -0.892136
8.93 -0.922941
8.94 -0.953939
8.95 -0.984077
8.96 -1.01226
8.97 -1.03781
8.98 -1.06017
8.99 -1.07878
9 -1.09393
9.01 -1.10518
9.02 -1.11334
9.03 -1.11857
9.04 -1.12148
9.05 -1.12272
9.06 -1.12267
9.07 -1.12195
9.08 -1.12083
9.09 -1.11952
9.1 -1.11801
9.11 -1.11606
9.12 -1.11335
9.13 -1.10911
9.14 -1.1028
9.15 -1.09347
9.16 -1.08017
9.17 -1.06235
9.18 -1.0385
9.19 -1.0088
9.2 -0.972015
9.21 -0.928386
9.22 -0.877919
9.23 -0.820569
9.24 -0.757681
9.25 -0.689426
9.26 -0.617733
9.27 -0.543777
9.28 -0.46938
9.29 -0.396178
9.3 -0.326427
9.31 -0.261366
9.32 -0.203313
9.33 -0.153344
9.34 -0.11262
9.35 -0.082723
9.36 -0.0629442
9.37 -0.0550723
9.38 -0.0573169
9.39 -0.069781
9.4 -0.0913074
9.41 -0.120133
9.42 -0.15544
9.43 -0.194671
9.44 -0.236441
9.45 -0.278671
9.46 -0.319756
9.47 -0.357887
9.48 -0.392203
9.49 -0.420967
9.5 -0.44423
9.51 -0.461309
9.52 -0.472307
9.53 -0.477977
9.54 -0.478414
9.55 -0.475262
9.56 -0.469249
9.57 -0.461876
9.58 -0.454328
9.59 -0.447963
9.6 -0.443652
9.61 -0.442749
9.62 -0.445511
9.63 -0.452615
9.64 -0.464217
9.65 -0.479943
9.66 -0.499969
9.67 -0.523193
9.68 -0.549321
9.69 -0.577358
9.7 -0.606577
9.71 -0.636207
9.72 -0.665588
9.73 -0.694058
9.74 -0.721312
9.75 -0.746993
9.76 -0.770933
9.77 -0.793178
9.78 -0.81345
9.79 -0.83195
9.8 -0.848268
9.81 -0.862164
9.82 -0.873055
9.83 -0.879697
9.84 -0.881381
9.85 -0.875429
9.86 -0.860731
9.87 -0.834334
9.88 -0.79337
9.89 -0.736203
9.9 -0.657302
9.91 -0.556999
9.92 -0.430013
9.93 -0.275925
9.94 -0.093305
9.95 0.120507
9.96 0.361913
9.97 0.63406
9.98 0.930837
9.99 1.2508
10 1.58913
10.01 1.93985
10.02 2.29757
10.03 2.65477
10.04 3.00387
10.05 3.33752
10.06 3.64876
10.07 3.92813
10.08 4.17319
10.09 4.37208
10.1 4.5259
10.11 4.62818
10.12 4.67681
10.13 4.6747
10.14 4.61585
10.15 4.51031
10.16 4.35593
10.17 4.16094
10.18 3.93063
10.19 3.66993
10.2 3.38854
10.21 3.09113
10.22 2.78685
10.23 2.48176
10.24 2.1827
10.25 1.89428
10.26 1.62333
10.27 1.37092
10.28 1.14205
10.29 0.9368
10.3 0.755683
10.31 0.59982
10.32 0.465272
10.33 0.353304
10.34 0.258618
10.35 0.179704
10.36 0.113259
10.37 0.055732
10.38 0.00501472
10.39 -0.0423852
10.4 -0.0884245
10.41 -0.135175
10.42 -0.183964
10.43 -0.235992
10.44 -0.291342
10.45 -0.350607
10.46 -0.412968
10.47 -0.478019
10.48 -0.5448
10.49 -0.612256
10.5 -0.679183
10.51 -0.744549
10.52 -0.807016
10.53 -0.865695
10.54 -0.919744
10.55 -0.968009
10.56 -1.01059
10.57 -1.0461
10.58 -1.07513
10.59 -1.09712
10.6 -1.11207
10.61 -1.12055
10.62 -1.12189
10.63 -1.11738
10.64 -1.10665
10.65 -1.09054
10.66 -1.06951
10.67 -1.04381
10.68 -1.01449
10.69 -0.981665
10.7 -0.94644
10.71 -0.909343
10.72 -0.871195
10.73 -0.832775
10.74 -0.794965
10.75 -0.758455
10.76 -0.724219
10.77 -0.692906
10.78 -0.665166
10.79 -0.641937
10.8 -0.623191
10.81 -0.610097
10.82 -0.602231
10.83 -0.600081
10.84 -0.603631
10.85 -0.612361
10.86 -0.626664
10.87 -0.64536
10.88 -0.668455
10.89 -0.695024
10.9 -0.724434
10.91 -0.756073
10.92 -0.789026
10.93 -0.822699
10.94 -0.856309
10.95 -0.889237
10.96 -0.920861
10.97 -0.950826
10.98 -0.97844
10.99 -1.00374
11 -1.02624
11.01 -1.04599
11.02 -1.06301
11.03 -1.07721
11.04 -1.08904
11.05 -1.0984
11.06 -1.10591
11.07 -1.11178
11.08 -1.11642
11.09 -1.12025
11.1 -1.12362
11.11 -1.1269
11.12 -1.13036
11.13 -1.13419
11.14 -1.13843
11.15 -1.14301
11.16 -1.14764
11.17 -1.1518
11.18 -1.15486
11.19 -1.15586
11.2 -1.15356
11.21 -1.14698
11.22 -1.13376
11.23 -1.11322
11.24 -1.08268
11.25 -1.04088
11.26 -0.986246
11.27 -0.916107
11.28 -0.830951
11.29 -0.727218
11.3 -0.606517
11.31 -0.467533
11.32 -0.310635
11.33 -0.137887
11.34 0.0511745
11.35 0.252177
11.36 0.463754
11.37 0.681764
11.38 0.902685
11.39 1.12208
11.4 1.33612
11.41 1.53899
11.42 1.72759
11.43 1.8969
11.44 2.04265
11.45 2.16343
11.46 2.25253
11.47 2.31244
11.48 2.33838
11.49 2.3321
11.5 2.2942
11.51 2.22403
11.52 2.12724
11.53 2.00281
11.54 1.85764
11.55 1.69418
11.56 1.51706
11.57 1.3312
11.58 1.14042
11.59 0.949483
11.6 0.762365
11.61 0.58248
11.62 0.412513
11.63 0.255741
11.64 0.112164
11.65 -0.0150803
11.66 -0.12769
11.67 -0.225026
11.68 -0.30801
11.69 -0.378822
11.7 -0.437629
11.71 -0.487925
11.72 -0.530689
11.73 -0.568436
11.74 -0.602871
11.75 -0.635533
11.76 -0.667777
11.77 -0.700512
11.78 -0.734138
11.79 -0.768733
11.8 -0.803866
11.81 -0.838788
11.82 -0.872163
11.83 -0.902843
11.84 -0.928846
11.85 -0.948635
11.86 -0.960614
11.87 -0.962346
11.88 -0.953607
11.89 -0.931335
11.9 -0.896194
11.91 -0.846784
11.92 -0.782866
11.93 -0.705678
11.94 -0.614109
11.95 -0.511269
11.96 -0.397352
11.97 -0.275027
11.98 -0.146377
11.99 -0.013698
12 0.12017
12.01 0.252433
12.02 0.380566
12.03 0.501792
12.04 0.613422
12.05 0.714142
12.06 0.800193
12.07 0.872164
12.08 0.927191
12.09 0.965557
12.1 0.987116
12.11 0.990874
12.12 0.979417
12.13 0.951466
12.14 0.910371
12.15 0.856872
12.16 0.792961
12.17 0.721184
12.18 0.642799
12.19 0.560733
12.2 0.476569
12.21 0.392368
12.22 0.309639
12.23 0.230022
12.24 0.154143
12.25 0.0834215
12.26 0.0176758
12.27 -0.0426612
12.28 -0.0977404
12.29 -0.148294
12.3 -0.194346
12.31 -0.23723
12.32 -0.277374
12.33 -0.315781
12.34 -0.353146
12.35 -0.390086
12.36 -0.42706
12.37 -0.464336
12.38 -0.501873
12.39 -0.539444
12.4 -0.576504
12.41 -0.612434
