# xPDFsuite Configuration #
[PDF]
wavelength = 0.1432
dataformat = twotheta
inputfile = 1_1Pd_CeO2_cycle-00499.chi
backgroundfile = background-00000.chi
mode = xray
bgscale = 1.007
composition = CeO2
outputtype = gr
qmaxinst = 28.8974762299
qmin = 0.5
qmax = 27.9
rmax = 50.0
rmin = 0.0
rstep = 0.01
rpoly = 1.8657

[Misc]
inputdir = G:/SankarDec16/1Pd/Chi
savedir = D:/DATA/APS_CeO2/1Pd
backgroundfilefull = G:/SankarDec16/Background/background-00000.chi

#### start data
#S 1
#L r($\AA$)  G($\AA^{-2}$)
0 0
0.01 -0.00287653
0.02 -0.00553613
0.03 -0.00775545
0.04 -0.00936629
0.05 -0.0102751
0.06 -0.0103316
0.07 -0.00963614
0.08 -0.00814054
0.09 -0.00603624
0.1 -0.00345582
0.11 -0.000602021
0.12 0.00230424
0.13 0.00501495
0.14 0.00735481
0.15 0.00910897
0.16 0.010152
0.17 0.0104339
0.18 0.00985283
0.19 0.00855652
0.2 0.00655145
0.21 0.00406087
0.22 0.00124987
0.23 -0.00165391
0.24 -0.00444286
0.25 -0.00684994
0.26 -0.00874996
0.27 -0.00994714
0.28 -0.0103648
0.29 -0.00999919
0.3 -0.00880183
0.31 -0.00696076
0.32 -0.00453675
0.33 -0.00177421
0.34 0.00113737
0.35 0.00395639
0.36 0.00649867
0.37 0.0084912
0.38 0.00986493
0.39 0.0104528
0.4 0.0102306
0.41 0.00924117
0.42 0.00749177
0.43 0.0052017
0.44 0.00248307
0.45 -0.000410344
0.46 -0.00327394
0.47 -0.0058638
0.48 -0.00802828
0.49 -0.00950177
0.5 -0.0102747
0.51 -0.0102172
0.52 -0.00935858
0.53 -0.00778632
0.54 -0.00556334
0.55 -0.0029295
0.56 -4.28364e-05
0.57 0.00284574
0.58 0.00552661
0.59 0.00776527
0.6 0.0094502
0.61 0.0103361
0.62 0.0104737
0.63 0.00977616
0.64 0.00832568
0.65 0.00624982
0.66 0.00366435
0.67 0.00081807
0.68 -0.00209268
0.69 -0.00483186
0.7 -0.00719497
0.71 -0.00896796
0.72 -0.0100848
0.73 -0.0103318
0.74 -0.00981685
0.75 -0.00850019
0.76 -0.00651153
0.77 -0.00401175
0.78 -0.00116212
0.79 0.00179209
0.8 0.00462805
0.81 0.00713631
0.82 0.00912875
0.83 0.0104231
0.84 0.0110011
0.85 0.0106924
0.86 0.00965381
0.87 0.00789278
0.88 0.00557651
0.89 0.00288667
0.9 1.50277e-05
0.91 -0.00281483
0.92 -0.0053765
0.93 -0.00750564
0.94 -0.00905211
0.95 -0.00989009
0.96 -0.0100555
0.97 -0.00945717
0.98 -0.00829134
0.99 -0.00663316
1 -0.00468566
1.01 -0.00264353
1.02 -0.000735469
1.03 0.000867718
1.04 0.00193941
1.05 0.00239554
1.06 0.00214938
1.07 0.00116814
1.08 -0.000420758
1.09 -0.0025741
1.1 -0.00501835
1.11 -0.00754602
1.12 -0.00986156
1.13 -0.011711
1.14 -0.0127281
1.15 -0.012785
1.16 -0.0115359
1.17 -0.0089649
1.18 -0.00498602
1.19 0.00040711
1.2 0.00695664
1.21 0.014608
1.22 0.022895
1.23 0.0315151
1.24 0.0400066
1.25 0.0479658
1.26 0.054825
1.27 0.0603249
1.28 0.0638723
1.29 0.065325
1.3 0.0644098
1.31 0.0609019
1.32 0.0550413
1.33 0.0465215
1.34 0.0359354
1.35 0.0233667
1.36 0.00928297
1.37 -0.00584793
1.38 -0.0215729
1.39 -0.037325
1.4 -0.0525459
1.41 -0.066755
1.42 -0.0794725
1.43 -0.0901727
1.44 -0.0987354
1.45 -0.104462
1.46 -0.107582
1.47 -0.107727
1.48 -0.104966
1.49 -0.0994734
1.5 -0.0911314
1.51 -0.0805208
1.52 -0.0676462
1.53 -0.0530862
1.54 -0.0371823
1.55 -0.0203858
1.56 -0.00321367
1.57 0.0138292
1.58 0.0302711
1.59 0.0455744
1.6 0.0592774
1.61 0.0710582
1.62 0.0802932
1.63 0.0870284
1.64 0.0906867
1.65 0.0914173
1.66 0.0891146
1.67 0.0837536
1.68 0.0758035
1.69 0.0651424
1.7 0.0525475
1.71 0.038278
1.72 0.0229402
1.73 0.00708662
1.74 -0.00868849
1.75 -0.0238733
1.76 -0.0378427
1.77 -0.0502516
1.78 -0.0607323
1.79 -0.0689584
1.8 -0.0750657
1.81 -0.0787285
1.82 -0.0804815
1.83 -0.0804319
1.84 -0.0790698
1.85 -0.0768962
1.86 -0.0744412
1.87 -0.0722658
1.88 -0.0709774
1.89 -0.0709865
1.9 -0.0726854
1.91 -0.0764177
1.92 -0.0820729
1.93 -0.0899147
1.94 -0.099391
1.95 -0.110276
1.96 -0.121953
1.97 -0.133794
1.98 -0.14498
1.99 -0.154867
2 -0.162454
2.01 -0.167201
2.02 -0.168435
2.03 -0.165459
2.04 -0.158383
2.05 -0.146295
2.06 -0.129941
2.07 -0.109087
2.08 -0.0842292
2.09 -0.055971
2.1 -0.0246025
2.11 0.00887367
2.12 0.044052
2.13 0.0801306
2.14 0.116602
2.15 0.152962
2.16 0.188912
2.17 0.224129
2.18 0.258635
2.19 0.292387
2.2 0.32553
2.21 0.358241
2.22 0.390677
2.23 0.423012
2.24 0.455301
2.25 0.487492
2.26 0.51939
2.27 0.550564
2.28 0.580591
2.29 0.608434
2.3 0.633541
2.31 0.654675
2.32 0.670813
2.33 0.681211
2.34 0.684131
2.35 0.679756
2.36 0.666426
2.37 0.644565
2.38 0.613914
2.39 0.574451
2.4 0.527639
2.41 0.473325
2.42 0.413879
2.43 0.350307
2.44 0.284558
2.45 0.218373
2.46 0.153765
2.47 0.0921485
2.48 0.035562
2.49 -0.0151213
2.5 -0.0588652
2.51 -0.0947635
2.52 -0.123458
2.53 -0.143976
2.54 -0.158123
2.55 -0.166216
2.56 -0.169711
2.57 -0.170067
2.58 -0.168608
2.59 -0.166937
2.6 -0.166446
2.61 -0.168218
2.62 -0.173138
2.63 -0.181957
2.64 -0.194478
2.65 -0.211193
2.66 -0.231032
2.67 -0.253567
2.68 -0.277701
2.69 -0.30237
2.7 -0.32634
2.71 -0.348671
2.72 -0.368127
2.73 -0.384184
2.74 -0.396305
2.75 -0.404134
2.76 -0.408232
2.77 -0.408476
2.78 -0.406149
2.79 -0.401937
2.8 -0.39706
2.81 -0.392593
2.82 -0.389846
2.83 -0.389524
2.84 -0.392781
2.85 -0.399824
2.86 -0.410917
2.87 -0.426051
2.88 -0.444378
2.89 -0.465532
2.9 -0.488062
2.91 -0.510895
2.92 -0.532616
2.93 -0.552095
2.94 -0.56774
2.95 -0.579142
2.96 -0.585011
2.97 -0.585496
2.98 -0.58053
2.99 -0.570389
3 -0.55633
3.01 -0.538977
3.02 -0.520167
3.03 -0.501246
3.04 -0.483881
3.05 -0.469341
3.06 -0.459395
3.07 -0.454374
3.08 -0.455602
3.09 -0.462742
3.1 -0.475708
3.11 -0.494008
3.12 -0.516168
3.13 -0.541312
3.14 -0.567473
3.15 -0.593148
3.16 -0.616636
3.17 -0.636738
3.18 -0.65178
3.19 -0.661718
3.2 -0.665558
3.21 -0.664041
3.22 -0.657705
3.23 -0.647629
3.24 -0.635562
3.25 -0.62322
3.26 -0.612557
3.27 -0.605609
3.28 -0.604169
3.29 -0.609299
3.3 -0.622871
3.31 -0.644196
3.32 -0.674148
3.33 -0.711157
3.34 -0.754063
3.35 -0.800985
3.36 -0.849431
3.37 -0.89672
3.38 -0.940398
3.39 -0.977666
3.4 -1.00631
3.41 -1.02515
3.42 -1.03187
3.43 -1.02777
3.44 -1.01192
3.45 -0.986659
3.46 -0.953713
3.47 -0.915678
3.48 -0.875812
3.49 -0.837499
3.5 -0.803645
3.51 -0.777395
3.52 -0.760901
3.53 -0.754888
3.54 -0.760758
3.55 -0.775936
3.56 -0.799132
3.57 -0.825774
3.58 -0.851243
3.59 -0.868781
3.6 -0.873084
3.61 -0.853571
3.62 -0.806376
3.63 -0.722103
3.64 -0.594949
3.65 -0.422356
3.66 -0.195317
3.67 0.0803594
3.68 0.410411
3.69 0.787004
3.7 1.206
3.71 1.66072
3.72 2.1388
3.73 2.63122
3.74 3.12335
3.75 3.60197
3.76 4.05264
3.77 4.46448
3.78 4.81887
3.79 5.11299
3.8 5.32921
3.81 5.46718
3.82 5.52148
3.83 5.48699
3.84 5.3742
3.85 5.17465
3.86 4.90748
3.87 4.57526
3.88 4.19103
3.89 3.76818
3.9 3.31682
3.91 2.85295
3.92 2.38819
3.93 1.93484
3.94 1.50299
3.95 1.10347
3.96 0.739197
3.97 0.421785
3.98 0.147311
3.99 -0.0795978
4 -0.26122
4.01 -0.402216
4.02 -0.502625
4.03 -0.572648
4.04 -0.614294
4.05 -0.636224
4.06 -0.643648
4.07 -0.642105
4.08 -0.636928
4.09 -0.632101
4.1 -0.630579
4.11 -0.634587
4.12 -0.645034
4.13 -0.661613
4.14 -0.68408
4.15 -0.710231
4.16 -0.738466
4.17 -0.766258
4.18 -0.791396
4.19 -0.811272
4.2 -0.824654
4.21 -0.828623
4.22 -0.8234
4.23 -0.807557
4.24 -0.781199
4.25 -0.745151
4.26 -0.699161
4.27 -0.645564
4.28 -0.58472
4.29 -0.518709
4.3 -0.448789
4.31 -0.37631
4.32 -0.302652
4.33 -0.228813
4.34 -0.155655
4.35 -0.0838569
4.36 -0.0138799
4.37 0.0540838
4.38 0.119555
4.39 0.182697
4.4 0.242991
4.41 0.300398
4.42 0.354512
4.43 0.404619
4.44 0.450559
4.45 0.490753
4.46 0.525156
4.47 0.552359
4.48 0.571543
4.49 0.582346
4.5 0.583013
4.51 0.574432
4.52 0.555139
4.53 0.526095
4.54 0.487489
4.55 0.439662
4.56 0.384472
4.57 0.322105
4.58 0.255023
4.59 0.184365
4.6 0.111986
4.61 0.039452
4.62 -0.0315072
4.63 -0.0998166
4.64 -0.16394
4.65 -0.223334
4.66 -0.277393
4.67 -0.325583
4.68 -0.368544
4.69 -0.405724
4.7 -0.438435
4.71 -0.466924
4.72 -0.492082
4.73 -0.514779
4.74 -0.535571
4.75 -0.555327
4.76 -0.574457
4.77 -0.593388
4.78 -0.612295
4.79 -0.631197
4.8 -0.649975
4.81 -0.66831
4.82 -0.685915
4.83 -0.702342
4.84 -0.717189
4.85 -0.730219
4.86 -0.740915
4.87 -0.749444
4.88 -0.755496
4.89 -0.759396
4.9 -0.76134
4.91 -0.761638
4.92 -0.760865
4.93 -0.759411
4.94 -0.757886
4.95 -0.756768
4.96 -0.756522
4.97 -0.757427
4.98 -0.759901
4.99 -0.763853
5 -0.769487
5.01 -0.776554
5.02 -0.784887
5.03 -0.79424
5.04 -0.804219
5.05 -0.814545
5.06 -0.824841
5.07 -0.834811
5.08 -0.844176
5.09 -0.852767
5.1 -0.860282
5.11 -0.866709
5.12 -0.871723
5.13 -0.875224
5.14 -0.876928
5.15 -0.876324
5.16 -0.873199
5.17 -0.866382
5.18 -0.855578
5.19 -0.839502
5.2 -0.817088
5.21 -0.787609
5.22 -0.748887
5.23 -0.701099
5.24 -0.642029
5.25 -0.571815
5.26 -0.489883
5.27 -0.395634
5.28 -0.290753
5.29 -0.174531
5.3 -0.0500322
5.31 0.0814826
5.32 0.21716
5.33 0.354103
5.34 0.488697
5.35 0.61792
5.36 0.737285
5.37 0.843906
5.38 0.934486
5.39 1.00498
5.4 1.05533
5.41 1.08018
5.42 1.08204
5.43 1.05875
5.44 1.0114
5.45 0.942509
5.46 0.851935
5.47 0.745233
5.48 0.623769
5.49 0.492582
5.5 0.355198
5.51 0.215711
5.52 0.0777783
5.53 -0.0543603
5.54 -0.178457
5.55 -0.291376
5.56 -0.391268
5.57 -0.47769
5.58 -0.548375
5.59 -0.605496
5.6 -0.647938
5.61 -0.67802
5.62 -0.696922
5.63 -0.705953
5.64 -0.707738
5.65 -0.703011
5.66 -0.69422
5.67 -0.682289
5.68 -0.668345
5.69 -0.653081
5.7 -0.636669
5.71 -0.619219
5.72 -0.600256
5.73 -0.579348
5.74 -0.55586
5.75 -0.528926
5.76 -0.498386
5.77 -0.463174
5.78 -0.423782
5.79 -0.380008
5.8 -0.332461
5.81 -0.282099
5.82 -0.229914
5.83 -0.177518
5.84 -0.126609
5.85 -0.0789072
5.86 -0.036128
5.87 -0.000406231
5.88 0.0276485
5.89 0.0453729
5.9 0.053329
5.91 0.050251
5.92 0.0362982
5.93 0.012419
5.94 -0.021656
5.95 -0.0634404
5.96 -0.112413
5.97 -0.166282
5.98 -0.223472
5.99 -0.282207
6 -0.340841
6.01 -0.397718
6.02 -0.451899
6.03 -0.50231
6.04 -0.548426
6.05 -0.590287
6.06 -0.627491
6.07 -0.661017
6.08 -0.690986
6.09 -0.718412
6.1 -0.743973
6.11 -0.768386
6.12 -0.792345
6.13 -0.816309
6.14 -0.840549
6.15 -0.865141
6.16 -0.889902
6.17 -0.914502
6.18 -0.938337
6.19 -0.960932
6.2 -0.981456
6.21 -0.999442
6.22 -1.01439
6.23 -1.02575
6.24 -1.03377
6.25 -1.03798
6.26 -1.03917
6.27 -1.03755
6.28 -1.03378
6.29 -1.02856
6.3 -1.02236
6.31 -1.01573
6.32 -1.00878
6.33 -1.00132
6.34 -0.992746
6.35 -0.981709
6.36 -0.966939
6.37 -0.945281
6.38 -0.914939
6.39 -0.872123
6.4 -0.813309
6.41 -0.736148
6.42 -0.634401
6.43 -0.508348
6.44 -0.352023
6.45 -0.165711
6.46 0.0519403
6.47 0.30255
6.48 0.581506
6.49 0.890685
6.5 1.22218
6.51 1.57291
6.52 1.93588
6.53 2.30394
6.54 2.66867
6.55 3.02254
6.56 3.3552
6.57 3.65951
6.58 3.92769
6.59 4.14985
6.6 4.32542
6.61 4.44128
6.62 4.50234
6.63 4.50255
6.64 4.44292
6.65 4.3284
6.66 4.15609
6.67 3.93846
6.68 3.67609
6.69 3.3799
6.7 3.05692
6.71 2.71499
6.72 2.36374
6.73 2.01084
6.74 1.66416
6.75 1.33092
6.76 1.01739
6.77 0.726886
6.78 0.466497
6.79 0.234484
6.8 0.0358307
6.81 -0.131859
6.82 -0.269053
6.83 -0.376013
6.84 -0.458116
6.85 -0.514464
6.86 -0.55166
6.87 -0.571297
6.88 -0.577073
6.89 -0.572497
6.9 -0.559403
6.91 -0.541205
6.92 -0.519313
6.93 -0.495676
6.94 -0.471425
6.95 -0.447545
6.96 -0.424581
6.97 -0.403198
6.98 -0.383517
6.99 -0.365943
7 -0.350751
7.01 -0.338095
7.02 -0.328728
7.03 -0.32263
7.04 -0.320744
7.05 -0.323294
7.06 -0.330795
7.07 -0.343998
7.08 -0.362573
7.09 -0.387568
7.1 -0.418054
7.11 -0.454177
7.12 -0.495267
7.13 -0.54033
7.14 -0.588707
7.15 -0.638821
7.16 -0.689535
7.17 -0.739384
7.18 -0.787114
7.19 -0.831229
7.2 -0.871158
7.21 -0.905282
7.22 -0.933843
7.23 -0.956183
7.24 -0.972492
7.25 -0.983485
7.26 -0.989283
7.27 -0.991463
7.28 -0.99067
7.29 -0.98831
7.3 -0.985406
7.31 -0.983037
7.32 -0.98186
7.33 -0.982641
7.34 -0.98528
7.35 -0.98971
7.36 -0.995251
7.37 -1.00094
7.38 -1.00528
7.39 -1.00689
7.4 -1.00353
7.41 -0.993559
7.42 -0.975098
7.43 -0.945654
7.44 -0.904974
7.45 -0.849792
7.46 -0.781207
7.47 -0.697819
7.48 -0.599999
7.49 -0.48924
7.5 -0.365363
7.51 -0.231868
7.52 -0.0898648
7.53 0.0572591
7.54 0.20682
7.55 0.355502
7.56 0.500546
7.57 0.637872
7.58 0.76558
7.59 0.880326
7.6 0.979747
7.61 1.06301
7.62 1.1264
7.63 1.17175
7.64 1.19629
7.65 1.20161
7.66 1.18807
7.67 1.15565
7.68 1.1076
7.69 1.04319
7.7 0.966497
7.71 0.878557
7.72 0.781885
7.73 0.679045
7.74 0.571872
7.75 0.463108
7.76 0.354823
7.77 0.24916
7.78 0.147958
7.79 0.0534605
7.8 -0.0336175
7.81 -0.110515
7.82 -0.177445
7.83 -0.232779
7.84 -0.275994
7.85 -0.307525
7.86 -0.325887
7.87 -0.3332
7.88 -0.32874
7.89 -0.314397
7.9 -0.291299
7.91 -0.260691
7.92 -0.225012
7.93 -0.185656
7.94 -0.145206
7.95 -0.105656
7.96 -0.0692879
7.97 -0.0377259
7.98 -0.0136592
7.99 0.00247353
8 0.00842
8.01 0.00407954
8.02 -0.0109736
8.03 -0.0372825
8.04 -0.0731675
8.05 -0.119161
8.06 -0.172645
8.07 -0.232661
8.08 -0.297197
8.09 -0.364253
8.1 -0.431939
8.11 -0.498407
8.12 -0.561773
8.13 -0.620794
8.14 -0.674437
8.15 -0.721609
8.16 -0.762736
8.17 -0.796928
8.18 -0.825536
8.19 -0.848848
8.2 -0.867937
8.21 -0.884012
8.22 -0.897894
8.23 -0.910778
8.24 -0.923278
8.25 -0.935818
8.26 -0.94837
8.27 -0.960372
8.28 -0.970976
8.29 -0.978264
8.3 -0.980691
8.31 -0.975591
8.32 -0.960157
8.33 -0.932471
8.34 -0.887718
8.35 -0.825709
8.36 -0.74185
8.37 -0.635798
8.38 -0.506314
8.39 -0.351556
8.4 -0.174682
8.41 0.0263783
8.42 0.246149
8.43 0.482932
8.44 0.732183
8.45 0.988836
8.46 1.24773
8.47 1.50308
8.48 1.74828
8.49 1.97788
8.5 2.1865
8.51 2.36707
8.52 2.51853
8.53 2.63194
8.54 2.7095
8.55 2.74684
8.56 2.74362
8.57 2.70275
8.58 2.6211
8.59 2.50674
8.6 2.35912
8.61 2.185
8.62 1.98871
8.63 1.77469
8.64 1.54973
8.65 1.318
8.66 1.08552
8.67 0.856853
8.68 0.636599
8.69 0.427562
8.7 0.234629
8.71 0.0577171
8.72 -0.0996165
8.73 -0.237968
8.74 -0.357185
8.75 -0.456733
8.76 -0.53974
8.77 -0.605201
8.78 -0.657208
8.79 -0.696703
8.8 -0.726069
8.81 -0.747834
8.82 -0.763305
8.83 -0.775117
8.84 -0.784492
8.85 -0.793045
8.86 -0.801797
8.87 -0.811679
8.88 -0.823065
8.89 -0.836531
8.9 -0.851884
8.91 -0.869163
8.92 -0.88809
8.93 -0.908254
8.94 -0.929365
8.95 -0.95089
8.96 -0.972457
8.97 -0.993669
8.98 -1.01422
8.99 -1.03376
9 -1.05222
9.01 -1.06924
9.02 -1.0849
9.03 -1.09903
9.04 -1.11157
9.05 -1.12255
9.06 -1.13169
9.07 -1.13912
9.08 -1.14446
9.09 -1.14762
9.1 -1.14835
9.11 -1.14614
9.12 -1.14098
9.13 -1.13193
9.14 -1.1191
9.15 -1.10179
9.16 -1.07964
9.17 -1.05268
9.18 -1.02001
9.19 -0.982309
9.2 -0.938989
9.21 -0.890635
9.22 -0.837563
9.23 -0.780082
9.24 -0.719319
9.25 -0.655718
9.26 -0.590666
9.27 -0.525158
9.28 -0.460524
9.29 -0.397857
9.3 -0.338874
9.31 -0.284237
9.32 -0.235655
9.33 -0.193747
9.34 -0.159284
9.35 -0.133383
9.36 -0.11541
9.37 -0.10673
9.38 -0.10596
9.39 -0.113233
9.4 -0.127743
9.41 -0.148208
9.42 -0.174178
9.43 -0.203727
9.44 -0.235974
9.45 -0.269371
9.46 -0.302746
9.47 -0.334802
9.48 -0.364767
9.49 -0.391393
9.5 -0.414515
9.51 -0.433541
9.52 -0.44838
9.53 -0.459416
9.54 -0.466541
9.55 -0.470809
9.56 -0.472568
9.57 -0.472804
9.58 -0.472281
9.59 -0.471868
9.6 -0.472249
9.61 -0.474298
9.62 -0.478343
9.63 -0.4849
9.64 -0.4942
9.65 -0.506127
9.66 -0.520933
9.67 -0.538012
9.68 -0.55732
9.69 -0.578303
9.7 -0.600577
9.71 -0.623757
9.72 -0.647389
9.73 -0.671164
9.74 -0.694776
9.75 -0.717981
9.76 -0.740557
9.77 -0.762361
9.78 -0.783009
9.79 -0.802348
9.8 -0.819736
9.81 -0.834616
9.82 -0.846159
9.83 -0.852851
9.84 -0.853909
9.85 -0.846471
9.86 -0.829562
9.87 -0.800302
9.88 -0.756067
9.89 -0.695529
9.9 -0.61358
9.91 -0.510915
9.92 -0.3828
9.93 -0.229188
9.94 -0.0490114
9.95 0.159909
9.96 0.394054
9.97 0.656093
9.98 0.94033
9.99 1.24534
10 1.56671
10.01 1.89901
10.02 2.23735
10.03 2.57502
10.04 2.90517
10.05 3.22124
10.06 3.51696
10.07 3.78378
10.08 4.01947
10.09 4.21317
10.1 4.36579
10.11 4.47121
10.12 4.52727
10.13 4.53638
10.14 4.49258
10.15 4.40483
10.16 4.27064
10.17 4.09724
10.18 3.88918
10.19 3.65052
10.2 3.39027
10.21 3.11216
10.22 2.825
10.23 2.53425
10.24 2.24645
10.25 1.9663
10.26 1.70023
10.27 1.44998
10.28 1.22053
10.29 1.01259
10.3 0.827132
10.31 0.665769
10.32 0.52518
10.33 0.407107
10.34 0.306704
10.35 0.222832
10.36 0.152458
10.37 0.0920875
10.38 0.0397865
10.39 -0.00819751
10.4 -0.0538862
10.41 -0.0996826
10.42 -0.147198
10.43 -0.19798
10.44 -0.252399
10.45 -0.311417
10.46 -0.374356
10.47 -0.441015
10.48 -0.510498
10.49 -0.581655
10.5 -0.653278
10.51 -0.724001
10.52 -0.792292
10.53 -0.856897
10.54 -0.916662
10.55 -0.970044
10.56 -1.01693
10.57 -1.05553
10.58 -1.08641
10.59 -1.10883
10.6 -1.12281
10.61 -1.12909
10.62 -1.12706
10.63 -1.11843
10.64 -1.10307
10.65 -1.08226
10.66 -1.05679
10.67 -1.02736
10.68 -0.995226
10.69 -0.960945
10.7 -0.925639
10.71 -0.89001
10.72 -0.854857
10.73 -0.82075
10.74 -0.788509
10.75 -0.758361
10.76 -0.731006
10.77 -0.706639
10.78 -0.685521
10.79 -0.668114
10.8 -0.654148
10.81 -0.644286
10.82 -0.638073
10.83 -0.635769
10.84 -0.637335
10.85 -0.642446
10.86 -0.651471
10.87 -0.663723
10.88 -0.67941
10.89 -0.698078
10.9 -0.719478
10.91 -0.743456
10.92 -0.769413
10.93 -0.79724
10.94 -0.826288
10.95 -0.856213
10.96 -0.886505
10.97 -0.916705
10.98 -0.946249
10.99 -0.97478
11 -1.00172
11.01 -1.02676
11.02 -1.0496
11.03 -1.06979
11.04 -1.08749
11.05 -1.10222
11.06 -1.11438
11.07 -1.12394
11.08 -1.13114
11.09 -1.13642
11.1 -1.13991
11.11 -1.14224
11.12 -1.14365
11.13 -1.14455
11.14 -1.14514
11.15 -1.14554
11.16 -1.14571
11.17 -1.1453
11.18 -1.14389
11.19 -1.14067
11.2 -1.13458
11.21 -1.12469
11.22 -1.10881
11.23 -1.08624
11.24 -1.05439
11.25 -1.012
11.26 -0.957483
11.27 -0.88824
11.28 -0.804676
11.29 -0.703354
11.3 -0.585794
11.31 -0.450747
11.32 -0.298596
11.33 -0.131352
11.34 0.0513515
11.35 0.245291
11.36 0.449074
11.37 0.658706
11.38 0.87079
11.39 1.08105
11.4 1.28589
11.41 1.47977
11.42 1.65984
11.43 1.82139
11.44 1.96051
11.45 2.07597
11.46 2.16156
11.47 2.21976
11.48 2.24618
11.49 2.24256
11.5 2.20953
11.51 2.14653
11.52 2.05883
11.53 1.94548
11.54 1.81283
11.55 1.66306
11.56 1.50036
11.57 1.32917
11.58 1.15282
11.59 0.97566
11.6 0.801136
11.61 0.632329
11.62 0.471633
11.63 0.321926
11.64 0.183321
11.65 0.0585669
11.66 -0.0536881
11.67 -0.152813
11.68 -0.239492
11.69 -0.315512
11.7 -0.380859
11.71 -0.438472
11.72 -0.489023
11.73 -0.534587
11.74 -0.576528
11.75 -0.616002
11.76 -0.654195
11.77 -0.691658
11.78 -0.728814
11.79 -0.765615
11.8 -0.801653
11.81 -0.836355
11.82 -0.868399
11.83 -0.896992
11.84 -0.9203
11.85 -0.937095
11.86 -0.946028
11.87 -0.944941
11.88 -0.933797
11.89 -0.909818
11.9 -0.873742
11.91 -0.824321
11.92 -0.761383
11.93 -0.686107
11.94 -0.597471
11.95 -0.498365
11.96 -0.388961
11.97 -0.271731
11.98 -0.148606
11.99 -0.0217195
12 0.106276
12.01 0.232759
12.02 0.355351
12.03 0.471422
12.04 0.578412
12.05 0.675058
12.06 0.757769
12.07 0.82708
12.08 0.880244
12.09 0.917513
12.1 0.938735
12.11 0.94296
12.12 0.932663
12.13 0.906642
12.14 0.868117
12.15 0.81783
12.16 0.757722
12.17 0.690249
12.18 0.61667
12.19 0.539773
12.2 0.461103
12.21 0.38261
12.22 0.305707
12.23 0.231924
12.24 0.16178
12.25 0.0965486
12.26 0.0359548
12.27 -0.019703
12.28 -0.0706978
12.29 -0.117807
12.3 -0.16124
12.31 -0.202269
12.32 -0.241447
12.33 -0.279724
12.34 -0.317765
12.35 -0.356177
