# xPDFsuite Configuration #
[PDF]
wavelength = 0.1432
dataformat = twotheta
inputfile = 1_1Pd_CeO2_cycle-00126.chi
backgroundfile = background-00000.chi
mode = xray
bgscale = 1.007
composition = CeO2
outputtype = gr
qmaxinst = 28.8974762299
qmin = 0.5
qmax = 27.9
rmax = 50.0
rmin = 0.0
rstep = 0.01
rpoly = 1.8657

[Misc]
inputdir = G:/SankarDec16/1Pd/Chi
savedir = D:/DATA/APS_CeO2/1Pd
backgroundfilefull = G:/SankarDec16/Background/background-00000.chi

#### start data
#S 1
#L r($\AA$)  G($\AA^{-2}$)
0 0
0.01 -0.00720619
0.02 -0.0138692
0.03 -0.0194298
0.04 -0.0234668
0.05 -0.025746
0.06 -0.0258906
0.07 -0.0241519
0.08 -0.0204092
0.09 -0.0151415
0.1 -0.0086806
0.11 -0.00153405
0.12 0.00574492
0.13 0.0125354
0.14 0.018398
0.15 0.0227945
0.16 0.0254102
0.17 0.0261197
0.18 0.0246672
0.19 0.021422
0.2 0.0163999
0.21 0.0101596
0.22 0.00311422
0.23 -0.0041662
0.24 -0.0111613
0.25 -0.0172021
0.26 -0.0219742
0.27 -0.0249866
0.28 -0.026046
0.29 -0.0251425
0.3 -0.022153
0.31 -0.0175483
0.32 -0.0114794
0.33 -0.00455853
0.34 0.00273973
0.35 0.00980995
0.36 0.0161898
0.37 0.0211947
0.38 0.02465
0.39 0.0261359
0.4 0.0255903
0.41 0.0231192
0.42 0.0187393
0.43 0.0129996
0.44 0.00618011
0.45 -0.00108285
0.46 -0.00827621
0.47 -0.0147878
0.48 -0.0202359
0.49 -0.0239533
0.5 -0.025914
0.51 -0.0257902
0.52 -0.0236539
0.53 -0.0197229
0.54 -0.0141529
0.55 -0.00754583
0.56 -0.00029674
0.57 0.00696384
0.58 0.0137093
0.59 0.0193498
0.6 0.0236035
0.61 0.0258527
0.62 0.0262219
0.63 0.0244912
0.64 0.0208646
0.65 0.015661
0.66 0.00916893
0.67 0.0020137
0.68 -0.00531269
0.69 -0.0122159
0.7 -0.0181813
0.71 -0.0226698
0.72 -0.0255131
0.73 -0.0261731
0.74 -0.024919
0.75 -0.0216497
0.76 -0.0166908
0.77 -0.010447
0.78 -0.00332491
0.79 0.00405728
0.8 0.0111364
0.81 0.0173833
0.82 0.0223224
0.83 0.0254927
0.84 0.0268483
0.85 0.0259592
0.86 0.0232253
0.87 0.0186695
0.88 0.0127222
0.89 0.00585116
0.9 -0.00144191
0.91 -0.00858152
0.92 -0.0149685
0.93 -0.0201727
0.94 -0.0237908
0.95 -0.025476
0.96 -0.0253148
0.97 -0.0230303
0.98 -0.019136
0.99 -0.0137987
1 -0.00754247
1.01 -0.000880507
1.02 0.00559464
1.03 0.0113922
1.04 0.0158916
1.05 0.018802
1.06 0.0198218
1.07 0.0187548
1.08 0.0158487
1.09 0.0110257
1.1 0.00493336
1.11 -0.00207341
1.12 -0.00934383
1.13 -0.0162936
1.14 -0.022174
1.15 -0.0265767
1.16 -0.028777
1.17 -0.0286115
1.18 -0.0258293
1.19 -0.0203231
1.2 -0.0125167
1.21 -0.00241385
1.22 0.00913599
1.23 0.0216492
1.24 0.034319
1.25 0.0464411
1.26 0.0571007
1.27 0.0658345
1.28 0.0717496
1.29 0.0746457
1.3 0.0741776
1.31 0.0701277
1.32 0.062943
1.33 0.0524052
1.34 0.0394586
1.35 0.0244331
1.36 0.00811501
1.37 -0.00878162
1.38 -0.0254823
1.39 -0.0413549
1.4 -0.0556169
1.41 -0.0678742
1.42 -0.0776936
1.43 -0.0846973
1.44 -0.0890576
1.45 -0.0903288
1.46 -0.0891034
1.47 -0.0853584
1.48 -0.0794915
1.49 -0.071901
1.5 -0.0628145
1.51 -0.0527566
1.52 -0.0419411
1.53 -0.0307348
1.54 -0.0193553
1.55 -0.00801481
1.56 0.00314996
1.57 0.0139602
1.58 0.0243565
1.59 0.034186
1.6 0.0433279
1.61 0.051671
1.62 0.0589217
1.63 0.0650196
1.64 0.0695515
1.65 0.0723997
1.66 0.0732849
1.67 0.0718904
1.68 0.0682919
1.69 0.0619944
1.7 0.0533971
1.71 0.0423788
1.72 0.0292529
1.73 0.0144186
1.74 -0.00178948
1.75 -0.0186802
1.76 -0.0356972
1.77 -0.0521648
1.78 -0.0674695
1.79 -0.0809204
1.8 -0.0922612
1.81 -0.100703
1.82 -0.106471
1.83 -0.109267
1.84 -0.109337
1.85 -0.107085
1.86 -0.10281
1.87 -0.097345
1.88 -0.0912629
1.89 -0.085374
1.9 -0.0803558
1.91 -0.076951
1.92 -0.0754619
1.93 -0.0766254
1.94 -0.0801975
1.95 -0.0863476
1.96 -0.0946946
1.97 -0.104698
1.98 -0.115769
1.99 -0.127002
2 -0.137458
2.01 -0.146243
2.02 -0.152458
2.03 -0.155105
2.04 -0.153943
2.05 -0.147756
2.06 -0.137024
2.07 -0.121264
2.08 -0.100814
2.09 -0.0762192
2.1 -0.0476556
2.11 -0.0162671
2.12 0.0175557
2.13 0.0528325
2.14 0.0889558
2.15 0.125315
2.16 0.161496
2.17 0.197163
2.18 0.232307
2.19 0.266962
2.2 0.301375
2.21 0.335843
2.22 0.370768
2.23 0.406394
2.24 0.443051
2.25 0.480707
2.26 0.519241
2.27 0.558227
2.28 0.597004
2.29 0.63443
2.3 0.669498
2.31 0.70059
2.32 0.726156
2.33 0.744989
2.34 0.754633
2.35 0.755019
2.36 0.743757
2.37 0.721174
2.38 0.686764
2.39 0.640355
2.4 0.583861
2.41 0.517033
2.42 0.443142
2.43 0.363635
2.44 0.281306
2.45 0.198666
2.46 0.118694
2.47 0.0434168
2.48 -0.0241387
2.49 -0.0827384
2.5 -0.13089
2.51 -0.167327
2.52 -0.1931
2.53 -0.206921
2.54 -0.211602
2.55 -0.207822
2.56 -0.197939
2.57 -0.184269
2.58 -0.169093
2.59 -0.154794
2.6 -0.143744
2.61 -0.137504
2.62 -0.13745
2.63 -0.144715
2.64 -0.15876
2.65 -0.18034
2.66 -0.207453
2.67 -0.23928
2.68 -0.273847
2.69 -0.30927
2.7 -0.343366
2.71 -0.374515
2.72 -0.400555
2.73 -0.4206
2.74 -0.433737
2.75 -0.439371
2.76 -0.438508
2.77 -0.430965
2.78 -0.419004
2.79 -0.403854
2.8 -0.387671
2.81 -0.37235
2.82 -0.360229
2.83 -0.352542
2.84 -0.351364
2.85 -0.357071
2.86 -0.370161
2.87 -0.390673
2.88 -0.417116
2.89 -0.448949
2.9 -0.483595
2.91 -0.519238
2.92 -0.553402
2.93 -0.584092
2.94 -0.608561
2.95 -0.626006
2.96 -0.634187
2.97 -0.63328
2.98 -0.623121
2.99 -0.604134
3 -0.578435
3.01 -0.547058
3.02 -0.513142
3.03 -0.478985
3.04 -0.44745
3.05 -0.420729
3.06 -0.401876
3.07 -0.391482
3.08 -0.391841
3.09 -0.402396
3.1 -0.423005
3.11 -0.452823
3.12 -0.489298
3.13 -0.530886
3.14 -0.574151
3.15 -0.616419
3.16 -0.654661
3.17 -0.68671
3.18 -0.709486
3.19 -0.722843
3.2 -0.724813
3.21 -0.716587
3.22 -0.698936
3.23 -0.673533
3.24 -0.64345
3.25 -0.611375
3.26 -0.580907
3.27 -0.555504
3.28 -0.538433
3.29 -0.531766
3.3 -0.538925
3.31 -0.559131
3.32 -0.594235
3.33 -0.641947
3.34 -0.700668
3.35 -0.76764
3.36 -0.838762
3.37 -0.910024
3.38 -0.977116
3.39 -1.03552
3.4 -1.08136
3.41 -1.11243
3.42 -1.12466
3.43 -1.11968
3.44 -1.0956
3.45 -1.05583
3.46 -1.00281
3.47 -0.940419
3.48 -0.873902
3.49 -0.808542
3.5 -0.749408
3.51 -0.701876
3.52 -0.670092
3.53 -0.655998
3.54 -0.663168
3.55 -0.688405
3.56 -0.731625
3.57 -0.786759
3.58 -0.848184
3.59 -0.907419
3.6 -0.956487
3.61 -0.982264
3.62 -0.977942
3.63 -0.931048
3.64 -0.832928
3.65 -0.679185
3.66 -0.457437
3.67 -0.174035
3.68 0.179122
3.69 0.592669
3.7 1.0618
3.71 1.57843
3.72 2.12678
3.73 2.69579
3.74 3.26653
3.75 3.8224
3.76 4.34503
3.77 4.82063
3.78 5.22607
3.79 5.55779
3.8 5.79438
3.81 5.93581
3.82 5.97608
3.83 5.90997
3.84 5.75106
3.85 5.49084
3.86 5.15325
3.87 4.74308
3.88 4.27727
3.89 3.77257
3.9 3.24297
3.91 2.70696
3.92 2.1798
3.93 1.67516
3.94 1.20475
3.95 0.780802
3.96 0.40485
3.97 0.0899682
3.98 -0.170999
3.99 -0.374098
4 -0.524079
4.01 -0.62807
4.02 -0.688218
4.03 -0.71735
4.04 -0.71964
4.05 -0.705519
4.06 -0.681624
4.07 -0.654824
4.08 -0.630319
4.09 -0.613206
4.1 -0.60511
4.11 -0.608103
4.12 -0.621942
4.13 -0.645077
4.14 -0.676239
4.15 -0.711805
4.16 -0.749106
4.17 -0.784682
4.18 -0.815638
4.19 -0.838787
4.2 -0.853003
4.21 -0.855058
4.22 -0.845885
4.23 -0.824362
4.24 -0.791304
4.25 -0.748207
4.26 -0.695541
4.27 -0.636159
4.28 -0.571036
4.29 -0.502445
4.3 -0.431784
4.31 -0.360401
4.32 -0.289243
4.33 -0.219062
4.34 -0.150008
4.35 -0.0821923
4.36 -0.0153888
4.37 0.0507165
4.38 0.116374
4.39 0.181821
4.4 0.24702
4.41 0.311704
4.42 0.37531
4.43 0.436769
4.44 0.49521
4.45 0.548432
4.46 0.595523
4.47 0.634228
4.48 0.662883
4.49 0.680568
4.5 0.684547
4.51 0.675792
4.52 0.652154
4.53 0.614963
4.54 0.564567
4.55 0.50165
4.56 0.428992
4.57 0.347283
4.58 0.26014
4.59 0.169559
4.6 0.0784008
4.61 -0.0110323
4.62 -0.0959276
4.63 -0.175036
4.64 -0.245974
4.65 -0.30832
4.66 -0.361412
4.67 -0.404783
4.68 -0.439844
4.69 -0.466172
4.7 -0.486186
4.71 -0.500721
4.72 -0.511558
4.73 -0.520296
4.74 -0.528359
4.75 -0.537042
4.76 -0.547489
4.77 -0.56028
4.78 -0.575796
4.79 -0.594193
4.8 -0.614916
4.81 -0.637726
4.82 -0.661575
4.83 -0.685687
4.84 -0.709038
4.85 -0.730835
4.86 -0.749959
4.87 -0.766138
4.88 -0.778503
4.89 -0.787127
4.9 -0.791956
4.91 -0.793072
4.92 -0.791258
4.93 -0.786707
4.94 -0.78052
4.95 -0.773319
4.96 -0.765982
4.97 -0.759206
4.98 -0.753829
4.99 -0.750197
5 -0.748986
5.01 -0.750288
5.02 -0.754268
5.03 -0.761048
5.04 -0.770223
5.05 -0.781943
5.06 -0.795552
5.07 -0.810862
5.08 -0.827404
5.09 -0.844717
5.1 -0.862345
5.11 -0.879757
5.12 -0.896319
5.13 -0.911426
5.14 -0.924361
5.15 -0.934079
5.16 -0.940053
5.17 -0.940427
5.18 -0.934799
5.19 -0.921405
5.2 -0.89897
5.21 -0.866772
5.22 -0.822253
5.23 -0.766053
5.24 -0.695778
5.25 -0.612065
5.26 -0.514638
5.27 -0.403291
5.28 -0.280332
5.29 -0.145521
5.3 -0.00256894
5.31 0.146679
5.32 0.29877
5.33 0.450401
5.34 0.597225
5.35 0.736188
5.36 0.862186
5.37 0.9724
5.38 1.06343
5.39 1.13112
5.4 1.17591
5.41 1.19223
5.42 1.18336
5.43 1.1473
5.44 1.08564
5.45 1.0014
5.46 0.894823
5.47 0.771963
5.48 0.634585
5.49 0.488078
5.5 0.336257
5.51 0.183528
5.52 0.033582
5.53 -0.108999
5.54 -0.242118
5.55 -0.362494
5.56 -0.468319
5.57 -0.55926
5.58 -0.632936
5.59 -0.69178
5.6 -0.734568
5.61 -0.763782
5.62 -0.78063
5.63 -0.786405
5.64 -0.783899
5.65 -0.77372
5.66 -0.758529
5.67 -0.739235
5.68 -0.717081
5.69 -0.692908
5.7 -0.666971
5.71 -0.639626
5.72 -0.61056
5.73 -0.579586
5.74 -0.546293
5.75 -0.510093
5.76 -0.470978
5.77 -0.428238
5.78 -0.382404
5.79 -0.333502
5.8 -0.282222
5.81 -0.229486
5.82 -0.17643
5.83 -0.124398
5.84 -0.075122
5.85 -0.0300511
5.86 0.0092712
5.87 0.0409106
5.88 0.0645261
5.89 0.0776412
5.9 0.0810384
5.91 0.0736194
5.92 0.0556801
5.93 0.0282283
5.94 -0.0089083
5.95 -0.0533153
5.96 -0.104459
5.97 -0.160162
5.98 -0.218935
5.99 -0.279108
6 -0.339151
6.01 -0.397511
6.02 -0.453317
6.03 -0.505555
6.04 -0.553716
6.05 -0.597815
6.06 -0.637418
6.07 -0.673411
6.08 -0.705822
6.09 -0.735552
6.1 -0.763171
6.11 -0.789261
6.12 -0.814475
6.13 -0.839123
6.14 -0.863516
6.15 -0.887679
6.16 -0.911474
6.17 -0.934654
6.18 -0.95667
6.19 -0.977216
6.2 -0.995575
6.21 -1.01145
6.22 -1.02448
6.23 -1.0343
6.24 -1.04126
6.25 -1.04509
6.26 -1.04662
6.27 -1.04619
6.28 -1.04454
6.29 -1.04234
6.3 -1.04022
6.31 -1.03856
6.32 -1.03759
6.33 -1.03697
6.34 -1.03602
6.35 -1.03329
6.36 -1.02728
6.37 -1.01466
6.38 -0.993315
6.39 -0.959125
6.4 -0.908134
6.41 -0.83762
6.42 -0.740616
6.43 -0.617133
6.44 -0.460326
6.45 -0.270127
6.46 -0.0446455
6.47 0.218458
6.48 0.514395
6.49 0.846022
6.5 1.20472
6.51 1.5876
6.52 1.98717
6.53 2.3954
6.54 2.80326
6.55 3.20171
6.56 3.57915
6.57 3.92679
6.58 4.23526
6.59 4.4926
6.6 4.69722
6.61 4.83323
6.62 4.90535
6.63 4.90573
6.64 4.83473
6.65 4.69762
6.66 4.49027
6.67 4.22741
6.68 3.90946
6.69 3.54975
6.7 3.15707
6.71 2.74149
6.72 2.31534
6.73 1.88908
6.74 1.47303
6.75 1.07716
6.76 0.710127
6.77 0.376473
6.78 0.0862436
6.79 -0.163227
6.8 -0.365006
6.81 -0.52286
6.82 -0.637911
6.83 -0.711312
6.84 -0.751334
6.85 -0.758172
6.86 -0.741887
6.87 -0.70625
6.88 -0.65774
6.89 -0.60198
6.9 -0.543603
6.91 -0.486856
6.92 -0.435317
6.93 -0.391014
6.94 -0.355344
6.95 -0.329401
6.96 -0.311976
6.97 -0.303578
6.98 -0.301752
6.99 -0.305566
7 -0.313226
7.01 -0.323143
7.02 -0.334114
7.03 -0.345075
7.04 -0.355426
7.05 -0.365055
7.06 -0.374199
7.07 -0.383521
7.08 -0.393818
7.09 -0.406464
7.1 -0.422277
7.11 -0.442553
7.12 -0.46819
7.13 -0.499431
7.14 -0.537252
7.15 -0.580586
7.16 -0.629503
7.17 -0.682516
7.18 -0.738369
7.19 -0.79537
7.2 -0.851743
7.21 -0.90527
7.22 -0.954537
7.23 -0.997653
7.24 -1.0333
7.25 -1.06109
7.26 -1.07954
7.27 -1.08996
7.28 -1.09188
7.29 -1.08694
7.3 -1.0763
7.31 -1.0614
7.32 -1.0442
7.33 -1.02619
7.34 -1.00895
7.35 -0.993706
7.36 -0.981256
7.37 -0.97169
7.38 -0.965044
7.39 -0.960091
7.4 -0.955571
7.41 -0.949455
7.42 -0.939584
7.43 -0.922913
7.44 -0.89779
7.45 -0.859953
7.46 -0.808803
7.47 -0.741475
7.48 -0.656756
7.49 -0.555106
7.5 -0.43459
7.51 -0.29876
7.52 -0.147597
7.53 0.0149786
7.54 0.185921
7.55 0.361299
7.56 0.536701
7.57 0.706979
7.58 0.868207
7.59 1.01537
7.6 1.14419
7.61 1.25252
7.62 1.33446
7.63 1.39164
7.64 1.41961
7.65 1.42024
7.66 1.39384
7.67 1.34048
7.68 1.26507
7.69 1.16716
7.7 1.05309
7.71 0.92517
7.72 0.787804
7.73 0.645126
7.74 0.500902
7.75 0.358835
7.76 0.222675
7.77 0.0950641
7.78 -0.0216104
7.79 -0.124508
7.8 -0.213784
7.81 -0.286119
7.82 -0.343272
7.83 -0.384028
7.84 -0.408963
7.85 -0.419667
7.86 -0.415511
7.87 -0.39978
7.88 -0.372595
7.89 -0.336605
7.9 -0.293495
7.91 -0.245083
7.92 -0.193812
7.93 -0.141575
7.94 -0.0905967
7.95 -0.0429634
7.96 -0.000763954
7.97 0.0346811
7.98 0.0606544
7.99 0.0771581
8 0.0819003
8.01 0.0750164
8.02 0.0561481
8.03 0.024744
8.04 -0.0173361
8.05 -0.0707482
8.06 -0.132641
8.07 -0.202025
8.08 -0.276708
8.09 -0.354445
8.1 -0.433105
8.11 -0.510492
8.12 -0.584344
8.13 -0.653061
8.14 -0.715271
8.15 -0.769458
8.16 -0.815991
8.17 -0.85354
8.18 -0.883686
8.19 -0.906659
8.2 -0.923784
8.21 -0.936671
8.22 -0.946489
8.23 -0.955051
8.24 -0.963516
8.25 -0.972873
8.26 -0.983575
8.27 -0.995601
8.28 -1.00815
8.29 -1.01975
8.3 -1.02843
8.31 -1.0314
8.32 -1.02527
8.33 -1.00743
8.34 -0.972148
8.35 -0.918369
8.36 -0.840289
8.37 -0.736689
8.38 -0.605451
8.39 -0.443625
8.4 -0.254442
8.41 -0.034654
8.42 0.209404
8.43 0.476114
8.44 0.760142
8.45 1.05523
8.46 1.35522
8.47 1.65252
8.48 1.93891
8.49 2.20716
8.5 2.45025
8.51 2.65906
8.52 2.83188
8.53 2.95735
8.54 3.03804
8.55 3.06846
8.56 3.04834
8.57 2.98152
8.58 2.8646
8.59 2.70804
8.6 2.51195
8.61 2.28536
8.62 2.03432
8.63 1.76535
8.64 1.48701
8.65 1.2058
8.66 0.928868
8.67 0.662462
8.68 0.412281
8.69 0.181278
8.7 -0.0242477
8.71 -0.205723
8.72 -0.359005
8.73 -0.486064
8.74 -0.587641
8.75 -0.664163
8.76 -0.720561
8.77 -0.756811
8.78 -0.778734
8.79 -0.788479
8.8 -0.789714
8.81 -0.785776
8.82 -0.779205
8.83 -0.772666
8.84 -0.768175
8.85 -0.767115
8.86 -0.770397
8.87 -0.778833
8.88 -0.79191
8.89 -0.810034
8.9 -0.831943
8.91 -0.857121
8.92 -0.884512
8.93 -0.913069
8.94 -0.941815
8.95 -0.969855
8.96 -0.996298
8.97 -1.02061
8.98 -1.04237
8.99 -1.06115
9 -1.07721
9.01 -1.09021
9.02 -1.10077
9.03 -1.109
9.04 -1.11532
9.05 -1.12019
9.06 -1.12382
9.07 -1.12664
9.08 -1.12872
9.09 -1.13015
9.1 -1.13085
9.11 -1.13048
9.12 -1.12878
9.13 -1.12492
9.14 -1.11851
9.15 -1.10862
9.16 -1.09441
9.17 -1.07543
9.18 -1.05017
9.19 -1.01889
9.2 -0.980348
9.21 -0.934745
9.22 -0.882035
9.23 -0.822068
9.24 -0.756148
9.25 -0.684283
9.26 -0.608413
9.27 -0.529646
9.28 -0.44983
9.29 -0.370711
9.3 -0.294646
9.31 -0.22313
9.32 -0.158741
9.33 -0.102877
9.34 -0.0570213
9.35 -0.0231966
9.36 -0.000864358
9.37 0.00764155
9.38 0.00413661
9.39 -0.0117442
9.4 -0.0388547
9.41 -0.075208
9.42 -0.119996
9.43 -0.17007
9.44 -0.223763
9.45 -0.278377
9.46 -0.331777
9.47 -0.381489
9.48 -0.42621
9.49 -0.463436
9.5 -0.49303
9.51 -0.513852
9.52 -0.525826
9.53 -0.529853
9.54 -0.525822
9.55 -0.516032
9.56 -0.501359
9.57 -0.48398
9.58 -0.46562
9.59 -0.448278
9.6 -0.433401
9.61 -0.423044
9.62 -0.417805
9.63 -0.418828
9.64 -0.426522
9.65 -0.440464
9.66 -0.461063
9.67 -0.486714
9.68 -0.517048
9.69 -0.550546
9.7 -0.586076
9.71 -0.622415
9.72 -0.65847
9.73 -0.693161
9.74 -0.725964
9.75 -0.756311
9.76 -0.783991
9.77 -0.809177
9.78 -0.831699
9.79 -0.852121
9.8 -0.870339
9.81 -0.886489
9.82 -0.9003
9.83 -0.910873
9.84 -0.917539
9.85 -0.917824
9.86 -0.910329
9.87 -0.891876
9.88 -0.859087
9.89 -0.809756
9.9 -0.737463
9.91 -0.641935
9.92 -0.516806
9.93 -0.361023
9.94 -0.172509
9.95 0.0522571
9.96 0.309399
9.97 0.602888
9.98 0.92566
9.99 1.27607
10 1.64838
10.01 2.03538
10.02 2.43046
10.03 2.82451
10.04 3.20825
10.05 3.5728
10.06 3.90977
10.07 4.20785
10.08 4.46438
10.09 4.66541
10.1 4.81281
10.11 4.89946
10.12 4.9237
10.13 4.8897
10.14 4.79174
10.15 4.64223
10.16 4.44017
10.17 4.19593
10.18 3.91656
10.19 3.60907
10.2 3.28446
10.21 2.9496
10.22 2.61413
10.23 2.28536
10.24 1.97061
10.25 1.67406
10.26 1.40322
10.27 1.15742
10.28 0.941513
10.29 0.753941
10.3 0.594001
10.31 0.461509
10.32 0.351044
10.33 0.262576
10.34 0.189766
10.35 0.130129
10.36 0.0796605
10.37 0.0346784
10.38 -0.00753252
10.39 -0.0497726
10.4 -0.0940497
10.41 -0.141661
10.42 -0.193331
10.43 -0.249604
10.44 -0.309764
10.45 -0.373758
10.46 -0.440217
10.47 -0.50828
10.48 -0.576697
10.49 -0.644409
10.5 -0.710084
10.51 -0.773096
10.52 -0.832295
10.53 -0.887266
10.54 -0.93757
10.55 -0.982527
10.56 -1.02253
10.57 -1.05664
10.58 -1.08549
10.59 -1.10863
10.6 -1.12599
10.61 -1.13786
10.62 -1.14333
10.63 -1.14317
10.64 -1.13658
10.65 -1.1239
10.66 -1.10514
10.67 -1.08003
10.68 -1.04951
10.69 -1.01323
10.7 -0.972506
10.71 -0.927838
10.72 -0.880316
10.73 -0.831174
10.74 -0.781665
10.75 -0.733155
10.76 -0.687198
10.77 -0.64506
10.78 -0.607914
10.79 -0.577347
10.8 -0.553453
10.81 -0.538034
10.82 -0.530433
10.83 -0.53128
10.84 -0.540364
10.85 -0.556722
10.86 -0.580564
10.87 -0.609976
10.88 -0.644557
10.89 -0.682757
10.9 -0.723452
10.91 -0.765473
10.92 -0.80764
10.93 -0.848835
10.94 -0.888281
10.95 -0.925159
10.96 -0.958862
10.97 -0.989256
10.98 -1.01563
10.99 -1.03849
11 -1.05747
11.01 -1.07303
11.02 -1.08543
11.03 -1.09486
11.04 -1.102
11.05 -1.10697
11.06 -1.1105
11.07 -1.11291
11.08 -1.11469
11.09 -1.11626
11.1 -1.11803
11.11 -1.12032
11.12 -1.12346
11.13 -1.1276
11.14 -1.1328
11.15 -1.13904
11.16 -1.14599
11.17 -1.15324
11.18 -1.16005
11.19 -1.16546
11.2 -1.16815
11.21 -1.16696
11.22 -1.15935
11.23 -1.14437
11.24 -1.11895
11.25 -1.08147
11.26 -1.02997
11.27 -0.961189
11.28 -0.875432
11.29 -0.768407
11.3 -0.641743
11.31 -0.493758
11.32 -0.324747
11.33 -0.137065
11.34 0.0698521
11.35 0.290808
11.36 0.524082
11.37 0.76464
11.38 1.00816
11.39 1.24915
11.4 1.483
11.41 1.70257
11.42 1.90423
11.43 2.08199
11.44 2.23095
11.45 2.34969
11.46 2.43061
11.47 2.47719
11.48 2.48437
11.49 2.4549
11.5 2.39017
11.51 2.29042
11.52 2.16263
11.53 2.00693
11.54 1.83145
11.55 1.6398
11.56 1.43776
11.57 1.23078
11.58 1.02397
11.59 0.821746
11.6 0.628795
11.61 0.448055
11.62 0.28184
11.63 0.13308
11.64 0.000590505
11.65 -0.112997
11.66 -0.210664
11.67 -0.292623
11.68 -0.360799
11.69 -0.418075
11.7 -0.465576
11.71 -0.506961
11.72 -0.543806
11.73 -0.57854
11.74 -0.612761
11.75 -0.647887
11.76 -0.684576
11.77 -0.723445
11.78 -0.764072
11.79 -0.805979
11.8 -0.84806
11.81 -0.889091
11.82 -0.927078
11.83 -0.960751
11.84 -0.987708
11.85 -1.00645
11.86 -1.01543
11.87 -1.01224
11.88 -0.99712
11.89 -0.967104
11.9 -0.923374
11.91 -0.864807
11.92 -0.791518
11.93 -0.705015
11.94 -0.604445
11.95 -0.493018
11.96 -0.371059
11.97 -0.241223
11.98 -0.105561
11.99 0.0336689
12 0.173743
12.01 0.311881
12.02 0.445625
12.03 0.572161
12.04 0.688709
12.05 0.793853
12.06 0.883526
12.07 0.958185
12.08 1.01456
12.09 1.0527
12.1 1.07222
12.11 1.07173
12.12 1.05394
12.13 1.01718
12.14 0.965181
12.15 0.898734
12.16 0.820191
12.17 0.732629
12.18 0.637784
12.19 0.539296
12.2 0.439449
12.21 0.340983
12.22 0.245997
12.23 0.156909
12.24 0.0744311
12.25 0.000750334
12.26 -0.0646451
12.27 -0.121194
12.28 -0.169336
12.29 -0.210436
12.3 -0.244852
12.31 -0.274932
12.32 -0.301783
12.33 -0.327313
12.34 -0.352958
12.35 -0.380237
12.36 -0.40992
12.37 -0.443123
12.38 -0.479658
12.39 -0.519511
12.4 -0.561941
12.41 -0.605753
