# xPDFsuite Configuration #
[PDF]
wavelength = 0.1432
dataformat = twotheta
inputfile = 1_1Pd_CeO2_cycle-00287.chi
backgroundfile = background-00000.chi
mode = xray
bgscale = 1.007
composition = CeO2
outputtype = gr
qmaxinst = 28.8974762299
qmin = 0.5
qmax = 27.9
rmax = 50.0
rmin = 0.0
rstep = 0.01
rpoly = 1.8657

[Misc]
inputdir = G:/SankarDec16/1Pd/Chi
savedir = D:/DATA/APS_CeO2/1Pd
backgroundfilefull = G:/SankarDec16/Background/background-00000.chi

#### start data
#S 1
#L r($\AA$)  G($\AA^{-2}$)
0 0
0.01 -0.00525465
0.02 -0.0101129
0.03 -0.0141668
0.04 -0.0171089
0.05 -0.0187684
0.06 -0.0188707
0.07 -0.0175991
0.08 -0.0148659
0.09 -0.0110208
0.1 -0.00630625
0.11 -0.00109276
0.12 0.00421598
0.13 0.00916663
0.14 0.0134389
0.15 0.0166403
0.16 0.0185414
0.17 0.0190513
0.18 0.0179838
0.19 0.0156091
0.2 0.0119393
0.21 0.00738265
0.22 0.00224101
0.23 -0.00306929
0.24 -0.00816869
0.25 -0.0125688
0.26 -0.0160409
0.27 -0.018227
0.28 -0.0189871
0.29 -0.0183145
0.3 -0.0161208
0.31 -0.0127502
0.32 -0.00831396
0.33 -0.00325942
0.34 0.00206659
0.35 0.0072219
0.36 0.0118696
0.37 0.0155101
0.38 0.0180171
0.39 0.0190851
0.4 0.01867
0.41 0.0168504
0.42 0.0136401
0.43 0.00944061
0.44 0.00445768
0.45 -0.000843905
0.46 -0.00608928
0.47 -0.0108315
0.48 -0.0147931
0.49 -0.0174873
0.5 -0.018897
0.51 -0.0187841
0.52 -0.0172031
0.53 -0.0143143
0.54 -0.0102335
0.55 -0.00540067
0.56 -0.00010592
0.57 0.00519064
0.58 0.0101044
0.59 0.0142053
0.6 0.0172889
0.61 0.0189053
0.62 0.0191478
0.63 0.0178576
0.64 0.0151858
0.65 0.0113668
0.66 0.00661372
0.67 0.00138334
0.68 -0.00396343
0.69 -0.00899329
0.7 -0.0133308
0.71 -0.0165831
0.72 -0.0186295
0.73 -0.0190784
0.74 -0.018129
0.75 -0.0157096
0.76 -0.01206
0.77 -0.00747707
0.78 -0.00225962
0.79 0.00314126
0.8 0.00831351
0.81 0.0128724
0.82 0.0164715
0.83 0.0187762
0.84 0.0197554
0.85 0.0190976
0.86 0.0170964
0.87 0.0137708
0.88 0.00943573
0.89 0.00443255
0.9 -0.000872949
0.91 -0.00606354
0.92 -0.0107052
0.93 -0.0144888
0.94 -0.0171256
0.95 -0.01837
0.96 -0.0182896
0.97 -0.0166942
0.98 -0.0139595
0.99 -0.0102161
1 -0.00584868
1.01 -0.00123124
1.02 0.00320069
1.03 0.00709958
1.04 0.0100158
1.05 0.0117522
1.06 0.0121025
1.07 0.0109435
1.08 0.00847311
1.09 0.0046669
1.1 1.19991e-05
1.11 -0.00520031
1.12 -0.0104727
1.13 -0.0153637
1.14 -0.0192898
1.15 -0.0219631
1.16 -0.0228212
1.17 -0.0217618
1.18 -0.0186014
1.19 -0.0132702
1.2 -0.00611531
1.21 0.00285012
1.22 0.0129471
1.23 0.0237839
1.24 0.0347127
1.25 0.0451666
1.26 0.0543986
1.27 0.0620305
1.28 0.0673165
1.29 0.0700757
1.3 0.0699965
1.31 0.0668574
1.32 0.0609999
1.33 0.0521672
1.34 0.0411246
1.35 0.0280813
1.36 0.01366
1.37 -0.00155551
1.38 -0.0169625
1.39 -0.0319782
1.4 -0.0459571
1.41 -0.0584873
1.42 -0.0691442
1.43 -0.0775182
1.44 -0.083655
1.45 -0.0870513
1.46 -0.0881181
1.47 -0.0867115
1.48 -0.0830798
1.49 -0.0775117
1.5 -0.0700962
1.51 -0.0613369
1.52 -0.0513594
1.53 -0.0405762
1.54 -0.0292318
1.55 -0.017605
1.56 -0.00595212
1.57 0.00545154
1.58 0.0164135
1.59 0.0266676
1.6 0.0359959
1.61 0.0442351
1.62 0.0510245
1.63 0.0563579
1.64 0.0598339
1.65 0.0614548
1.66 0.0610542
1.67 0.0584795
1.68 0.0539419
1.69 0.0471781
1.7 0.038667
1.71 0.0284648
1.72 0.0169569
1.73 0.0045455
1.74 -0.00836738
1.75 -0.0212736
1.76 -0.0336623
1.77 -0.0451063
1.78 -0.0551948
1.79 -0.0635126
1.8 -0.0700357
1.81 -0.0743364
1.82 -0.0767806
1.83 -0.0773581
1.84 -0.0764502
1.85 -0.0744991
1.86 -0.071968
1.87 -0.0694571
1.88 -0.0675756
1.89 -0.0668254
1.9 -0.0676767
1.91 -0.0705802
1.92 -0.075514
1.93 -0.0828664
1.94 -0.0921233
1.95 -0.103131
1.96 -0.115282
1.97 -0.127919
1.98 -0.140205
1.99 -0.151386
2 -0.160393
2.01 -0.16657
2.02 -0.169149
2.03 -0.167338
2.04 -0.161204
2.05 -0.149757
2.06 -0.13379
2.07 -0.11308
2.08 -0.0882059
2.09 -0.0598671
2.1 -0.028479
2.11 0.00484884
2.12 0.0395674
2.13 0.0748085
2.14 0.110003
2.15 0.144622
2.16 0.178454
2.17 0.211234
2.18 0.243191
2.19 0.274482
2.2 0.305517
2.21 0.336707
2.22 0.36858
2.23 0.40142
2.24 0.435643
2.25 0.47121
2.26 0.508009
2.27 0.545614
2.28 0.583311
2.29 0.619976
2.3 0.654533
2.31 0.685371
2.32 0.710922
2.33 0.72997
2.34 0.740091
2.35 0.741195
2.36 0.730942
2.37 0.709645
2.38 0.676809
2.39 0.632266
2.4 0.57788
2.41 0.513393
2.42 0.441982
2.43 0.365029
2.44 0.285224
2.45 0.204984
2.46 0.12715
2.47 0.0536837
2.48 -0.012532
2.49 -0.0702991
2.5 -0.118184
2.51 -0.154966
2.52 -0.181621
2.53 -0.196897
2.54 -0.203445
2.55 -0.201874
2.56 -0.194396
2.57 -0.183187
2.58 -0.170368
2.59 -0.158205
2.6 -0.14891
2.61 -0.143978
2.62 -0.14471
2.63 -0.15219
2.64 -0.165946
2.65 -0.186701
2.66 -0.212616
2.67 -0.242945
2.68 -0.275861
2.69 -0.309613
2.7 -0.342173
2.71 -0.37202
2.72 -0.397131
2.73 -0.416662
2.74 -0.429742
2.75 -0.435794
2.76 -0.435738
2.77 -0.429377
2.78 -0.418816
2.79 -0.40519
2.8 -0.390513
2.81 -0.37657
2.82 -0.365559
2.83 -0.358668
2.84 -0.357871
2.85 -0.363564
2.86 -0.376255
2.87 -0.39603
2.88 -0.421513
2.89 -0.452254
2.9 -0.48582
2.91 -0.520521
2.92 -0.554005
2.93 -0.584347
2.94 -0.608909
2.95 -0.626847
2.96 -0.635949
2.97 -0.636275
2.98 -0.62756
2.99 -0.610069
3 -0.585755
3.01 -0.555424
3.02 -0.522085
3.03 -0.487841
3.04 -0.455444
3.05 -0.42706
3.06 -0.40565
3.07 -0.391982
3.08 -0.388395
3.09 -0.394596
3.1 -0.410676
3.11 -0.436108
3.12 -0.468609
3.13 -0.507066
3.14 -0.54821
3.15 -0.589701
3.16 -0.628666
3.17 -0.662959
3.18 -0.689665
3.19 -0.708318
3.2 -0.716912
3.21 -0.716209
3.22 -0.706641
3.23 -0.689416
3.24 -0.667173
3.25 -0.642005
3.26 -0.617204
3.27 -0.595736
3.28 -0.580592
3.29 -0.573757
3.3 -0.578343
3.31 -0.593948
3.32 -0.622357
3.33 -0.661795
3.34 -0.71103
3.35 -0.767814
3.36 -0.828616
3.37 -0.890055
3.38 -0.948292
3.39 -0.999378
3.4 -1.03984
3.41 -1.06762
3.42 -1.0791
3.43 -1.07557
3.44 -1.05527
3.45 -1.02113
3.46 -0.975272
3.47 -0.921078
3.48 -0.863208
3.49 -0.806363
3.5 -0.755082
3.51 -0.714192
3.52 -0.687422
3.53 -0.676518
3.54 -0.684664
3.55 -0.708942
3.56 -0.749152
3.57 -0.799685
3.58 -0.855258
3.59 -0.907877
3.6 -0.950132
3.61 -0.969508
3.62 -0.959673
3.63 -0.908706
3.64 -0.808335
3.65 -0.654318
3.66 -0.434632
3.67 -0.155286
3.68 0.191757
3.69 0.597654
3.7 1.058
3.71 1.56527
3.72 2.1043
3.73 2.66473
3.74 3.22812
3.75 3.77849
3.76 4.29789
3.77 4.77268
3.78 5.18015
3.79 5.51634
3.8 5.75993
3.81 5.91033
3.82 5.96109
3.83 5.9064
3.84 5.75915
3.85 5.51007
3.86 5.18251
3.87 4.7806
3.88 4.32074
3.89 3.81947
3.9 3.29026
3.91 2.75195
3.92 2.21959
3.93 1.70743
3.94 1.22755
3.95 0.792735
3.96 0.405252
3.97 0.0788625
3.98 -0.192899
3.99 -0.405376
4 -0.562732
4.01 -0.671781
4.02 -0.734051
4.03 -0.762621
4.04 -0.761337
4.05 -0.741086
4.06 -0.708786
4.07 -0.671742
4.08 -0.635867
4.09 -0.606806
4.1 -0.586937
4.11 -0.578994
4.12 -0.583371
4.13 -0.598926
4.14 -0.625068
4.15 -0.658091
4.16 -0.695785
4.17 -0.734405
4.18 -0.770937
4.19 -0.801956
4.2 -0.825716
4.21 -0.838687
4.22 -0.841043
4.23 -0.831145
4.24 -0.809184
4.25 -0.776196
4.26 -0.732009
4.27 -0.679346
4.28 -0.618673
4.29 -0.552311
4.3 -0.4816
4.31 -0.407896
4.32 -0.332567
4.33 -0.25639
4.34 -0.180137
4.35 -0.104216
4.36 -0.0288903
4.37 0.0457396
4.38 0.119458
4.39 0.19222
4.4 0.263572
4.41 0.333108
4.42 0.400106
4.43 0.463366
4.44 0.5222
4.45 0.574288
4.46 0.619097
4.47 0.654491
4.48 0.679109
4.49 0.692321
4.5 0.691674
4.51 0.678421
4.52 0.650699
4.53 0.610023
4.54 0.55691
4.55 0.4922
4.56 0.418623
4.57 0.337001
4.58 0.250743
4.59 0.161794
4.6 0.0728214
4.61 -0.0140791
4.62 -0.0963029
4.63 -0.172832
4.64 -0.241521
4.65 -0.302122
4.66 -0.354136
4.67 -0.397251
4.68 -0.432851
4.69 -0.460648
4.7 -0.482874
4.71 -0.500312
4.72 -0.514546
4.73 -0.526954
4.74 -0.538712
4.75 -0.550858
4.76 -0.564227
4.77 -0.579185
4.78 -0.595897
4.79 -0.61429
4.8 -0.633841
4.81 -0.654087
4.82 -0.67423
4.83 -0.693525
4.84 -0.711208
4.85 -0.726782
4.86 -0.739451
4.87 -0.749331
4.88 -0.755979
4.89 -0.759815
4.9 -0.761121
4.91 -0.760354
4.92 -0.758306
4.93 -0.755561
4.94 -0.752921
4.95 -0.751036
4.96 -0.750485
4.97 -0.751576
4.98 -0.754776
4.99 -0.759864
5 -0.766974
5.01 -0.775671
5.02 -0.785634
5.03 -0.796435
5.04 -0.807572
5.05 -0.818609
5.06 -0.829198
5.07 -0.839041
5.08 -0.847984
5.09 -0.85603
5.1 -0.863124
5.11 -0.869489
5.12 -0.875142
5.13 -0.880195
5.14 -0.884579
5.15 -0.887995
5.16 -0.890122
5.17 -0.889908
5.18 -0.886656
5.19 -0.878831
5.2 -0.864853
5.21 -0.843474
5.22 -0.811754
5.23 -0.769384
5.24 -0.713256
5.25 -0.643093
5.26 -0.557819
5.27 -0.456299
5.28 -0.340497
5.29 -0.20917
5.3 -0.0662603
5.31 0.0867412
5.32 0.246126
5.33 0.408047
5.34 0.567824
5.35 0.721317
5.36 0.862688
5.37 0.988053
5.38 1.0931
5.39 1.17263
5.4 1.22659
5.41 1.2483
5.42 1.24118
5.43 1.20277
5.44 1.13489
5.45 1.04108
5.46 0.921885
5.47 0.784526
5.48 0.63151
5.49 0.469386
5.5 0.302946
5.51 0.137741
5.52 -0.0219876
5.53 -0.170435
5.54 -0.305601
5.55 -0.423699
5.56 -0.523091
5.57 -0.603985
5.58 -0.664264
5.59 -0.707583
5.6 -0.733466
5.61 -0.74562
5.62 -0.746273
5.63 -0.737921
5.64 -0.723964
5.65 -0.706289
5.66 -0.687507
5.67 -0.669082
5.68 -0.652125
5.69 -0.636956
5.7 -0.62362
5.71 -0.611236
5.72 -0.59879
5.73 -0.584866
5.74 -0.568044
5.75 -0.54656
5.76 -0.51977
5.77 -0.485738
5.78 -0.444997
5.79 -0.397036
5.8 -0.34265
5.81 -0.283244
5.82 -0.220143
5.83 -0.155848
5.84 -0.0927299
5.85 -0.0333742
5.86 0.0197626
5.87 0.0636962
5.88 0.0975276
5.89 0.117736
5.9 0.125144
5.91 0.118253
5.92 0.0975333
5.93 0.064481
5.94 0.0192173
5.95 -0.0348179
5.96 -0.096419
5.97 -0.162433
5.98 -0.230575
5.99 -0.298284
6 -0.363675
6.01 -0.424367
6.02 -0.479724
6.03 -0.528558
6.04 -0.570732
6.05 -0.606858
6.06 -0.637045
6.07 -0.663134
6.08 -0.685991
6.09 -0.707375
6.1 -0.728594
6.11 -0.751032
6.12 -0.775443
6.13 -0.802843
6.14 -0.833003
6.15 -0.8659
6.16 -0.900761
6.17 -0.936546
6.18 -0.971876
6.19 -1.00543
6.2 -1.03541
6.21 -1.06068
6.22 -1.08012
6.23 -1.09254
6.24 -1.09837
6.25 -1.09667
6.26 -1.08906
6.27 -1.07608
6.28 -1.05932
6.29 -1.04046
6.3 -1.02114
6.31 -1.00293
6.32 -0.987276
6.33 -0.974765
6.34 -0.965538
6.35 -0.959005
6.36 -0.953485
6.37 -0.946369
6.38 -0.934551
6.39 -0.913649
6.4 -0.878718
6.41 -0.825926
6.42 -0.747149
6.43 -0.641166
6.44 -0.499802
6.45 -0.322048
6.46 -0.105186
6.47 0.153971
6.48 0.450379
6.49 0.787555
6.5 1.15578
6.51 1.55183
6.52 1.96709
6.53 2.39238
6.54 2.81738
6.55 3.23185
6.56 3.62277
6.57 3.98047
6.58 4.29481
6.59 4.55302
6.6 4.75392
6.61 4.88106
6.62 4.9404
6.63 4.92459
6.64 4.83521
6.65 4.67881
6.66 4.45269
6.67 4.17281
6.68 3.84108
6.69 3.47168
6.7 3.07416
6.71 2.65935
6.72 2.23905
6.73 1.82422
6.74 1.42377
6.75 1.04708
6.76 0.701401
6.77 0.389925
6.78 0.121121
6.79 -0.108934
6.8 -0.294921
6.81 -0.441458
6.82 -0.550449
6.83 -0.62381
6.84 -0.669214
6.85 -0.687367
6.86 -0.686818
6.87 -0.670694
6.88 -0.644041
6.89 -0.611043
6.9 -0.574729
6.91 -0.538049
6.92 -0.502949
6.93 -0.470595
6.94 -0.441604
6.95 -0.416314
6.96 -0.394127
6.97 -0.375058
6.98 -0.358167
6.99 -0.343176
7 -0.329716
7.01 -0.317617
7.02 -0.307255
7.03 -0.298826
7.04 -0.293311
7.05 -0.291414
7.06 -0.294099
7.07 -0.302727
7.08 -0.317471
7.09 -0.340126
7.1 -0.370032
7.11 -0.407813
7.12 -0.452978
7.13 -0.504409
7.14 -0.561551
7.15 -0.622177
7.16 -0.684864
7.17 -0.747406
7.18 -0.807912
7.19 -0.864099
7.2 -0.91485
7.21 -0.957647
7.22 -0.992525
7.23 -1.01831
7.24 -1.03503
7.25 -1.04362
7.26 -1.04409
7.27 -1.03879
7.28 -1.02866
7.29 -1.01595
7.3 -1.00236
7.31 -0.989811
7.32 -0.979553
7.33 -0.973267
7.34 -0.9711
7.35 -0.973508
7.36 -0.97995
7.37 -0.989267
7.38 -1.00001
7.39 -1.01003
7.4 -1.01668
7.41 -1.01745
7.42 -1.00969
7.43 -0.989951
7.44 -0.957336
7.45 -0.90745
7.46 -0.841121
7.47 -0.756249
7.48 -0.652942
7.49 -0.532858
7.5 -0.395508
7.51 -0.245306
7.52 -0.0835449
7.53 0.0853924
7.54 0.258027
7.55 0.430047
7.56 0.597772
7.57 0.755924
7.58 0.901943
7.59 1.03152
7.6 1.14164
7.61 1.23127
7.62 1.29585
7.63 1.33784
7.64 1.35402
7.65 1.3467
7.66 1.31664
7.67 1.2643
7.68 1.19395
7.69 1.10534
7.7 1.0036
7.71 0.890471
7.72 0.769289
7.73 0.643192
7.74 0.514846
7.75 0.387166
7.76 0.26289
7.77 0.144206
7.78 0.0331046
7.79 -0.0679515
7.8 -0.158657
7.81 -0.235914
7.82 -0.30055
7.83 -0.350954
7.84 -0.386906
7.85 -0.409232
7.86 -0.416524
7.87 -0.411432
7.88 -0.39337
7.89 -0.364623
7.9 -0.326589
7.91 -0.280817
7.92 -0.230048
7.93 -0.176029
7.94 -0.121597
7.95 -0.0690931
7.96 -0.0211127
7.97 0.0205467
7.98 0.0527123
7.99 0.075016
8 0.084793
8.01 0.0820105
8.02 0.0662022
8.03 0.0367508
8.04 -0.00428351
8.05 -0.0575205
8.06 -0.119776
8.07 -0.18987
8.08 -0.265341
8.09 -0.343751
8.1 -0.422765
8.11 -0.500137
8.12 -0.573535
8.13 -0.641445
8.14 -0.702604
8.15 -0.755677
8.16 -0.801228
8.17 -0.838199
8.18 -0.868324
8.19 -0.892042
8.2 -0.910792
8.21 -0.926165
8.22 -0.939389
8.23 -0.952022
8.24 -0.965083
8.25 -0.979228
8.26 -0.994602
8.27 -1.01078
8.28 -1.02672
8.29 -1.04044
8.3 -1.04993
8.31 -1.05211
8.32 -1.04357
8.33 -1.02184
8.34 -0.981204
8.35 -0.921092
8.36 -0.835969
8.37 -0.725143
8.38 -0.586956
8.39 -0.419029
8.4 -0.224927
8.41 -0.0020438
8.42 0.24322
8.43 0.508926
8.44 0.789711
8.45 1.07954
8.46 1.37227
8.47 1.66094
8.48 1.93765
8.49 2.19583
8.5 2.42902
8.51 2.62876
8.52 2.79376
8.53 2.91342
8.54 2.99041
8.55 3.01965
8.56 3.00092
8.57 2.93786
8.58 2.82713
8.59 2.67852
8.6 2.49187
8.61 2.27553
8.62 2.03501
8.63 1.77617
8.64 1.5071
8.65 1.23359
8.66 0.962608
8.67 0.700008
8.68 0.451356
8.69 0.219754
8.7 0.0113843
8.71 -0.174612
8.72 -0.333922
8.73 -0.467947
8.74 -0.576983
8.75 -0.660945
8.76 -0.72435
8.77 -0.766661
8.78 -0.793508
8.79 -0.80675
8.8 -0.809956
8.81 -0.806567
8.82 -0.799067
8.83 -0.790519
8.84 -0.783086
8.85 -0.77855
8.86 -0.778131
8.87 -0.782988
8.88 -0.792857
8.89 -0.808463
8.9 -0.828612
8.91 -0.852917
8.92 -0.880309
8.93 -0.909613
8.94 -0.939777
8.95 -0.969625
8.96 -0.998077
8.97 -1.02434
8.98 -1.04778
8.99 -1.06776
9 -1.08445
9.01 -1.09736
9.02 -1.10718
9.03 -1.11406
9.04 -1.11854
9.05 -1.12127
9.06 -1.12264
9.07 -1.12331
9.08 -1.12357
9.09 -1.12367
9.1 -1.12365
9.11 -1.12326
9.12 -1.12218
9.13 -1.1196
9.14 -1.1149
9.15 -1.107
9.16 -1.0948
9.17 -1.07763
9.18 -1.05367
9.19 -1.02305
9.2 -0.984249
9.21 -0.937437
9.22 -0.882541
9.23 -0.819423
9.24 -0.749632
9.25 -0.67332
9.26 -0.592804
9.27 -0.509514
9.28 -0.425699
9.29 -0.343403
9.3 -0.265471
9.31 -0.193473
9.32 -0.130351
9.33 -0.0774638
9.34 -0.0362685
9.35 -0.00871822
9.36 0.00614613
9.37 0.00620877
9.38 -0.00614147
9.39 -0.0308172
9.4 -0.0661109
9.41 -0.109621
9.42 -0.159882
9.43 -0.213625
9.44 -0.268685
9.45 -0.322383
9.46 -0.372579
9.47 -0.416823
9.48 -0.454317
9.49 -0.48272
9.5 -0.502596
9.51 -0.51328
9.52 -0.515331
9.53 -0.510156
9.54 -0.498348
9.55 -0.482433
9.56 -0.46384
9.57 -0.444811
9.58 -0.427132
9.59 -0.412854
9.6 -0.402957
9.61 -0.399415
9.62 -0.402142
9.63 -0.411865
9.64 -0.428387
9.65 -0.450781
9.66 -0.478815
9.67 -0.510603
9.68 -0.545255
9.69 -0.581137
9.7 -0.61702
9.71 -0.651589
9.72 -0.68413
9.73 -0.713586
9.74 -0.740011
9.75 -0.76317
9.76 -0.783353
9.77 -0.801168
9.78 -0.816956
9.79 -0.831551
9.8 -0.845267
9.81 -0.85836
9.82 -0.870652
9.83 -0.881332
9.84 -0.889453
9.85 -0.892545
9.86 -0.888773
9.87 -0.874729
9.88 -0.846679
9.89 -0.802105
9.9 -0.73425
9.91 -0.642651
9.92 -0.520689
9.93 -0.367244
9.94 -0.180205
9.95 0.0439616
9.96 0.301192
9.97 0.595395
9.98 0.919237
9.99 1.2709
10 1.64443
10.01 2.03243
10.02 2.42811
10.03 2.82232
10.04 3.20566
10.05 3.56931
10.06 3.90492
10.07 4.20128
10.08 4.45589
10.09 4.65495
10.1 4.80052
10.11 4.88561
10.12 4.90872
10.13 4.87406
10.14 4.77605
10.15 4.62701
10.16 4.42597
10.17 4.18316
10.18 3.90551
10.19 3.5999
10.2 3.27716
10.21 2.94402
10.22 2.60998
10.23 2.28228
10.24 1.96817
10.25 1.67185
10.26 1.40083
10.27 1.1546
10.28 0.938086
10.29 0.749929
10.3 0.589573
10.31 0.457031
10.32 0.346971
10.33 0.259556
10.34 0.188425
10.35 0.131139
10.36 0.0836251
10.37 0.0420523
10.38 0.00356454
10.39 -0.0348958
10.4 -0.0755895
10.41 -0.120079
10.42 -0.169328
10.43 -0.224182
10.44 -0.283977
10.45 -0.348959
10.46 -0.417627
10.47 -0.48916
10.48 -0.562163
10.49 -0.635315
10.5 -0.70708
10.51 -0.776423
10.52 -0.841849
10.53 -0.90256
10.54 -0.957787
10.55 -1.00644
10.56 -1.04883
10.57 -1.08362
10.58 -1.11158
10.59 -1.13219
10.6 -1.14553
10.61 -1.15218
10.62 -1.15144
10.63 -1.14458
10.64 -1.13114
10.65 -1.11191
10.66 -1.08728
10.67 -1.05745
10.68 -1.02349
10.69 -0.985457
10.7 -0.944603
10.71 -0.901513
10.72 -0.857162
10.73 -0.812496
10.74 -0.768617
10.75 -0.726389
10.76 -0.687042
10.77 -0.651393
10.78 -0.620251
10.79 -0.594773
10.8 -0.57489
10.81 -0.562003
10.82 -0.555522
10.83 -0.555968
10.84 -0.563226
10.85 -0.576582
10.86 -0.596373
10.87 -0.621125
10.88 -0.650714
10.89 -0.683981
10.9 -0.720114
10.91 -0.758299
10.92 -0.797492
10.93 -0.836889
10.94 -0.875647
10.95 -0.913008
10.96 -0.948256
10.97 -0.98103
10.98 -1.01046
10.99 -1.0367
11 -1.0591
11.01 -1.07781
11.02 -1.09282
11.03 -1.10401
11.04 -1.11202
11.05 -1.1167
11.06 -1.11889
11.07 -1.11891
11.08 -1.11738
11.09 -1.11497
11.1 -1.11228
11.11 -1.10995
11.12 -1.10863
11.13 -1.10873
11.14 -1.11059
11.15 -1.11447
11.16 -1.12006
11.17 -1.12725
11.18 -1.13514
11.19 -1.14281
11.2 -1.1488
11.21 -1.15172
11.22 -1.14891
11.23 -1.13907
11.24 -1.11889
11.25 -1.08649
11.26 -1.03966
11.27 -0.974905
11.28 -0.892442
11.29 -0.787745
11.3 -0.662511
11.31 -0.515003
11.32 -0.345578
11.33 -0.156741
11.34 0.0520207
11.35 0.27526
11.36 0.511137
11.37 0.75442
11.38 1.00064
11.39 1.24416
11.4 1.48029
11.41 1.70175
11.42 1.90495
11.43 2.08384
11.44 2.23357
11.45 2.35277
11.46 2.43386
11.47 2.48044
11.48 2.48749
11.49 2.45785
11.5 2.39294
11.51 2.29305
11.52 2.16517
11.53 2.00944
11.54 1.83395
11.55 1.64232
11.56 1.44024
11.57 1.23316
11.58 1.02611
11.59 0.823501
11.6 0.629978
11.61 0.448482
11.62 0.281334
11.63 0.13148
11.64 -0.00221092
11.65 -0.117064
11.66 -0.215988
11.67 -0.29913
11.68 -0.368338
11.69 -0.426447
11.7 -0.47449
11.71 -0.516121
11.72 -0.55285
11.73 -0.587115
11.74 -0.620516
11.75 -0.654468
11.76 -0.689698
11.77 -0.726827
11.78 -0.765523
11.79 -0.805351
11.8 -0.845274
11.81 -0.88413
11.82 -0.919995
11.83 -0.951648
11.84 -0.976753
11.85 -0.993854
11.86 -1.00145
11.87 -0.997193
11.88 -0.981312
11.89 -0.950934
11.9 -0.907217
11.91 -0.84908
11.92 -0.776651
11.93 -0.691411
11.94 -0.592553
11.95 -0.483204
11.96 -0.363692
11.97 -0.236593
11.98 -0.103889
11.99 0.0322446
12 0.169193
12.01 0.304299
12.02 0.435215
12.03 0.559255
12.04 0.673765
12.05 0.77739
12.06 0.866231
12.07 0.9407
12.08 0.997625
12.09 1.037
12.1 1.05838
12.11 1.06034
12.12 1.04539
12.13 1.01178
12.14 0.963027
12.15 0.899761
12.16 0.82415
12.17 0.739146
12.18 0.646281
12.19 0.549183
12.2 0.450014
12.21 0.35155
12.22 0.255934
12.23 0.165638
12.24 0.0815577
12.25 0.00599454
12.26 -0.0613515
12.27 -0.11975
12.28 -0.169455
12.29 -0.211723
12.3 -0.246734
12.31 -0.276865
12.32 -0.303158
12.33 -0.327622
12.34 -0.351805
12.35 -0.377381
12.36 -0.405332
12.37 -0.437016
12.38 -0.472447
12.39 -0.511835
12.4 -0.554627
