# xPDFsuite Configuration #
[PDF]
wavelength = 0.1432
dataformat = twotheta
inputfile = 1_1Pd_CeO2_cycle-00484.chi
backgroundfile = background-00000.chi
mode = xray
bgscale = 1.007
composition = CeO2
outputtype = gr
qmaxinst = 28.8974762299
qmin = 0.5
qmax = 27.9
rmax = 50.0
rmin = 0.0
rstep = 0.01
rpoly = 1.8657

[Misc]
inputdir = G:/SankarDec16/1Pd/Chi
savedir = D:/DATA/APS_CeO2/1Pd
backgroundfilefull = G:/SankarDec16/Background/background-00000.chi

#### start data
#S 1
#L r($\AA$)  G($\AA^{-2}$)
0 0
0.01 -0.00541669
0.02 -0.0104254
0.03 -0.0146059
0.04 -0.0176418
0.05 -0.019357
0.06 -0.0194684
0.07 -0.0181646
0.08 -0.0153546
0.09 -0.011398
0.1 -0.00654393
0.11 -0.00117336
0.12 0.00429805
0.13 0.00940412
0.14 0.0138144
0.15 0.0171246
0.16 0.0190978
0.17 0.0196394
0.18 0.0185565
0.19 0.0161262
0.2 0.0123594
0.21 0.00767563
0.22 0.00238469
0.23 -0.00308567
0.24 -0.0083443
0.25 -0.0128891
0.26 -0.016483
0.27 -0.0187569
0.28 -0.0195648
0.29 -0.0188983
0.3 -0.0166641
0.31 -0.0132148
0.32 -0.00866294
0.33 -0.0034678
0.34 0.00201471
0.35 0.0073302
0.36 0.0121309
0.37 0.0159027
0.38 0.0185134
0.39 0.0196467
0.4 0.0192548
0.41 0.0174162
0.42 0.0141416
0.43 0.00984288
0.44 0.00472855
0.45 -0.000723682
0.46 -0.00612904
0.47 -0.0110279
0.48 -0.0151327
0.49 -0.0179423
0.5 -0.0194353
0.51 -0.0193642
0.52 -0.0177816
0.53 -0.0148493
0.54 -0.0106825
0.55 -0.00573224
0.56 -0.000293541
0.57 0.00516016
0.58 0.0102337
0.59 0.0144841
0.6 0.0176982
0.61 0.0194115
0.62 0.0197152
0.63 0.0184426
0.64 0.0157445
0.65 0.0118589
0.66 0.00700001
0.67 0.00163689
0.68 -0.00386282
0.69 -0.00905232
0.7 -0.0135451
0.71 -0.0169354
0.72 -0.0190948
0.73 -0.0196175
0.74 -0.0187027
0.75 -0.0162719
0.76 -0.0125668
0.77 -0.00788894
0.78 -0.00254056
0.79 0.0030142
0.8 0.00835478
0.81 0.0130826
0.82 0.0168396
0.83 0.0192778
0.84 0.0203591
0.85 0.0197571
0.86 0.017767
0.87 0.0144006
0.88 0.00997532
0.89 0.00483772
0.9 -0.000643666
0.91 -0.00603804
0.92 -0.0109041
0.93 -0.0149191
0.94 -0.0177832
0.95 -0.0192387
0.96 -0.0193457
0.97 -0.0179005
0.98 -0.0152781
0.99 -0.0116014
1 -0.00725452
1.01 -0.00261309
1.02 0.0018902
1.03 0.00589932
1.04 0.00896672
1.05 0.0108884
1.06 0.0114566
1.07 0.0105476
1.08 0.00835572
1.09 0.0048623
1.1 0.000550967
1.11 -0.00428171
1.12 -0.00913729
1.13 -0.0135746
1.14 -0.0170068
1.15 -0.0191541
1.16 -0.0194566
1.17 -0.0178259
1.18 -0.0140924
1.19 -0.00820825
1.2 -0.000540395
1.21 0.00885845
1.22 0.0192903
1.23 0.0303211
1.24 0.0412723
1.25 0.051555
1.26 0.0603715
1.27 0.0673551
1.28 0.0717142
1.29 0.0732902
1.3 0.0717718
1.31 0.0669503
1.32 0.0592198
1.33 0.0483409
1.34 0.0351589
1.35 0.0199367
1.36 0.00337452
1.37 -0.0138762
1.38 -0.0311144
1.39 -0.0477132
1.4 -0.0629192
1.41 -0.0762902
1.42 -0.0873446
1.43 -0.0956183
1.44 -0.10119
1.45 -0.103473
1.46 -0.102976
1.47 -0.099544
1.48 -0.0934927
1.49 -0.0851844
1.5 -0.0747609
1.51 -0.0628396
1.52 -0.049621
1.53 -0.0356199
1.54 -0.0211672
1.55 -0.00664066
1.56 0.00765424
1.57 0.0213197
1.58 0.0341652
1.59 0.0458463
1.6 0.0561283
1.61 0.0648544
1.62 0.0716137
1.63 0.0764779
1.64 0.0790097
1.65 0.0792883
1.66 0.0771741
1.67 0.0725519
1.68 0.0657112
1.69 0.0564053
1.7 0.0452025
1.71 0.0321989
1.72 0.0178431
1.73 0.00259035
1.74 -0.0130931
1.75 -0.0286563
1.76 -0.0435142
1.77 -0.057201
1.78 -0.0692504
1.79 -0.0791818
1.8 -0.0869649
1.81 -0.0920645
1.82 -0.0948826
1.83 -0.0953441
1.84 -0.093832
1.85 -0.0908097
1.86 -0.0867096
1.87 -0.082227
1.88 -0.0779693
1.89 -0.0745428
1.9 -0.0724864
1.91 -0.0723456
1.92 -0.0742035
1.93 -0.0785659
1.94 -0.0850112
1.95 -0.0935024
1.96 -0.103519
1.97 -0.114457
1.98 -0.125582
1.99 -0.136098
2 -0.145
2.01 -0.151549
2.02 -0.154936
2.03 -0.154287
2.04 -0.149539
2.05 -0.139599
2.06 -0.125111
2.07 -0.105721
2.08 -0.0818803
2.09 -0.0542028
2.1 -0.0229741
2.11 0.0106745
2.12 0.0462665
2.13 0.0828473
2.14 0.119785
2.15 0.156433
2.16 0.192413
2.17 0.227266
2.18 0.261032
2.19 0.293637
2.2 0.325285
2.21 0.356248
2.22 0.386795
2.23 0.417251
2.24 0.44784
2.25 0.478651
2.26 0.509625
2.27 0.540463
2.28 0.570738
2.29 0.599529
2.3 0.626143
2.31 0.6493
2.32 0.667817
2.33 0.680773
2.34 0.686222
2.35 0.684157
2.36 0.672679
2.37 0.652077
2.38 0.621959
2.39 0.582196
2.4 0.534328
2.41 0.478146
2.42 0.416264
2.43 0.34982
2.44 0.281028
2.45 0.211874
2.46 0.144694
2.47 0.0810923
2.48 0.0234261
2.49 -0.0273378
2.5 -0.0700489
2.51 -0.103745
2.52 -0.129257
2.53 -0.145637
2.54 -0.155081
2.55 -0.158165
2.56 -0.156748
2.57 -0.152634
2.58 -0.147631
2.59 -0.143543
2.6 -0.142215
2.61 -0.144785
2.62 -0.152256
2.63 -0.165412
2.64 -0.183734
2.65 -0.207644
2.66 -0.235495
2.67 -0.266476
2.68 -0.298922
2.69 -0.331281
2.7 -0.36165
2.71 -0.388814
2.72 -0.410912
2.73 -0.427329
2.74 -0.437349
2.75 -0.440533
2.76 -0.437854
2.77 -0.429183
2.78 -0.416564
2.79 -0.401093
2.8 -0.384688
2.81 -0.369035
2.82 -0.356219
2.83 -0.347357
2.84 -0.344343
2.85 -0.347574
2.86 -0.357584
2.87 -0.374542
2.88 -0.397207
2.89 -0.425331
2.9 -0.456662
2.91 -0.489773
2.92 -0.522544
2.93 -0.553207
2.94 -0.579435
2.95 -0.60032
2.96 -0.613868
2.97 -0.619967
2.98 -0.61826
2.99 -0.60882
3 -0.593228
3.01 -0.571981
3.02 -0.547626
3.03 -0.521821
3.04 -0.496864
3.05 -0.47459
3.06 -0.457415
3.07 -0.446101
3.08 -0.442565
3.09 -0.446674
3.1 -0.458548
3.11 -0.477809
3.12 -0.502667
3.13 -0.532241
3.14 -0.563932
3.15 -0.595876
3.16 -0.625788
3.17 -0.651971
3.18 -0.67213
3.19 -0.685932
3.2 -0.69185
3.21 -0.690559
3.22 -0.682489
3.23 -0.668721
3.24 -0.651401
3.25 -0.632371
3.26 -0.614237
3.27 -0.599464
3.28 -0.590435
3.29 -0.588686
3.3 -0.59671
3.31 -0.614013
3.32 -0.641959
3.33 -0.678942
3.34 -0.723831
3.35 -0.774649
3.36 -0.828446
3.37 -0.882317
3.38 -0.933148
3.39 -0.977666
3.4 -1.01307
3.41 -1.03776
3.42 -1.04882
3.43 -1.04745
3.44 -1.03231
3.45 -1.00588
3.46 -0.969967
3.47 -0.927374
3.48 -0.881875
3.49 -0.83723
3.5 -0.796987
3.51 -0.764845
3.52 -0.743528
3.53 -0.73415
3.54 -0.738703
3.55 -0.754569
3.56 -0.780815
3.57 -0.812576
3.58 -0.845042
3.59 -0.871089
3.6 -0.884788
3.61 -0.875003
3.62 -0.837158
3.63 -0.761169
3.64 -0.640583
3.65 -0.472427
3.66 -0.246985
3.67 0.0297996
3.68 0.364109
3.69 0.747721
3.7 1.17628
3.71 1.6427
3.72 2.13388
3.73 2.64022
3.74 3.14623
3.75 3.63795
3.76 4.10017
3.77 4.52153
3.78 4.88257
3.79 5.18052
3.8 5.3972
3.81 5.53255
3.82 5.58128
3.83 5.53852
3.84 5.41553
3.85 5.20418
3.86 4.92449
3.87 4.57968
3.88 4.1835
3.89 3.74984
3.9 3.28954
3.91 2.81869
3.92 2.3494
3.93 1.89384
3.94 1.46207
3.95 1.06476
3.96 0.704327
3.97 0.392155
3.98 0.123658
3.99 -0.0969437
4 -0.272438
4.01 -0.407851
4.02 -0.503659
4.03 -0.570148
4.04 -0.609592
4.05 -0.630539
4.06 -0.638128
4.07 -0.637727
4.08 -0.634331
4.09 -0.631684
4.1 -0.632365
4.11 -0.638305
4.12 -0.650135
4.13 -0.667394
4.14 -0.689624
4.15 -0.714716
4.16 -0.741029
4.17 -0.766265
4.18 -0.788406
4.19 -0.805126
4.2 -0.815474
4.21 -0.816889
4.22 -0.809793
4.23 -0.793032
4.24 -0.76685
4.25 -0.732079
4.26 -0.688562
4.27 -0.638363
4.28 -0.581748
4.29 -0.520442
4.3 -0.455406
4.31 -0.387612
4.32 -0.318144
4.33 -0.247556
4.34 -0.176581
4.35 -0.105618
4.36 -0.0350504
4.37 0.0348607
4.38 0.103679
4.39 0.171198
4.4 0.236746
4.41 0.299861
4.42 0.359794
4.43 0.415412
4.44 0.46626
4.45 0.510293
4.46 0.54737
4.47 0.57582
4.48 0.594781
4.49 0.603995
4.5 0.601699
4.51 0.589171
4.52 0.565122
4.53 0.530935
4.54 0.48713
4.55 0.434444
4.56 0.374991
4.57 0.309369
4.58 0.240093
4.59 0.168504
4.6 0.0964477
4.61 0.0253627
4.62 -0.0430731
4.63 -0.108145
4.64 -0.168517
4.65 -0.224011
4.66 -0.27431
4.67 -0.31921
4.68 -0.359524
4.69 -0.395014
4.7 -0.426962
4.71 -0.455716
4.72 -0.482079
4.73 -0.506747
4.74 -0.530133
4.75 -0.552786
4.76 -0.574866
4.77 -0.596509
4.78 -0.617643
4.79 -0.638033
4.8 -0.657498
4.81 -0.6755
4.82 -0.691902
4.83 -0.706264
4.84 -0.718375
4.85 -0.728233
4.86 -0.735572
4.87 -0.740854
4.88 -0.744083
4.89 -0.745816
4.9 -0.746459
4.91 -0.746524
4.92 -0.746534
4.93 -0.747029
4.94 -0.748353
4.95 -0.750883
4.96 -0.754806
4.97 -0.76011
4.98 -0.766884
4.99 -0.774759
5 -0.783591
5.01 -0.792954
5.02 -0.802514
5.03 -0.811893
5.04 -0.820836
5.05 -0.829008
5.06 -0.83638
5.07 -0.842847
5.08 -0.848477
5.09 -0.853421
5.1 -0.857767
5.11 -0.861728
5.12 -0.865332
5.13 -0.868569
5.14 -0.871242
5.15 -0.872871
5.16 -0.872988
5.17 -0.870329
5.18 -0.864158
5.19 -0.852863
5.2 -0.834931
5.21 -0.809276
5.22 -0.773201
5.23 -0.726732
5.24 -0.667231
5.25 -0.594845
5.26 -0.508967
5.27 -0.409049
5.28 -0.297179
5.29 -0.172833
5.3 -0.03968
5.31 0.100569
5.32 0.24448
5.33 0.388704
5.34 0.528962
5.35 0.662069
5.36 0.783003
5.37 0.8889
5.38 0.976416
5.39 1.04154
5.4 1.08472
5.41 1.10074
5.42 1.09285
5.43 1.05935
5.44 1.00201
5.45 0.923836
5.46 0.825417
5.47 0.712533
5.48 0.58712
5.49 0.45424
5.5 0.317494
5.51 0.180973
5.52 0.047859
5.53 -0.0777237
5.54 -0.194243
5.55 -0.299003
5.56 -0.390776
5.57 -0.469618
5.58 -0.533897
5.59 -0.586018
5.6 -0.625359
5.61 -0.65425
5.62 -0.673914
5.63 -0.685607
5.64 -0.691515
5.65 -0.692188
5.66 -0.689436
5.67 -0.683737
5.68 -0.67565
5.69 -0.66544
5.7 -0.65269
5.71 -0.637385
5.72 -0.61863
5.73 -0.596078
5.74 -0.569139
5.75 -0.537098
5.76 -0.500277
5.77 -0.457919
5.78 -0.411147
5.79 -0.360276
5.8 -0.306497
5.81 -0.25118
5.82 -0.195948
5.83 -0.142452
5.84 -0.0928258
5.85 -0.0486281
5.86 -0.0114853
5.87 0.0166631
5.88 0.0357735
5.89 0.0435251
5.9 0.0411951
5.91 0.0280853
5.92 0.00500365
5.93 -0.0266408
5.94 -0.066404
5.95 -0.11173
5.96 -0.161574
5.97 -0.213769
5.98 -0.266771
5.99 -0.31892
6 -0.369143
6.01 -0.416003
6.02 -0.459327
6.03 -0.498546
6.04 -0.533793
6.05 -0.565617
6.06 -0.594312
6.07 -0.621059
6.08 -0.64654
6.09 -0.671789
6.1 -0.69757
6.11 -0.724639
6.12 -0.753255
6.13 -0.783867
6.14 -0.816085
6.15 -0.849658
6.16 -0.883872
6.17 -0.917935
6.18 -0.950724
6.19 -0.981447
6.2 -1.00881
6.21 -1.03219
6.22 -1.0509
6.23 -1.06424
6.24 -1.07266
6.25 -1.07552
6.26 -1.07404
6.27 -1.06852
6.28 -1.05991
6.29 -1.04922
6.3 -1.03716
6.31 -1.02458
6.32 -1.01183
6.33 -0.99895
6.34 -0.985491
6.35 -0.970282
6.36 -0.952067
6.37 -0.927878
6.38 -0.895816
6.39 -0.852152
6.4 -0.793314
6.41 -0.71686
6.42 -0.616563
6.43 -0.492521
6.44 -0.338739
6.45 -0.155345
6.46 0.0591204
6.47 0.306411
6.48 0.582057
6.49 0.888108
6.5 1.21679
6.51 1.56518
6.52 1.92647
6.53 2.29357
6.54 2.6583
6.55 3.01308
6.56 3.34773
6.57 3.65501
6.58 3.9271
6.59 4.15405
6.6 4.33503
6.61 4.45679
6.62 4.52389
6.63 4.53002
6.64 4.47585
6.65 4.36603
6.66 4.19726
6.67 3.98189
6.68 3.72013
6.69 3.42287
6.7 3.09707
6.71 2.75054
6.72 2.39318
6.73 2.03271
6.74 1.67749
6.75 1.33501
6.76 1.01202
6.77 0.712256
6.78 0.443322
6.79 0.203776
6.8 -0.000901934
6.81 -0.172937
6.82 -0.312613
6.83 -0.420017
6.84 -0.500785
6.85 -0.553901
6.86 -0.586485
6.87 -0.600351
6.88 -0.599651
6.89 -0.588328
6.9 -0.568691
6.91 -0.544518
6.92 -0.517669
6.93 -0.490306
6.94 -0.463743
6.95 -0.439117
6.96 -0.416765
6.97 -0.397396
6.98 -0.380683
6.99 -0.366783
7 -0.355539
7.01 -0.346716
7.02 -0.340591
7.03 -0.336881
7.04 -0.336117
7.05 -0.338417
7.06 -0.344206
7.07 -0.354201
7.08 -0.368379
7.09 -0.387904
7.1 -0.412362
7.11 -0.442286
7.12 -0.477528
7.13 -0.517508
7.14 -0.562183
7.15 -0.610146
7.16 -0.660751
7.17 -0.712541
7.18 -0.764293
7.19 -0.814475
7.2 -0.862047
7.21 -0.905188
7.22 -0.943445
7.23 -0.975643
7.24 -1.0013
7.25 -1.0206
7.26 -1.03288
7.27 -1.03953
7.28 -1.04055
7.29 -1.03734
7.3 -1.03088
7.31 -1.02225
7.32 -1.01268
7.33 -1.00311
7.34 -0.994276
7.35 -0.986688
7.36 -0.980444
7.37 -0.975218
7.38 -0.970372
7.39 -0.964849
7.4 -0.957112
7.41 -0.945589
7.42 -0.928525
7.43 -0.903472
7.44 -0.869597
7.45 -0.823525
7.46 -0.765455
7.47 -0.69343
7.48 -0.607006
7.49 -0.506993
7.5 -0.392322
7.51 -0.266118
7.52 -0.128744
7.53 0.0165498
7.54 0.167229
7.55 0.320078
7.56 0.471787
7.57 0.618214
7.58 0.756569
7.59 0.882978
7.6 0.994272
7.61 1.08892
7.62 1.16235
7.63 1.21596
7.64 1.24623
7.65 1.25458
7.66 1.24115
7.67 1.20581
7.68 1.15228
7.69 1.07984
7.7 0.993388
7.71 0.894437
7.72 0.786242
7.73 0.672031
7.74 0.554423
7.75 0.436606
7.76 0.321335
7.77 0.210969
7.78 0.107545
7.79 0.0134767
7.8 -0.0709361
7.81 -0.142896
7.82 -0.203339
7.83 -0.251021
7.84 -0.286054
7.85 -0.309443
7.86 -0.320356
7.87 -0.321298
7.88 -0.312101
7.89 -0.294826
7.9 -0.270741
7.91 -0.24119
7.92 -0.20825
7.93 -0.173266
7.94 -0.138212
7.95 -0.104703
7.96 -0.0744642
7.97 -0.0486487
7.98 -0.0293515
7.99 -0.0167595
8 -0.0126537
8.01 -0.0170704
8.02 -0.0303816
8.03 -0.0531319
8.04 -0.0840448
8.05 -0.123809
8.06 -0.17041
8.07 -0.223322
8.08 -0.281103
8.09 -0.342196
8.1 -0.405348
8.11 -0.468877
8.12 -0.531389
8.13 -0.591636
8.14 -0.648605
8.15 -0.701168
8.16 -0.749279
8.17 -0.791865
8.18 -0.829608
8.19 -0.86232
8.2 -0.890449
8.21 -0.914717
8.22 -0.935243
8.23 -0.953023
8.24 -0.968111
8.25 -0.980897
8.26 -0.991293
8.27 -0.998706
8.28 -1.00277
8.29 -1.00166
8.3 -0.994548
8.31 -0.979211
8.32 -0.953482
8.33 -0.915984
8.34 -0.862603
8.35 -0.793458
8.36 -0.704551
8.37 -0.595676
8.38 -0.465733
8.39 -0.313009
8.4 -0.140252
8.41 0.0545937
8.42 0.266733
8.43 0.494842
8.44 0.73499
8.45 0.982669
8.46 1.23339
8.47 1.48178
8.48 1.72185
8.49 1.94839
8.5 2.15625
8.51 2.33861
8.52 2.49408
8.53 2.61387
8.54 2.69954
8.55 2.74643
8.56 2.75361
8.57 2.72343
8.58 2.65209
8.59 2.54714
8.6 2.40734
8.61 2.23905
8.62 2.04625
8.63 1.83293
8.64 1.60608
8.65 1.36949
8.66 1.12974
8.67 0.891488
8.68 0.659833
8.69 0.438162
8.7 0.231883
8.71 0.0416198
8.72 -0.128408
8.73 -0.2782
8.74 -0.407081
8.75 -0.513894
8.76 -0.601713
8.77 -0.668895
8.78 -0.719864
8.79 -0.755434
8.8 -0.778255
8.81 -0.791334
8.82 -0.796234
8.83 -0.79638
8.84 -0.793495
8.85 -0.789905
8.86 -0.787221
8.87 -0.787071
8.88 -0.790142
8.89 -0.797744
8.9 -0.809648
8.91 -0.826208
8.92 -0.847119
8.93 -0.871667
8.94 -0.899544
8.95 -0.929494
8.96 -0.960829
8.97 -0.99245
8.98 -1.02348
8.99 -1.0529
9 -1.08017
9.01 -1.10421
9.02 -1.12492
9.03 -1.14171
9.04 -1.15438
9.05 -1.16315
9.06 -1.16756
9.07 -1.1684
9.08 -1.16546
9.09 -1.15931
9.1 -1.15022
9.11 -1.13832
9.12 -1.12412
9.13 -1.10741
9.14 -1.08857
9.15 -1.06738
9.16 -1.0437
9.17 -1.01749
9.18 -0.988074
9.19 -0.955581
9.2 -0.919296
9.21 -0.879193
9.22 -0.835084
9.23 -0.786656
9.24 -0.734479
9.25 -0.678279
9.26 -0.619087
9.27 -0.557391
9.28 -0.494231
9.29 -0.43072
9.3 -0.368289
9.31 -0.308127
9.32 -0.252013
9.33 -0.201173
9.34 -0.156878
9.35 -0.120869
9.36 -0.0931145
9.37 -0.0757181
9.38 -0.067718
9.39 -0.0698054
9.4 -0.0815349
9.41 -0.101653
9.42 -0.130082
9.43 -0.164391
9.44 -0.203702
9.45 -0.245873
9.46 -0.289249
9.47 -0.331936
9.48 -0.37251
9.49 -0.409007
9.5 -0.440758
9.51 -0.466584
9.52 -0.485969
9.53 -0.4992
9.54 -0.505726
9.55 -0.50704
9.56 -0.503409
9.57 -0.496356
9.58 -0.487077
9.59 -0.476974
9.6 -0.467388
9.61 -0.459841
9.62 -0.455212
9.63 -0.454594
9.64 -0.458681
9.65 -0.467512
9.66 -0.481824
9.67 -0.500669
9.68 -0.524155
9.69 -0.551291
9.7 -0.581345
9.71 -0.613512
9.72 -0.64673
9.73 -0.680175
9.74 -0.712993
9.75 -0.744439
9.76 -0.773845
9.77 -0.800871
9.78 -0.824688
9.79 -0.84535
9.8 -0.862029
9.81 -0.874468
9.82 -0.882066
9.83 -0.883574
9.84 -0.878683
9.85 -0.864844
9.86 -0.841519
9.87 -0.806159
9.88 -0.756455
9.89 -0.69123
9.9 -0.605633
9.91 -0.500257
9.92 -0.370442
9.93 -0.215953
9.94 -0.0355651
9.95 0.173094
9.96 0.406765
9.97 0.668331
9.98 0.952292
9.99 1.25739
10 1.5793
10.01 1.91261
10.02 2.25245
10.03 2.59194
10.04 2.92414
10.05 3.24226
10.06 3.53986
10.07 3.80814
10.08 4.04475
10.09 4.23858
10.1 4.39053
10.11 4.49442
10.12 4.54813
10.13 4.5542
10.14 4.50679
10.15 4.41514
10.16 4.27698
10.17 4.09982
10.18 3.88844
10.19 3.64718
10.2 3.38513
10.21 3.10627
10.22 2.81928
10.23 2.52966
10.24 2.24379
10.25 1.96611
10.26 1.70285
10.27 1.45538
10.28 1.22837
10.29 1.02221
10.3 0.837603
10.31 0.675866
10.32 0.533684
10.33 0.41255
10.34 0.307861
10.35 0.218547
10.36 0.141857
10.37 0.0746593
10.38 0.0154107
10.39 -0.0392072
10.4 -0.0907234
10.41 -0.141157
10.42 -0.191783
10.43 -0.243739
10.44 -0.297453
10.45 -0.353527
10.46 -0.411645
10.47 -0.471669
10.48 -0.533058
10.49 -0.595134
10.5 -0.657117
10.51 -0.718234
10.52 -0.777513
10.53 -0.834204
10.54 -0.887577
10.55 -0.9366
10.56 -0.981165
10.57 -1.01993
10.58 -1.05313
10.59 -1.08002
10.6 -1.10029
10.61 -1.11421
10.62 -1.1208
10.63 -1.1211
10.64 -1.11447
10.65 -1.10163
10.66 -1.08293
10.67 -1.05852
10.68 -1.0296
10.69 -0.996242
10.7 -0.95983
10.71 -0.921019
10.72 -0.880861
10.73 -0.840343
10.74 -0.800567
10.75 -0.762367
10.76 -0.726884
10.77 -0.694818
10.78 -0.666837
10.79 -0.64387
10.8 -0.625752
10.81 -0.613557
10.82 -0.60666
10.83 -0.605376
10.84 -0.609488
10.85 -0.618349
10.86 -0.632137
10.87 -0.649685
10.88 -0.670891
10.89 -0.69492
10.9 -0.721231
10.91 -0.749359
10.92 -0.778626
10.93 -0.808687
10.94 -0.839023
10.95 -0.869294
10.96 -0.899148
10.97 -0.928358
10.98 -0.956546
10.99 -0.983637
11 -1.00928
11.01 -1.03337
11.02 -1.05573
11.03 -1.07605
11.04 -1.09443
11.05 -1.11042
11.06 -1.12422
11.07 -1.13567
11.08 -1.14477
11.09 -1.15174
11.1 -1.15643
11.11 -1.15935
11.12 -1.16047
11.13 -1.16015
11.14 -1.15858
11.15 -1.15584
11.16 -1.1521
11.17 -1.14713
11.18 -1.14082
11.19 -1.13263
11.2 -1.12181
11.21 -1.10771
11.22 -1.08852
11.23 -1.06364
11.24 -1.03076
11.25 -0.988626
11.26 -0.93566
11.27 -0.869228
11.28 -0.789435
11.29 -0.692716
11.3 -0.580178
11.31 -0.45027
11.32 -0.302987
11.33 -0.140056
11.34 0.0393153
11.35 0.230997
11.36 0.433895
11.37 0.644006
11.38 0.857913
11.39 1.07131
11.4 1.28027
11.41 1.47911
11.42 1.66456
11.43 1.83162
11.44 1.976
11.45 2.09618
11.46 2.18556
11.47 2.24654
11.48 2.27445
11.49 2.27106
11.5 2.23702
11.51 2.17183
11.52 2.08104
11.53 1.96382
11.54 1.82689
11.55 1.67268
11.56 1.50566
11.57 1.3305
11.58 1.15079
11.59 0.970922
11.6 0.794483
11.61 0.624491
11.62 0.463262
11.63 0.313567
11.64 0.17529
11.65 0.0510014
11.66 -0.060878
11.67 -0.159909
11.68 -0.246945
11.69 -0.323836
11.7 -0.390682
11.71 -0.450305
11.72 -0.503327
11.73 -0.551618
11.74 -0.596335
11.75 -0.638351
11.76 -0.678634
11.77 -0.71738
11.78 -0.754885
11.79 -0.790883
11.8 -0.824865
11.81 -0.85634
11.82 -0.883926
11.83 -0.90718
11.84 -0.924437
11.85 -0.934868
11.86 -0.937483
11.87 -0.930586
11.88 -0.914441
11.89 -0.886797
11.9 -0.848521
11.91 -0.798649
11.92 -0.737108
11.93 -0.664916
11.94 -0.581106
11.95 -0.488051
11.96 -0.385677
11.97 -0.275904
11.98 -0.160179
11.99 -0.0400305
12 0.0822849
12.01 0.204819
12.02 0.325351
12.03 0.441611
12.04 0.551158
12.05 0.652523
12.06 0.742196
12.07 0.820061
12.08 0.883081
12.09 0.930832
12.1 0.962574
12.11 0.976629
12.12 0.974976
12.13 0.955604
12.14 0.921512
12.15 0.872989
12.16 0.81179
12.17 0.740578
12.18 0.660437
12.19 0.574888
12.2 0.485724
12.21 0.395636
12.22 0.30667
12.23 0.221111
12.24 0.140073
12.25 0.0656565
12.26 -0.00209353
12.27 -0.062383
12.28 -0.115234
12.29 -0.161581
12.3 -0.201403
12.31 -0.236667
12.32 -0.268122
12.33 -0.29743
12.34 -0.325854
12.35 -0.354709
12.36 -0.384877
12.37 -0.417356
12.38 -0.452229
