# xPDFsuite Configuration #
[PDF]
wavelength = 0.1432
dataformat = twotheta
inputfile = 1_1Pd_CeO2_cycle-00044.chi
backgroundfile = background-00000.chi
mode = xray
bgscale = 1.007
composition = CeO2
outputtype = gr
qmaxinst = 28.8974762299
qmin = 0.5
qmax = 27.9
rmax = 50.0
rmin = 0.0
rstep = 0.01
rpoly = 1.8657

[Misc]
inputdir = G:/SankarDec16/1Pd/Chi
savedir = D:/DATA/APS_CeO2/1Pd
backgroundfilefull = G:/SankarDec16/Background/background-00000.chi

#### start data
#S 1
#L r($\AA$)  G($\AA^{-2}$)
0 0
0.01 -0.00621383
0.02 -0.0119597
0.03 -0.0167557
0.04 -0.0202389
0.05 -0.0222073
0.06 -0.0223361
0.07 -0.0208414
0.08 -0.0176188
0.09 -0.0130806
0.1 -0.00751247
0.11 -0.00135119
0.12 0.00492644
0.13 0.0107858
0.14 0.0158477
0.15 0.0196482
0.16 0.0219153
0.17 0.0225402
0.18 0.0213012
0.19 0.018516
0.2 0.0141966
0.21 0.00882385
0.22 0.00275305
0.23 -0.00352529
0.24 -0.00956232
0.25 -0.0147821
0.26 -0.0189121
0.27 -0.0215286
0.28 -0.0224634
0.29 -0.0217063
0.3 -0.0191496
0.31 -0.0151975
0.32 -0.00997804
0.33 -0.0040182
0.34 0.00227401
0.35 0.00837732
0.36 0.0138922
0.37 0.0182289
0.38 0.0212344
0.39 0.0225456
0.4 0.0221063
0.41 0.0200058
0.42 0.0162555
0.43 0.0113275
0.44 0.00546004
0.45 -0.000798599
0.46 -0.00700704
0.47 -0.0126377
0.48 -0.0173598
0.49 -0.0205975
0.5 -0.0223253
0.51 -0.0222579
0.52 -0.0204545
0.53 -0.0170998
0.54 -0.0123247
0.55 -0.00664648
0.56 -0.000402915
0.57 0.00586231
0.58 0.0116956
0.59 0.0165877
0.6 0.0202929
0.61 0.0222771
0.62 0.0226434
0.63 0.0211989
0.64 0.0181155
0.65 0.013665
0.66 0.0080922
0.67 0.00193543
0.68 -0.00438418
0.69 -0.0103529
0.7 -0.0155268
0.71 -0.0194389
0.72 -0.0219406
0.73 -0.0225647
0.74 -0.0215385
0.75 -0.0187704
0.76 -0.0145368
0.77 -0.0091833
0.78 -0.00305609
0.79 0.00331144
0.8 0.0094365
0.81 0.0148603
0.82 0.0191712
0.83 0.0219682
0.84 0.0232069
0.85 0.0225117
0.86 0.0202214
0.87 0.0163503
0.88 0.0112639
0.89 0.00536237
0.9 -0.000927508
0.91 -0.00710822
0.92 -0.0126669
0.93 -0.017229
0.94 -0.020445
0.95 -0.0220126
0.96 -0.0220001
0.97 -0.0201643
0.98 -0.0169408
0.99 -0.0124674
1 -0.00718982
1.01 -0.00154593
1.02 0.00396043
1.03 0.00890672
1.04 0.0127644
1.05 0.0152821
1.06 0.016202
1.07 0.0153569
1.08 0.0129574
1.09 0.00894233
1.1 0.00386444
1.11 -0.0019668
1.12 -0.00799121
1.13 -0.0137064
1.14 -0.0184637
1.15 -0.0219168
1.16 -0.0234392
1.17 -0.0228972
1.18 -0.0200792
1.19 -0.0149019
1.2 -0.00774191
1.21 0.00138085
1.22 0.0117192
1.23 0.0228331
1.24 0.0340048
1.25 0.0446086
1.26 0.0538188
1.27 0.061232
1.28 0.0660387
1.29 0.0680666
1.3 0.0670045
1.31 0.0626558
1.32 0.0554321
1.33 0.0451338
1.34 0.032629
1.35 0.0182252
1.36 0.00265289
1.37 -0.0134207
1.38 -0.0292593
1.39 -0.0442661
1.4 -0.0576807
1.41 -0.0691166
1.42 -0.0781391
1.43 -0.0843573
1.44 -0.0879249
1.45 -0.0883682
1.46 -0.0862631
1.47 -0.0815651
1.48 -0.0746667
1.49 -0.0659747
1.5 -0.0557337
1.51 -0.0445109
1.52 -0.0325759
1.53 -0.0203607
1.54 -0.00815843
1.55 0.00372262
1.56 0.0151036
1.57 0.025669
1.58 0.0353751
1.59 0.0439934
1.6 0.0514132
1.61 0.0575666
1.62 0.0621753
1.63 0.0653205
1.64 0.0666705
1.65 0.0662731
1.66 0.0639942
1.67 0.0597001
1.68 0.0535823
1.69 0.0453793
1.7 0.0355193
1.71 0.0240323
1.72 0.0112623
1.73 -0.00241922
1.74 -0.0166388
1.75 -0.0308946
1.76 -0.0446787
1.77 -0.0575398
1.78 -0.0690347
1.79 -0.0786937
1.8 -0.0864455
1.81 -0.0917654
1.82 -0.0949814
1.83 -0.0959928
1.84 -0.0951272
1.85 -0.0928001
1.86 -0.089396
1.87 -0.0855697
1.88 -0.081883
1.89 -0.0789172
1.9 -0.0771842
1.91 -0.0772037
1.92 -0.079064
1.93 -0.0832371
1.94 -0.0893304
1.95 -0.0972982
1.96 -0.106641
1.97 -0.116779
1.98 -0.127002
1.99 -0.136561
2 -0.144499
2.01 -0.150136
2.02 -0.152727
2.03 -0.151487
2.04 -0.146404
2.05 -0.136518
2.06 -0.122494
2.07 -0.104083
2.08 -0.0817771
2.09 -0.0561963
2.1 -0.0276897
2.11 0.00272139
2.12 0.0345631
2.13 0.0670396
2.14 0.099651
2.15 0.131951
2.16 0.163757
2.17 0.194922
2.18 0.225668
2.19 0.256237
2.2 0.287066
2.21 0.31857
2.22 0.35135
2.23 0.385611
2.24 0.421822
2.25 0.459855
2.26 0.499555
2.27 0.540428
2.28 0.581634
2.29 0.621961
2.3 0.660185
2.31 0.69456
2.32 0.723372
2.33 0.745293
2.34 0.757713
2.35 0.760518
2.36 0.751198
2.37 0.730085
2.38 0.696648
2.39 0.650717
2.4 0.594287
2.41 0.527105
2.42 0.452573
2.43 0.372188
2.44 0.288839
2.45 0.205118
2.46 0.124084
2.47 0.0478241
2.48 -0.0205659
2.49 -0.0798227
2.5 -0.128426
2.51 -0.16509
2.52 -0.190893
2.53 -0.204537
2.54 -0.208894
2.55 -0.204674
2.56 -0.194294
2.57 -0.180123
2.58 -0.164509
2.59 -0.149884
2.6 -0.138693
2.61 -0.13253
2.62 -0.132812
2.63 -0.140712
2.64 -0.15567
2.65 -0.178481
2.66 -0.207075
2.67 -0.240613
2.68 -0.27705
2.69 -0.314426
2.7 -0.350467
2.71 -0.383457
2.72 -0.411112
2.73 -0.432456
2.74 -0.446478
2.75 -0.452471
2.76 -0.451437
2.77 -0.443054
2.78 -0.429672
2.79 -0.412484
2.8 -0.393725
2.81 -0.375396
2.82 -0.35993
2.83 -0.348746
2.84 -0.344081
2.85 -0.346501
2.86 -0.356686
2.87 -0.374887
2.88 -0.399695
2.89 -0.43083
2.9 -0.465663
2.91 -0.502497
2.92 -0.538814
2.93 -0.572507
2.94 -0.600779
2.95 -0.622553
2.96 -0.635426
2.97 -0.639276
2.98 -0.633686
2.99 -0.618767
3 -0.596452
3.01 -0.567396
3.02 -0.534712
3.03 -0.500475
3.04 -0.467527
3.05 -0.438136
3.06 -0.415334
3.07 -0.400043
3.08 -0.394689
3.09 -0.399094
3.1 -0.413426
3.11 -0.437233
3.12 -0.468256
3.13 -0.505431
3.14 -0.545459
3.15 -0.586002
3.16 -0.624157
3.17 -0.657746
3.18 -0.683835
3.19 -0.70193
3.2 -0.71003
3.21 -0.708904
3.22 -0.69901
3.23 -0.681609
3.24 -0.659372
3.25 -0.634493
3.26 -0.610286
3.27 -0.589795
3.28 -0.576041
3.29 -0.571005
3.3 -0.577831
3.31 -0.596013
3.32 -0.627301
3.33 -0.669775
3.34 -0.722074
3.35 -0.781773
3.36 -0.845201
3.37 -0.908727
3.38 -0.968431
3.39 -1.02017
3.4 -1.06038
3.41 -1.08701
3.42 -1.09631
3.43 -1.08977
3.44 -1.06564
3.45 -1.02711
3.46 -0.976473
3.47 -0.917392
3.48 -0.85478
3.49 -0.793689
3.5 -0.738851
3.51 -0.69539
3.52 -0.667219
3.53 -0.656152
3.54 -0.66558
3.55 -0.692379
3.56 -0.736414
3.57 -0.791785
3.58 -0.853001
3.59 -0.911776
3.6 -0.960351
3.61 -0.985838
3.62 -0.981594
3.63 -0.935338
3.64 -0.838521
3.65 -0.686763
3.66 -0.467738
3.67 -0.187618
3.68 0.161785
3.69 0.571364
3.7 1.03655
3.71 1.54956
3.72 2.09485
3.73 2.66178
3.74 3.23149
3.75 3.78769
3.76 4.31211
3.77 4.79093
3.78 5.20115
3.79 5.53888
3.8 5.78266
3.81 5.93208
3.82 5.98083
3.83 5.92331
3.84 5.77273
3.85 5.52009
3.86 5.18907
3.87 4.78408
3.88 4.3218
3.89 3.8189
3.9 3.2891
3.91 2.75113
3.92 2.22015
3.93 1.71018
3.94 1.23316
3.95 0.801624
3.96 0.417551
3.97 0.0943761
3.98 -0.174631
3.99 -0.385123
4 -0.541494
4.01 -0.650659
4.02 -0.714378
4.03 -0.745563
4.04 -0.748133
4.05 -0.732708
4.06 -0.706009
4.07 -0.675057
4.08 -0.645423
4.09 -0.622391
4.1 -0.608036
4.11 -0.604743
4.12 -0.612646
4.13 -0.630477
4.14 -0.657368
4.15 -0.689781
4.16 -0.72538
4.17 -0.760687
4.18 -0.79286
4.19 -0.818723
4.2 -0.836888
4.21 -0.844123
4.22 -0.840943
4.23 -0.826019
4.24 -0.799813
4.25 -0.763503
4.26 -0.717177
4.27 -0.66345
4.28 -0.602908
4.29 -0.537671
4.3 -0.468948
4.31 -0.397898
4.32 -0.3256
4.33 -0.2526
4.34 -0.179398
4.35 -0.106165
4.36 -0.0329653
4.37 0.0401979
4.38 0.113273
4.39 0.186114
4.4 0.258305
4.41 0.329259
4.42 0.398108
4.43 0.463451
4.44 0.524381
4.45 0.578332
4.46 0.624607
4.47 0.660872
4.48 0.68565
4.49 0.698292
4.5 0.696263
4.51 0.68099
4.52 0.650659
4.53 0.607026
4.54 0.550808
4.55 0.483111
4.56 0.406877
4.57 0.323256
4.58 0.235767
4.59 0.146576
4.6 0.0584356
4.61 -0.0265851
4.62 -0.105812
4.63 -0.178487
4.64 -0.24255
4.65 -0.29807
4.66 -0.344805
4.67 -0.382782
4.68 -0.41365
4.69 -0.437531
4.7 -0.456799
4.71 -0.472528
4.72 -0.486426
4.73 -0.499865
4.74 -0.514157
4.75 -0.530048
4.76 -0.548343
4.77 -0.569058
4.78 -0.592093
4.79 -0.617031
4.8 -0.643016
4.81 -0.669179
4.82 -0.694484
4.83 -0.717861
4.84 -0.738342
4.85 -0.755375
4.86 -0.767945
4.87 -0.776402
4.88 -0.780243
4.89 -0.780191
4.9 -0.776737
4.91 -0.770617
4.92 -0.762966
4.93 -0.754693
4.94 -0.746898
4.95 -0.740535
4.96 -0.736427
4.97 -0.734994
4.98 -0.736954
4.99 -0.741946
5 -0.750219
5.01 -0.761127
5.02 -0.774209
5.03 -0.788841
5.04 -0.804219
5.05 -0.819672
5.06 -0.834554
5.07 -0.848304
5.08 -0.860522
5.09 -0.871072
5.1 -0.879646
5.11 -0.886523
5.12 -0.891571
5.13 -0.895032
5.14 -0.896912
5.15 -0.897025
5.16 -0.895302
5.17 -0.890837
5.18 -0.883215
5.19 -0.871113
5.2 -0.853183
5.21 -0.82834
5.22 -0.793884
5.23 -0.749525
5.24 -0.69233
5.25 -0.621974
5.26 -0.537371
5.27 -0.437353
5.28 -0.323694
5.29 -0.195096
5.3 -0.0552515
5.31 0.0945009
5.32 0.25066
5.33 0.409544
5.34 0.566689
5.35 0.718035
5.36 0.857928
5.37 0.982508
5.38 1.08751
5.39 1.16775
5.4 1.22308
5.41 1.2468
5.42 1.24213
5.43 1.20653
5.44 1.14162
5.45 1.05078
5.46 0.934344
5.47 0.799414
5.48 0.648295
5.49 0.487448
5.5 0.321568
5.51 0.156108
5.52 -0.00462077
5.53 -0.154912
5.54 -0.292585
5.55 -0.413812
5.56 -0.516801
5.57 -0.601592
5.58 -0.665902
5.59 -0.713198
5.6 -0.742802
5.61 -0.758263
5.62 -0.761665
5.63 -0.755338
5.64 -0.742681
5.65 -0.725409
5.66 -0.706253
5.67 -0.686653
5.68 -0.667823
5.69 -0.650229
5.7 -0.634022
5.71 -0.618543
5.72 -0.602943
5.73 -0.586003
5.74 -0.566469
5.75 -0.542767
5.76 -0.514313
5.77 -0.479364
5.78 -0.438393
5.79 -0.390947
5.8 -0.337757
5.81 -0.280112
5.82 -0.219258
5.83 -0.157484
5.84 -0.097012
5.85 -0.0402243
5.86 0.0105929
5.87 0.0526521
5.88 0.0851329
5.89 0.104719
5.9 0.112192
5.91 0.106127
5.92 0.0869414
5.93 0.0560226
5.94 0.013426
5.95 -0.0376269
5.96 -0.0960748
5.97 -0.158975
5.98 -0.22422
5.99 -0.289453
6 -0.352878
6.01 -0.412329
6.02 -0.467139
6.03 -0.516199
6.04 -0.559331
6.05 -0.597041
6.06 -0.62938
6.07 -0.657969
6.08 -0.68354
6.09 -0.70764
6.1 -0.731402
6.11 -0.756015
6.12 -0.782139
6.13 -0.810591
6.14 -0.841168
6.15 -0.873779
6.16 -0.907696
6.17 -0.941983
6.18 -0.975332
6.19 -1.00662
6.2 -1.03422
6.21 -1.05716
6.22 -1.07449
6.23 -1.08522
6.24 -1.08985
6.25 -1.08761
6.26 -1.08009
6.27 -1.06787
6.28 -1.05249
6.29 -1.03549
6.3 -1.01845
6.31 -1.00273
6.32 -0.989615
6.33 -0.97953
6.34 -0.972458
6.35 -0.967644
6.36 -0.963361
6.37 -0.956851
6.38 -0.94508
6.39 -0.923649
6.4 -0.887704
6.41 -0.833537
6.42 -0.753141
6.43 -0.645474
6.44 -0.502517
6.45 -0.323408
6.46 -0.105547
6.47 0.154133
6.48 0.450599
6.49 0.78729
6.5 1.15462
6.51 1.54941
6.52 1.96323
6.53 2.38703
6.54 2.81073
6.55 3.22423
6.56 3.61474
6.57 3.97271
6.58 4.28809
6.59 4.54821
6.6 4.7518
6.61 4.88245
6.62 4.94585
6.63 4.93452
6.64 4.84977
6.65 4.69789
6.66 4.47584
6.67 4.19935
6.68 3.87
6.69 3.50181
6.7 3.10418
6.71 2.68778
6.72 2.26457
6.73 1.8454
6.74 1.43954
6.75 1.05653
6.76 0.703979
6.77 0.385426
6.78 0.109749
6.79 -0.12664
6.8 -0.317987
6.81 -0.468663
6.82 -0.580338
6.83 -0.65468
6.84 -0.699492
6.85 -0.715267
6.86 -0.71094
6.87 -0.689752
6.88 -0.6571
6.89 -0.617556
6.9 -0.574541
6.91 -0.53142
6.92 -0.490583
6.93 -0.453513
6.94 -0.421109
6.95 -0.39401
6.96 -0.371546
6.97 -0.353993
6.98 -0.340074
6.99 -0.329439
7 -0.321403
7.01 -0.315426
7.02 -0.311533
7.03 -0.30949
7.04 -0.309859
7.05 -0.313007
7.06 -0.319606
7.07 -0.330704
7.08 -0.346503
7.09 -0.368523
7.1 -0.396388
7.11 -0.43076
7.12 -0.471417
7.13 -0.517574
7.14 -0.568969
7.15 -0.623782
7.16 -0.680956
7.17 -0.738602
7.18 -0.795098
7.19 -0.848446
7.2 -0.897522
7.21 -0.940049
7.22 -0.975832
7.23 -1.00366
7.24 -1.02336
7.25 -1.03555
7.26 -1.04
7.27 -1.03873
7.28 -1.03238
7.29 -1.02293
7.3 -1.01187
7.31 -1.00089
7.32 -0.991281
7.33 -0.984558
7.34 -0.981079
7.35 -0.981364
7.36 -0.985095
7.37 -0.991359
7.38 -0.998966
7.39 -1.00602
7.4 -1.01018
7.41 -1.0091
7.42 -1.00029
7.43 -0.980473
7.44 -0.948653
7.45 -0.900531
7.46 -0.836689
7.47 -0.754907
7.48 -0.655038
7.49 -0.538483
7.5 -0.40445
7.51 -0.257126
7.52 -0.0974948
7.53 0.0702105
7.54 0.242649
7.55 0.415645
7.56 0.585389
7.57 0.746677
7.58 0.896651
7.59 1.03086
7.6 1.14598
7.61 1.24071
7.62 1.31014
7.63 1.35649
7.64 1.37619
7.65 1.3714
7.66 1.34269
7.67 1.29039
7.68 1.21887
7.69 1.12778
7.7 1.02255
7.71 0.905055
7.72 0.778905
7.73 0.647539
7.74 0.513935
7.75 0.381297
7.76 0.252692
7.77 0.130517
7.78 0.0169483
7.79 -0.0853529
7.8 -0.176163
7.81 -0.252214
7.82 -0.314596
7.83 -0.361762
7.84 -0.393725
7.85 -0.411574
7.86 -0.414147
7.87 -0.40439
7.88 -0.381999
7.89 -0.349491
7.9 -0.308461
7.91 -0.260679
7.92 -0.208871
7.93 -0.154997
7.94 -0.10172
7.95 -0.0513919
7.96 -0.00646565
7.97 0.0314582
7.98 0.059338
7.99 0.0770808
8 0.0822108
8.01 0.0749221
8.02 0.0549315
8.03 0.0218306
8.04 -0.0222524
8.05 -0.0777245
8.06 -0.141446
8.07 -0.212154
8.08 -0.287411
8.09 -0.364869
8.1 -0.442186
8.11 -0.517313
8.12 -0.58797
8.13 -0.652815
8.14 -0.710706
8.15 -0.76045
8.16 -0.802734
8.17 -0.836647
8.18 -0.864007
8.19 -0.885365
8.2 -0.902244
8.21 -0.916262
8.22 -0.928762
8.23 -0.941238
8.24 -0.954785
8.25 -0.969994
8.26 -0.986976
8.27 -1.00528
8.28 -1.02372
8.29 -1.04028
8.3 -1.0528
8.31 -1.05808
8.32 -1.05256
8.33 -1.03365
8.34 -0.995464
8.35 -0.937337
8.36 -0.853559
8.37 -0.743381
8.38 -0.605072
8.39 -0.436162
8.4 -0.2403
8.41 -0.014792
8.42 0.233778
8.43 0.503419
8.44 0.788606
8.45 1.08312
8.46 1.38064
8.47 1.674
8.48 1.95506
8.49 2.21707
8.5 2.45341
8.51 2.6554
8.52 2.82176
8.53 2.94166
8.54 3.01791
8.55 3.04536
8.56 3.02391
8.57 2.95736
8.58 2.84247
8.59 2.68928
8.6 2.49783
8.61 2.27669
8.62 2.03159
8.63 1.76859
8.64 1.49591
8.65 1.21958
8.66 0.946537
8.67 0.682757
8.68 0.433796
8.69 0.202665
8.7 -0.00443978
8.71 -0.188593
8.72 -0.345545
8.73 -0.476886
8.74 -0.583051
8.75 -0.6641
8.76 -0.724671
8.77 -0.764359
8.78 -0.788844
8.79 -0.800057
8.8 -0.801586
8.81 -0.79685
8.82 -0.788348
8.83 -0.779058
8.84 -0.771128
8.85 -0.76627
8.86 -0.765664
8.87 -0.770439
8.88 -0.780305
8.89 -0.795996
8.9 -0.816323
8.91 -0.840939
8.92 -0.868821
8.93 -0.898827
8.94 -0.929988
8.95 -0.961128
8.96 -0.991227
8.97 -1.01947
8.98 -1.04522
8.99 -1.06778
9 -1.08724
9.01 -1.103
9.02 -1.11564
9.03 -1.12515
9.04 -1.13193
9.05 -1.13651
9.06 -1.13909
9.07 -1.14033
9.08 -1.14037
9.09 -1.13952
9.1 -1.1378
9.11 -1.13505
9.12 -1.13111
9.13 -1.12527
9.14 -1.11717
9.15 -1.10591
9.16 -1.09063
9.17 -1.07082
9.18 -1.04494
9.19 -1.01314
9.2 -0.974098
9.21 -0.927952
9.22 -0.874601
9.23 -0.813851
9.24 -0.747021
9.25 -0.674128
9.26 -0.597181
9.27 -0.517364
9.28 -0.436628
9.29 -0.356809
9.3 -0.280412
9.31 -0.208971
9.32 -0.145193
9.33 -0.0904847
9.34 -0.0463445
9.35 -0.0147992
9.36 0.00480912
9.37 0.0101847
9.38 0.00332335
9.39 -0.0160121
9.4 -0.0465005
9.41 -0.0860139
9.42 -0.133542
9.43 -0.18587
9.44 -0.241166
9.45 -0.296709
9.46 -0.350338
9.47 -0.399554
9.48 -0.443184
9.49 -0.478726
9.5 -0.506235
9.51 -0.524668
9.52 -0.534104
9.53 -0.535573
9.54 -0.529104
9.55 -0.517076
9.56 -0.500465
9.57 -0.481471
9.58 -0.461829
9.59 -0.443536
9.6 -0.427961
9.61 -0.417126
9.62 -0.411527
9.63 -0.412242
9.64 -0.419604
9.65 -0.433144
9.66 -0.453229
9.67 -0.478267
9.68 -0.507901
9.69 -0.540678
9.7 -0.575537
9.71 -0.611366
9.72 -0.647148
9.73 -0.681958
9.74 -0.715311
9.75 -0.746742
9.76 -0.77608
9.77 -0.803464
9.78 -0.828755
9.79 -0.852362
9.8 -0.874111
9.81 -0.893955
9.82 -0.911461
9.83 -0.925515
9.84 -0.935297
9.85 -0.938078
9.86 -0.932379
9.87 -0.914863
9.88 -0.882076
9.89 -0.831856
9.9 -0.757703
9.91 -0.659564
9.92 -0.531126
9.93 -0.371572
9.94 -0.179017
9.95 0.0498225
9.96 0.310862
9.97 0.607807
9.98 0.933467
9.99 1.28602
10 1.65963
10.01 2.04709
10.02 2.44173
10.03 2.83461
10.04 3.21649
10.05 3.57871
10.06 3.91305
10.07 4.2084
10.08 4.46229
10.09 4.66099
10.1 4.80647
10.11 4.89175
10.12 4.91523
10.13 4.88105
10.14 4.78353
10.15 4.63491
10.16 4.43414
10.17 4.19141
10.18 3.91361
10.19 3.6076
10.2 3.28427
10.21 2.95032
10.22 2.61537
10.23 2.28669
10.24 1.97162
10.25 1.67441
10.26 1.40268
10.27 1.1559
10.28 0.939081
10.29 0.750844
10.3 0.590627
10.31 0.45842
10.32 0.348826
10.33 0.26196
10.34 0.191385
10.35 0.134594
10.36 0.0874446
10.37 0.0460666
10.38 0.0075352
10.39 -0.0311942
10.4 -0.0724119
10.41 -0.117645
10.42 -0.167824
10.43 -0.223751
10.44 -0.28469
10.45 -0.350827
10.46 -0.420592
10.47 -0.493105
10.48 -0.566914
10.49 -0.640677
10.5 -0.71281
10.51 -0.782307
10.52 -0.847661
10.53 -0.908118
10.54 -0.962945
10.55 -1.0111
10.56 -1.05294
10.57 -1.08717
10.58 -1.11461
10.59 -1.13478
10.6 -1.14776
10.61 -1.15414
10.62 -1.15323
10.63 -1.14624
10.64 -1.13272
10.65 -1.11342
10.66 -1.0887
10.67 -1.05871
10.68 -1.02452
10.69 -0.986185
10.7 -0.944953
10.71 -0.901435
10.72 -0.856647
10.73 -0.811578
10.74 -0.7674
10.75 -0.725016
10.76 -0.685731
10.77 -0.650393
10.78 -0.619836
10.79 -0.595239
10.8 -0.576484
10.81 -0.564956
10.82 -0.559963
10.83 -0.561938
10.84 -0.570637
10.85 -0.585236
10.86 -0.605891
10.87 -0.631061
10.88 -0.660456
10.89 -0.692872
10.9 -0.727459
10.91 -0.763359
10.92 -0.799654
10.93 -0.835554
10.94 -0.870438
10.95 -0.903704
10.96 -0.934878
10.97 -0.963815
10.98 -0.989965
10.99 -1.01362
11 -1.03445
11.01 -1.05271
11.02 -1.0685
11.03 -1.08184
11.04 -1.09319
11.05 -1.10248
11.06 -1.11021
11.07 -1.11655
11.08 -1.12178
11.09 -1.12625
11.1 -1.13016
11.11 -1.13386
11.12 -1.13755
11.13 -1.14143
11.14 -1.1456
11.15 -1.15005
11.16 -1.1546
11.17 -1.15891
11.18 -1.16242
11.19 -1.16433
11.2 -1.16348
11.21 -1.15888
11.22 -1.1482
11.23 -1.13061
11.24 -1.10323
11.25 -1.06455
11.26 -1.01266
11.27 -0.944446
11.28 -0.860103
11.29 -0.755442
11.3 -0.631896
11.31 -0.487716
11.32 -0.323022
11.33 -0.139956
11.34 0.0622592
11.35 0.278665
11.36 0.507805
11.37 0.74486
11.38 0.985695
11.39 1.22506
11.4 1.45836
11.41 1.67865
11.42 1.88218
11.43 2.06296
11.44 2.21594
11.45 2.33948
11.46 2.42579
11.47 2.478
11.48 2.4908
11.49 2.46659
11.5 2.4065
11.51 2.31042
11.52 2.18525
11.53 2.03077
11.54 1.85519
11.55 1.66205
11.56 1.45718
11.57 1.24628
11.58 1.03454
11.59 0.826789
11.6 0.627964
11.61 0.441382
11.62 0.269671
11.63 0.116143
11.64 -0.0202129
11.65 -0.136378
11.66 -0.235338
11.67 -0.317154
11.68 -0.383763
11.69 -0.438232
11.7 -0.481707
11.71 -0.518246
11.72 -0.549617
11.73 -0.578622
11.74 -0.607161
11.75 -0.637011
11.76 -0.669041
11.77 -0.70423
11.78 -0.74221
11.79 -0.782669
11.8 -0.82453
11.81 -0.866439
11.82 -0.906423
11.83 -0.942883
11.84 -0.973284
11.85 -0.995821
11.86 -1.00871
11.87 -1.00927
11.88 -0.997547
11.89 -0.970326
11.9 -0.928732
11.91 -0.871533
11.92 -0.798838
11.93 -0.712255
11.94 -0.610958
11.95 -0.498391
11.96 -0.37501
11.97 -0.243683
11.98 -0.106636
11.99 0.0336813
12 0.174457
12.01 0.312754
12.02 0.446142
12.03 0.571791
12.04 0.686993
12.05 0.790468
12.06 0.878274
12.07 0.951065
12.08 1.00575
12.09 1.04257
12.1 1.06126
12.11 1.06062
12.12 1.04334
12.13 1.00789
12.14 0.957855
12.15 0.894003
12.16 0.818538
12.17 0.734346
12.18 0.642979
12.19 0.547859
12.2 0.451045
12.21 0.355099
12.22 0.261976
12.23 0.17392
12.24 0.0916776
12.25 0.0173025
12.26 -0.04956
12.27 -0.108306
12.28 -0.159227
12.29 -0.203496
12.3 -0.241314
12.31 -0.274811
12.32 -0.304913
12.33 -0.333372
12.34 -0.36151
12.35 -0.390716
12.36 -0.421788
12.37 -0.455759
12.38 -0.492557
12.39 -0.532209
12.4 -0.574078
