# xPDFsuite Configuration #
[PDF]
wavelength = 0.1432
dataformat = twotheta
inputfile = 1_1Pd_CeO2_cycle-00257.chi
backgroundfile = background-00000.chi
mode = xray
bgscale = 1.007
composition = CeO2
outputtype = gr
qmaxinst = 28.8974762299
qmin = 0.5
qmax = 27.9
rmax = 50.0
rmin = 0.0
rstep = 0.01
rpoly = 1.8657

[Misc]
inputdir = G:/SankarDec16/1Pd/Chi
savedir = D:/DATA/APS_CeO2/1Pd
backgroundfilefull = G:/SankarDec16/Background/background-00000.chi

#### start data
#S 1
#L r($\AA$)  G($\AA^{-2}$)
0 0
0.01 -0.00651352
0.02 -0.012537
0.03 -0.0175659
0.04 -0.0212199
0.05 -0.0232874
0.06 -0.0234278
0.07 -0.0218671
0.08 -0.0184951
0.09 -0.0137433
0.1 -0.00791022
0.11 -0.00145278
0.12 0.00512959
0.13 0.0112775
0.14 0.0165929
0.15 0.0205896
0.16 0.0229816
0.17 0.0236538
0.18 0.0223724
0.19 0.0194688
0.2 0.0149538
0.21 0.00933014
0.22 0.00296885
0.23 -0.00361708
0.24 -0.00995675
0.25 -0.0154474
0.26 -0.0198013
0.27 -0.0225734
0.28 -0.0235851
0.29 -0.0228236
0.3 -0.0201727
0.31 -0.0160543
0.32 -0.0105994
0.33 -0.00435912
0.34 0.00224024
0.35 0.00865315
0.36 0.0144593
0.37 0.0190406
0.38 0.0222331
0.39 0.0236537
0.4 0.0232399
0.41 0.0210818
0.42 0.017187
0.43 0.0120481
0.44 0.00591078
0.45 -0.000650881
0.46 -0.00717525
0.47 -0.0131092
0.48 -0.018103
0.49 -0.021552
0.5 -0.0234238
0.51 -0.0234157
0.52 -0.0215844
0.53 -0.0181195
0.54 -0.0131521
0.55 -0.00722317
0.56 -0.000681896
0.57 0.00590101
0.58 0.0120502
0.59 0.0172304
0.6 0.0211792
0.61 0.0233337
0.62 0.0237951
0.63 0.0223557
0.64 0.0191894
0.65 0.0145766
0.66 0.00876711
0.67 0.00232504
0.68 -0.00431266
0.69 -0.0106048
0.7 -0.0160845
0.71 -0.0202588
0.72 -0.0229651
0.73 -0.0237082
0.74 -0.0227185
0.75 -0.0198926
0.76 -0.0155134
0.77 -0.00993902
0.78 -0.00352563
0.79 0.00316569
0.8 0.00963192
0.81 0.0153864
0.82 0.0199934
0.83 0.0230252
0.84 0.0244264
0.85 0.0237924
0.86 0.0214699
0.87 0.0174626
0.88 0.012146
0.89 0.00593463
0.9 -0.000732468
0.91 -0.00732851
0.92 -0.0133195
0.93 -0.0183027
0.94 -0.0219047
0.95 -0.0237968
0.96 -0.0240367
0.97 -0.0223528
0.98 -0.0191875
0.99 -0.0146672
1 -0.00924391
1.01 -0.00336686
1.02 0.0024558
1.03 0.00777731
1.04 0.0120606
1.05 0.0150337
1.06 0.0164266
1.07 0.0160601
1.08 0.0141372
1.09 0.0105911
1.1 0.00597456
1.11 0.000598051
1.12 -0.00497457
1.13 -0.0102374
1.14 -0.0145391
1.15 -0.0175338
1.16 -0.0185996
1.17 -0.0176126
1.18 -0.0143767
1.19 -0.00883372
1.2 -0.00137962
1.21 0.00791585
1.22 0.0182891
1.23 0.0292511
1.24 0.0400537
1.25 0.0500537
1.26 0.0583777
1.27 0.0646497
1.28 0.0680291
1.29 0.0683898
1.3 0.0654465
1.31 0.0590514
1.32 0.0496902
1.33 0.0372365
1.34 0.0226459
1.35 0.00632199
1.36 -0.0109129
1.37 -0.028324
1.38 -0.0450568
1.39 -0.0605167
1.4 -0.0738423
1.41 -0.0846827
1.42 -0.0926003
1.43 -0.0972287
1.44 -0.0988272
1.45 -0.0969569
1.46 -0.0923506
1.47 -0.0850636
1.48 -0.075628
1.49 -0.064565
1.5 -0.0522734
1.51 -0.0393776
1.52 -0.0262873
1.53 -0.0134439
1.54 -0.00117711
1.55 0.0101964
1.56 0.0205954
1.57 0.0297117
1.58 0.0376772
1.59 0.0443625
1.6 0.0498191
1.61 0.0541196
1.62 0.0571681
1.63 0.0591373
1.64 0.0598722
1.65 0.059459
1.66 0.0578281
1.67 0.0548819
1.68 0.0507136
1.69 0.0450815
1.7 0.0382098
1.71 0.0300262
1.72 0.0206815
1.73 0.0103715
1.74 -0.00075406
1.75 -0.0123314
1.76 -0.0240869
1.77 -0.0356529
1.78 -0.0467004
1.79 -0.0568527
1.8 -0.06595
1.81 -0.0735646
1.82 -0.0797903
1.83 -0.0844602
1.84 -0.0876937
1.85 -0.0897022
1.86 -0.090645
1.87 -0.0909652
1.88 -0.0909691
1.89 -0.0910809
1.9 -0.0916465
1.91 -0.0930282
1.92 -0.0953498
1.93 -0.0989137
1.94 -0.10353
1.95 -0.109163
1.96 -0.11549
1.97 -0.122126
1.98 -0.128543
1.99 -0.134242
2 -0.138493
2.01 -0.140819
2.02 -0.140659
2.03 -0.137412
2.04 -0.131083
2.05 -0.120905
2.06 -0.107398
2.07 -0.0903345
2.08 -0.0700718
2.09 -0.0470662
2.1 -0.0215212
2.11 0.00577871
2.12 0.0345566
2.13 0.0642172
2.14 0.0944351
2.15 0.124942
2.16 0.155591
2.17 0.186409
2.18 0.217506
2.19 0.249145
2.2 0.281642
2.21 0.315264
2.22 0.350473
2.23 0.387259
2.24 0.425898
2.25 0.466077
2.26 0.507479
2.27 0.54944
2.28 0.591099
2.29 0.631083
2.3 0.668291
2.31 0.70097
2.32 0.727542
2.33 0.746836
2.34 0.756408
2.35 0.756359
2.36 0.744399
2.37 0.721041
2.38 0.685934
2.39 0.639082
2.4 0.58249
2.41 0.516083
2.42 0.443107
2.43 0.365062
2.44 0.284679
2.45 0.204363
2.46 0.126983
2.47 0.0543723
2.48 -0.0106296
2.49 -0.0669792
2.5 -0.113367
2.51 -0.14873
2.52 -0.174168
2.53 -0.188619
2.54 -0.194793
2.55 -0.193435
2.56 -0.186805
2.57 -0.177074
2.58 -0.166417
2.59 -0.156961
2.6 -0.150896
2.61 -0.149543
2.62 -0.154072
2.63 -0.16539
2.64 -0.182863
2.65 -0.206989
2.66 -0.235814
2.67 -0.268402
2.68 -0.302811
2.69 -0.337242
2.7 -0.369516
2.71 -0.398226
2.72 -0.421264
2.73 -0.437936
2.74 -0.447451
2.75 -0.449347
2.76 -0.444743
2.77 -0.433563
2.78 -0.418124
2.79 -0.399717
2.8 -0.380525
2.81 -0.362447
2.82 -0.347856
2.83 -0.337952
2.84 -0.334849
2.85 -0.338911
2.86 -0.350666
2.87 -0.370205
2.88 -0.396045
2.89 -0.427773
2.9 -0.4628
2.91 -0.499415
2.92 -0.535178
2.93 -0.568092
2.94 -0.595483
2.95 -0.616429
2.96 -0.628693
2.97 -0.632283
2.98 -0.626906
2.99 -0.61279
3 -0.591849
3.01 -0.564837
3.02 -0.534715
3.03 -0.503511
3.04 -0.473898
3.05 -0.44797
3.06 -0.428542
3.07 -0.416352
3.08 -0.413569
3.09 -0.419872
3.1 -0.435274
3.11 -0.459172
3.12 -0.489365
3.13 -0.524642
3.14 -0.561935
3.15 -0.598955
3.16 -0.633013
3.17 -0.66216
3.18 -0.683705
3.19 -0.697409
3.2 -0.701555
3.21 -0.697106
3.22 -0.684709
3.23 -0.665807
3.24 -0.643033
3.25 -0.61875
3.26 -0.596043
3.27 -0.577919
3.28 -0.56718
3.29 -0.565574
3.3 -0.576007
3.31 -0.597704
3.32 -0.632139
3.33 -0.677194
3.34 -0.73133
3.35 -0.791953
3.36 -0.855436
3.37 -0.918021
3.38 -0.976016
3.39 -1.02536
3.4 -1.06273
3.41 -1.08632
3.42 -1.09267
3.43 -1.0835
3.44 -1.05741
3.45 -1.01773
3.46 -0.966928
3.47 -0.908823
3.48 -0.848224
3.49 -0.790281
3.5 -0.739415
3.51 -0.700606
3.52 -0.677446
3.53 -0.67143
3.54 -0.685551
3.55 -0.716401
3.56 -0.763408
3.57 -0.820469
3.58 -0.881866
3.59 -0.939099
3.6 -0.984553
3.61 -1.00514
3.62 -0.994651
3.63 -0.940921
3.64 -0.835805
3.65 -0.675327
3.66 -0.447618
3.67 -0.159278
3.68 0.197353
3.69 0.612831
3.7 1.08224
3.71 1.59745
3.72 2.14299
3.73 2.70781
3.74 3.2735
3.75 3.82375
3.76 4.34065
3.77 4.81078
3.78 5.21149
3.79 5.53946
3.8 5.77367
3.81 5.9142
3.82 5.95513
3.83 5.89129
3.84 5.73598
3.85 5.48067
3.86 5.14878
3.87 4.74486
3.88 4.28538
3.89 3.78672
3.9 3.26239
3.91 2.73064
3.92 2.20631
3.93 1.70299
3.94 1.23226
3.95 0.8063
3.96 0.426905
3.97 0.107154
3.98 -0.159612
3.99 -0.369167
4 -0.525808
4.01 -0.636267
4.02 -0.702196
4.03 -0.736153
4.04 -0.741848
4.05 -0.729584
4.06 -0.705836
4.07 -0.677357
4.08 -0.649602
4.09 -0.627609
4.1 -0.61351
4.11 -0.609627
4.12 -0.616186
4.13 -0.632068
4.14 -0.656528
4.15 -0.686283
4.16 -0.719197
4.17 -0.752019
4.18 -0.782098
4.19 -0.806465
4.2 -0.823785
4.21 -0.831022
4.22 -0.828591
4.23 -0.815193
4.24 -0.791179
4.25 -0.757575
4.26 -0.714333
4.27 -0.66384
4.28 -0.60649
4.29 -0.544203
4.3 -0.478017
4.31 -0.408907
4.32 -0.337918
4.33 -0.265412
4.34 -0.191991
4.35 -0.117791
4.36 -0.0429749
4.37 0.0323234
4.38 0.107953
4.39 0.183564
4.4 0.258599
4.41 0.332299
4.42 0.403661
4.43 0.47114
4.44 0.533788
4.45 0.588907
4.46 0.635858
4.47 0.67228
4.48 0.696755
4.49 0.708723
4.5 0.705703
4.51 0.689255
4.52 0.657647
4.53 0.612735
4.54 0.555309
4.55 0.486545
4.56 0.409402
4.57 0.325072
4.58 0.237035
4.59 0.147447
4.6 0.0590076
4.61 -0.0262664
4.62 -0.10576
4.63 -0.178764
4.64 -0.243273
4.65 -0.29938
4.66 -0.346859
4.67 -0.38574
4.68 -0.417636
4.69 -0.442643
4.7 -0.46307
4.71 -0.479933
4.72 -0.494868
4.73 -0.509193
4.74 -0.524137
4.75 -0.540432
4.76 -0.558822
4.77 -0.579334
4.78 -0.601869
4.79 -0.626026
4.8 -0.651015
4.81 -0.675992
4.82 -0.700009
4.83 -0.72205
4.84 -0.741215
4.85 -0.757003
4.86 -0.768454
4.87 -0.775932
4.88 -0.778968
4.89 -0.778268
4.9 -0.774311
4.91 -0.767812
4.92 -0.759865
4.93 -0.751353
4.94 -0.743337
4.95 -0.73675
4.96 -0.732402
4.97 -0.730716
4.98 -0.732429
4.99 -0.737212
5 -0.745366
5.01 -0.756296
5.02 -0.769598
5.03 -0.784718
5.04 -0.800868
5.05 -0.817455
5.06 -0.833791
5.07 -0.849322
5.08 -0.86359
5.09 -0.876373
5.1 -0.887262
5.11 -0.896406
5.12 -0.903511
5.13 -0.90868
5.14 -0.911774
5.15 -0.912439
5.16 -0.910577
5.17 -0.905088
5.18 -0.895659
5.19 -0.880921
5.2 -0.85963
5.21 -0.830856
5.22 -0.792035
5.23 -0.74314
5.24 -0.681474
5.25 -0.606976
5.26 -0.518805
5.27 -0.416083
5.28 -0.300677
5.29 -0.171621
5.3 -0.0325148
5.31 0.115181
5.32 0.26805
5.33 0.422592
5.34 0.574444
5.35 0.719919
5.36 0.8536
5.37 0.972
5.38 1.07117
5.39 1.1463
5.4 1.19742
5.41 1.21826
5.42 1.21202
5.43 1.17633
5.44 1.1128
5.45 1.02464
5.46 0.912159
5.47 0.782043
5.48 0.636393
5.49 0.481264
5.5 0.321019
5.51 0.160714
5.52 0.00442372
5.53 -0.142567
5.54 -0.278115
5.55 -0.3986
5.56 -0.502226
5.57 -0.588894
5.58 -0.656283
5.59 -0.707465
5.6 -0.741546
5.61 -0.761663
5.62 -0.769551
5.63 -0.767128
5.64 -0.757548
5.65 -0.742072
5.66 -0.723401
5.67 -0.70275
5.68 -0.681339
5.69 -0.659785
5.7 -0.638278
5.71 -0.616593
5.72 -0.594114
5.73 -0.570082
5.74 -0.543631
5.75 -0.513658
5.76 -0.479863
5.77 -0.441043
5.78 -0.397733
5.79 -0.349783
5.8 -0.297977
5.81 -0.24348
5.82 -0.187604
5.83 -0.132178
5.84 -0.0792845
5.85 -0.0308268
5.86 0.0112788
5.87 0.0446923
5.88 0.0689533
5.89 0.0812368
5.9 0.0825111
5.91 0.0716748
5.92 0.0492899
5.93 0.0167172
5.94 -0.0258328
5.95 -0.0754756
5.96 -0.131169
5.97 -0.190333
5.98 -0.251112
5.99 -0.311454
6 -0.369875
6.01 -0.424503
6.02 -0.474877
6.03 -0.520097
6.04 -0.560095
6.05 -0.595385
6.06 -0.62608
6.07 -0.653621
6.08 -0.67868
6.09 -0.70259
6.1 -0.726315
6.11 -0.750844
6.12 -0.776689
6.13 -0.804478
6.14 -0.833968
6.15 -0.864993
6.16 -0.896853
6.17 -0.928705
6.18 -0.959339
6.19 -0.987837
6.2 -1.01276
6.21 -1.03337
6.22 -1.04891
6.23 -1.05864
6.24 -1.06313
6.25 -1.06187
6.26 -1.05636
6.27 -1.04725
6.28 -1.03598
6.29 -1.02392
6.3 -1.01253
6.31 -1.00282
6.32 -0.995867
6.33 -0.991768
6.34 -0.990242
6.35 -0.990212
6.36 -0.989822
6.37 -0.985961
6.38 -0.975639
6.39 -0.9543
6.4 -0.917117
6.41 -0.860519
6.42 -0.7765
6.43 -0.664349
6.44 -0.516161
6.45 -0.331383
6.46 -0.107646
6.47 0.157855
6.48 0.459883
6.49 0.801607
6.5 1.17334
6.51 1.57175
6.52 1.98829
6.53 2.41396
6.54 2.83854
6.55 3.25209
6.56 3.64179
6.57 3.99821
6.58 4.31137
6.59 4.56869
6.6 4.76901
6.61 4.89596
6.62 4.95536
6.63 4.93979
6.64 4.85063
6.65 4.69426
6.66 4.4677
6.67 4.1868
6.68 3.85322
6.69 3.48112
6.7 3.08
6.71 2.66072
6.72 2.2353
6.73 1.81487
6.74 1.4087
6.75 1.02651
6.76 0.675989
6.77 0.36063
6.78 0.0894378
6.79 -0.141429
6.8 -0.32623
6.81 -0.469633
6.82 -0.573551
6.83 -0.639978
6.84 -0.677054
6.85 -0.685721
6.86 -0.6752
6.87 -0.649144
6.88 -0.61326
6.89 -0.572243
6.9 -0.529909
6.91 -0.489378
6.92 -0.453228
6.93 -0.42261
6.94 -0.398181
6.95 -0.380248
6.96 -0.367608
6.97 -0.360076
6.98 -0.355816
6.99 -0.353935
7 -0.353223
7.01 -0.352832
7.02 -0.352183
7.03 -0.351152
7.04 -0.349921
7.05 -0.349116
7.06 -0.34957
7.07 -0.352577
7.08 -0.358954
7.09 -0.370604
7.1 -0.387877
7.11 -0.412018
7.12 -0.443462
7.13 -0.481871
7.14 -0.527711
7.15 -0.579205
7.16 -0.635809
7.17 -0.695497
7.18 -0.756584
7.19 -0.816935
7.2 -0.874817
7.21 -0.927685
7.22 -0.974545
7.23 -1.01363
7.24 -1.04405
7.25 -1.0659
7.26 -1.07819
7.27 -1.08275
7.28 -1.07963
7.29 -1.07084
7.3 -1.05785
7.31 -1.04236
7.32 -1.02622
7.33 -1.01109
7.34 -0.998106
7.35 -0.98828
7.36 -0.981974
7.37 -0.978821
7.38 -0.978344
7.39 -0.978913
7.4 -0.978749
7.41 -0.97556
7.42 -0.966952
7.43 -0.949649
7.44 -0.922208
7.45 -0.880226
7.46 -0.823587
7.47 -0.74964
7.48 -0.657621
7.49 -0.548431
7.5 -0.420628
7.51 -0.278144
7.52 -0.121448
7.53 0.045293
7.54 0.218807
7.55 0.394938
7.56 0.569455
7.57 0.737045
7.58 0.89421
7.59 1.03608
7.6 1.15878
7.61 1.26051
7.62 1.33577
7.63 1.38653
7.64 1.40875
7.65 1.40452
7.66 1.37438
7.67 1.31861
7.68 1.24201
7.69 1.14433
7.7 1.03161
7.71 0.906121
7.72 0.772012
7.73 0.633173
7.74 0.493163
7.75 0.355407
7.76 0.223437
7.77 0.0997043
7.78 -0.0135519
7.79 -0.113643
7.8 -0.20072
7.81 -0.271596
7.82 -0.327924
7.83 -0.368502
7.84 -0.393838
7.85 -0.405421
7.86 -0.402599
7.87 -0.388524
7.88 -0.363288
7.89 -0.329454
7.9 -0.288663
7.91 -0.242694
7.92 -0.193939
7.93 -0.144262
7.94 -0.09584
7.95 -0.0507085
7.96 -0.0108916
7.97 0.0223482
7.98 0.0464118
7.99 0.0613483
8 0.0650074
8.01 0.0575845
8.02 0.0387996
8.03 0.00820391
8.04 -0.0323923
8.05 -0.083538
8.06 -0.142528
8.07 -0.208408
8.08 -0.279127
8.09 -0.35262
8.1 -0.426941
8.11 -0.500114
8.12 -0.570124
8.13 -0.635571
8.14 -0.695267
8.15 -0.747917
8.16 -0.793882
8.17 -0.832047
8.18 -0.863818
8.19 -0.889422
8.2 -0.910012
8.21 -0.926961
8.22 -0.941226
8.23 -0.954299
8.24 -0.967042
8.25 -0.980162
8.26 -0.993871
8.27 -1.00787
8.28 -1.02135
8.29 -1.03256
8.3 -1.03975
8.31 -1.04012
8.32 -1.03049
8.33 -1.00852
8.34 -0.968743
8.35 -0.910476
8.36 -0.828266
8.37 -0.721215
8.38 -0.587481
8.39 -0.424428
8.4 -0.235289
8.41 -0.0170954
8.42 0.224056
8.43 0.486579
8.44 0.765392
8.45 1.05457
8.46 1.34829
8.47 1.63938
8.48 1.92005
8.49 2.18345
8.5 2.4229
8.51 2.62962
8.52 2.80192
8.53 2.9288
8.54 3.01253
8.55 3.04762
8.56 3.03351
8.57 2.97366
8.58 2.86434
8.59 2.7155
8.6 2.52678
8.61 2.30676
8.62 2.06113
8.63 1.79596
8.64 1.51976
8.65 1.23863
8.66 0.959951
8.67 0.68995
8.68 0.434565
8.69 0.197129
8.7 -0.015782
8.71 -0.205043
8.72 -0.366083
8.73 -0.500394
8.74 -0.608318
8.75 -0.68982
8.76 -0.749722
8.77 -0.787555
8.78 -0.809312
8.79 -0.817044
8.8 -0.814586
8.81 -0.805592
8.82 -0.792781
8.83 -0.779335
8.84 -0.767604
8.85 -0.759426
8.86 -0.75608
8.87 -0.758798
8.88 -0.767235
8.89 -0.782208
8.9 -0.802391
8.91 -0.82741
8.92 -0.856142
8.93 -0.887332
8.94 -0.919948
8.95 -0.952687
8.96 -0.98447
8.97 -1.0144
8.98 -1.0418
8.99 -1.06593
9 -1.08687
9.01 -1.10399
9.02 -1.11788
9.03 -1.12852
9.04 -1.13631
9.05 -1.1418
9.06 -1.14515
9.07 -1.14702
9.08 -1.14752
9.09 -1.14694
9.1 -1.14529
9.11 -1.14236
9.12 -1.138
9.13 -1.13147
9.14 -1.12243
9.15 -1.10999
9.16 -1.09335
9.17 -1.07203
9.18 -1.04458
9.19 -1.01122
9.2 -0.970729
9.21 -0.923329
9.22 -0.869002
9.23 -0.807655
9.24 -0.740617
9.25 -0.66801
9.26 -0.591789
9.27 -0.51315
9.28 -0.433987
9.29 -0.35604
9.3 -0.281738
9.31 -0.212467
9.32 -0.150804
9.33 -0.0980144
9.34 -0.0554709
9.35 -0.025046
9.36 -0.00604522
9.37 -0.000604883
9.38 -0.00678176
9.39 -0.0247728
9.4 -0.0533085
9.41 -0.0903729
9.42 -0.135021
9.43 -0.184236
9.44 -0.236322
9.45 -0.288747
9.46 -0.33951
9.47 -0.386308
9.48 -0.428046
9.49 -0.462432
9.5 -0.4895
9.51 -0.508294
9.52 -0.518876
9.53 -0.522182
9.54 -0.518232
9.55 -0.509189
9.56 -0.495937
9.57 -0.480475
9.58 -0.464379
9.59 -0.449457
9.6 -0.436957
9.61 -0.428705
9.62 -0.425157
9.63 -0.427287
9.64 -0.435398
9.65 -0.44907
9.66 -0.468633
9.67 -0.492657
9.68 -0.520825
9.69 -0.551832
9.7 -0.584733
9.71 -0.61854
9.72 -0.652346
9.73 -0.68534
9.74 -0.717093
9.75 -0.747196
9.76 -0.775498
9.77 -0.802111
9.78 -0.826887
9.79 -0.850144
9.8 -0.87165
9.81 -0.891261
9.82 -0.90846
9.83 -0.92204
9.84 -0.931138
9.85 -0.932931
9.86 -0.925956
9.87 -0.906855
9.88 -0.872208
9.89 -0.81992
9.9 -0.743555
9.91 -0.643176
9.92 -0.512583
9.93 -0.35108
9.94 -0.156894
9.95 0.07311
9.96 0.334812
9.97 0.631752
9.98 0.956772
9.99 1.30799
10 1.67956
10.01 2.06439
10.02 2.45576
10.03 2.84494
10.04 3.22275
10.05 3.58066
10.06 3.91061
10.07 4.20162
10.08 4.45133
10.09 4.6462
10.1 4.78827
10.11 4.87065
10.12 4.89185
10.13 4.85602
10.14 4.75757
10.15 4.60868
10.16 4.40836
10.17 4.16671
10.18 3.8906
10.19 3.58685
10.2 3.26622
10.21 2.93542
10.22 2.60391
10.23 2.27891
10.24 1.96764
10.25 1.67428
10.26 1.40632
10.27 1.16318
10.28 0.949736
10.29 0.76454
10.3 0.60695
10.31 0.47684
10.32 0.368813
10.33 0.28284
10.34 0.212529
10.35 0.155312
10.36 0.107055
10.37 0.0639548
10.38 0.0230642
10.39 -0.0184975
10.4 -0.0629741
10.41 -0.111734
10.42 -0.165578
10.43 -0.225144
10.44 -0.289556
10.45 -0.3588
10.46 -0.431207
10.47 -0.505742
10.48 -0.580847
10.49 -0.655166
10.5 -0.72698
10.51 -0.795416
10.52 -0.858935
10.53 -0.916933
10.54 -0.968804
10.55 -1.01365
10.56 -1.05206
10.57 -1.08291
10.58 -1.10724
10.59 -1.12475
10.6 -1.13571
10.61 -1.1408
10.62 -1.1395
10.63 -1.13298
10.64 -1.12084
10.65 -1.10372
10.66 -1.08186
10.67 -1.05527
10.68 -1.02479
10.69 -0.990255
10.7 -0.952677
10.71 -0.91243
10.72 -0.870295
10.73 -0.82714
10.74 -0.783878
10.75 -0.741477
10.76 -0.701109
10.77 -0.663745
10.78 -0.630323
10.79 -0.602162
10.8 -0.579423
10.81 -0.563714
10.82 -0.554647
10.83 -0.552937
10.84 -0.558631
10.85 -0.571072
10.86 -0.590745
10.87 -0.616063
10.88 -0.646923
10.89 -0.682003
10.9 -0.720345
10.91 -0.760955
10.92 -0.802574
10.93 -0.844168
10.94 -0.884723
10.95 -0.923288
10.96 -0.959007
10.97 -0.991493
10.98 -1.01974
10.99 -1.04406
11 -1.06381
11.01 -1.07933
11.02 -1.09079
11.03 -1.0983
11.04 -1.10273
11.05 -1.1042
11.06 -1.10373
11.07 -1.10187
11.08 -1.09939
11.09 -1.09699
11.1 -1.09545
11.11 -1.09522
11.12 -1.09695
11.13 -1.10085
11.14 -1.10704
11.15 -1.11557
11.16 -1.12586
11.17 -1.13747
11.18 -1.1493
11.19 -1.16017
11.2 -1.16841
11.21 -1.17256
11.22 -1.16974
11.23 -1.1588
11.24 -1.13639
11.25 -1.10081
11.26 -1.05003
11.27 -0.980754
11.28 -0.893501
11.29 -0.784007
11.3 -0.654246
11.31 -0.502747
11.32 -0.33011
11.33 -0.138948
11.34 0.0709871
11.35 0.294358
11.36 0.529207
11.37 0.770459
11.38 1.01377
11.39 1.25366
11.4 1.48574
11.41 1.70293
11.42 1.90194
11.43 2.07698
11.44 2.22344
11.45 2.34012
11.46 2.41969
11.47 2.46571
11.48 2.47331
11.49 2.44521
11.5 2.38276
11.51 2.28612
11.52 2.16204
11.53 2.01044
11.54 1.83917
11.55 1.65156
11.56 1.45307
11.57 1.24896
11.58 1.044
11.59 0.842598
11.6 0.649221
11.61 0.466874
11.62 0.297935
11.63 0.145414
11.64 0.00843048
11.65 -0.110214
11.66 -0.213138
11.67 -0.300269
11.68 -0.373197
11.69 -0.434582
11.7 -0.485182
11.71 -0.528621
11.72 -0.566235
11.73 -0.600494
11.74 -0.633036
11.75 -0.665326
11.76 -0.698315
11.77 -0.732746
11.78 -0.768562
11.79 -0.805544
11.8 -0.842906
11.81 -0.879661
11.82 -0.914159
11.83 -0.945202
11.84 -0.970629
11.85 -0.98894
11.86 -0.998577
11.87 -0.997134
11.88 -0.984578
11.89 -0.95788
11.9 -0.917893
11.91 -0.863275
11.92 -0.793856
11.93 -0.71092
11.94 -0.613312
11.95 -0.504147
11.96 -0.383526
11.97 -0.25408
11.98 -0.117852
11.99 0.0229117
12 0.165279
12.01 0.306411
12.02 0.44356
12.03 0.573717
12.04 0.693834
12.05 0.80228
12.06 0.894688
12.07 0.971407
12.08 1.02892
12.09 1.06724
12.1 1.08593
12.11 1.08356
12.12 1.06303
12.13 1.02268
12.14 0.966536
12.15 0.895576
12.16 0.812431
12.17 0.720427
12.18 0.621632
12.19 0.519861
12.2 0.417704
12.21 0.31803
12.22 0.223046
12.23 0.13532
12.24 0.0554008
12.25 -0.0144288
12.26 -0.0749896
12.27 -0.125866
12.28 -0.16779
12.29 -0.202443
12.3 -0.230541
12.31 -0.254746
12.32 -0.276562
12.33 -0.298172
12.34 -0.321249
12.35 -0.34763
12.36 -0.378009
12.37 -0.413788
12.38 -0.454495
12.39 -0.500068
12.4 -0.549506
12.41 -0.601233
