# xPDFsuite Configuration #
[PDF]
wavelength = 0.1432
dataformat = twotheta
inputfile = 1_1Pd_CeO2_cycle-00193.chi
backgroundfile = background-00000.chi
mode = xray
bgscale = 1.007
composition = CeO2
outputtype = gr
qmaxinst = 28.8974762299
qmin = 0.5
qmax = 27.9
rmax = 50.0
rmin = 0.0
rstep = 0.01
rpoly = 1.8657

[Misc]
inputdir = G:/SankarDec16/1Pd/Chi
savedir = D:/DATA/APS_CeO2/1Pd
backgroundfilefull = G:/SankarDec16/Background/background-00000.chi

#### start data
#S 1
#L r($\AA$)  G($\AA^{-2}$)
0 0
0.01 -0.00588281
0.02 -0.011322
0.03 -0.015861
0.04 -0.0191557
0.05 -0.0210148
0.06 -0.0211311
0.07 -0.0197094
0.08 -0.0166515
0.09 -0.0123487
0.1 -0.00707195
0.11 -0.00123594
0.12 0.00470758
0.13 0.0102514
0.14 0.0150369
0.15 0.0186247
0.16 0.0207578
0.17 0.0213341
0.18 0.0201449
0.19 0.0174921
0.2 0.0133888
0.21 0.00829144
0.22 0.00253763
0.23 -0.00340708
0.24 -0.0091178
0.25 -0.0140483
0.26 -0.017942
0.27 -0.0203981
0.28 -0.0212593
0.29 -0.0205177
0.3 -0.0180732
0.31 -0.0143105
0.32 -0.0093533
0.33 -0.00370159
0.34 0.00225701
0.35 0.00802813
0.36 0.0132345
0.37 0.0173173
0.38 0.0201345
0.39 0.0213436
0.4 0.0208943
0.41 0.0188737
0.42 0.0152959
0.43 0.0106093
0.44 0.00504273
0.45 -0.000884237
0.46 -0.00675284
0.47 -0.0120635
0.48 -0.0165052
0.49 -0.0195336
0.5 -0.0211281
0.51 -0.0210216
0.52 -0.0192737
0.53 -0.0160623
0.54 -0.0115153
0.55 -0.00612375
0.56 -0.000210512
0.57 0.00571021
0.58 0.0112089
0.59 0.0158048
0.6 0.0192683
0.61 0.0210964
0.62 0.0213911
0.63 0.019974
0.64 0.0170119
0.65 0.0127655
0.66 0.00747068
0.67 0.00163733
0.68 -0.00433303
0.69 -0.00995616
0.7 -0.0148128
0.71 -0.0184638
0.72 -0.0207729
0.73 -0.0213018
0.74 -0.0202709
0.75 -0.0175983
0.76 -0.01355
0.77 -0.00845595
0.78 -0.00264791
0.79 0.0033707
0.8 0.00914109
0.81 0.0142329
0.82 0.018259
0.83 0.0208445
0.84 0.0219529
0.85 0.0212343
0.86 0.0190144
0.87 0.0153121
0.88 0.0104771
0.89 0.00488937
0.9 -0.00104432
0.91 -0.00685696
0.92 -0.0120639
0.93 -0.0163169
0.94 -0.0192908
0.95 -0.0207067
0.96 -0.0206358
0.97 -0.0188577
0.98 -0.0157883
0.99 -0.0115655
1 -0.00661365
1.01 -0.0013474
1.02 0.00375431
1.03 0.00829929
1.04 0.0117899
1.05 0.0139986
1.06 0.0146901
1.07 0.0137179
1.08 0.0112907
1.09 0.00736599
1.1 0.00247221
1.11 -0.00308559
1.12 -0.00877168
1.13 -0.0141088
1.14 -0.0184755
1.15 -0.0215532
1.16 -0.0227459
1.17 -0.0219386
1.18 -0.0189381
1.19 -0.013675
1.2 -0.00651851
1.21 0.00250204
1.22 0.0126673
1.23 0.0235497
1.24 0.0344596
1.25 0.0447983
1.26 0.0537723
1.27 0.0610004
1.28 0.0657055
1.29 0.0677266
1.3 0.0667656
1.31 0.0626331
1.32 0.0557239
1.33 0.045839
1.34 0.0338097
1.35 0.0199212
1.36 0.00486697
1.37 -0.0107189
1.38 -0.0261448
1.39 -0.040836
1.4 -0.0540773
1.41 -0.0654936
1.42 -0.0746692
1.43 -0.0812274
1.44 -0.0853017
1.45 -0.0864352
1.46 -0.0851579
1.47 -0.0814137
1.48 -0.0755582
1.49 -0.0679632
1.5 -0.0588383
1.51 -0.0487142
1.52 -0.037822
1.53 -0.0265664
1.54 -0.0152125
1.55 -0.00403908
1.56 0.00677749
1.57 0.0169631
1.58 0.0264567
1.59 0.0350541
1.6 0.0426445
1.61 0.0491557
1.62 0.0543321
1.63 0.0582292
1.64 0.0605405
1.65 0.061293
1.66 0.0603532
1.67 0.0575847
1.68 0.0531476
1.69 0.0467837
1.7 0.038869
1.71 0.0294074
1.72 0.0186905
1.73 0.00703802
1.74 -0.00525044
1.75 -0.0177252
1.76 -0.0299753
1.77 -0.0416015
1.78 -0.0522328
1.79 -0.0614795
1.8 -0.0692677
1.81 -0.0751869
1.82 -0.0794928
1.83 -0.0821228
1.84 -0.0833525
1.85 -0.0835255
1.86 -0.0829786
1.87 -0.0822269
1.88 -0.0817392
1.89 -0.0819554
1.9 -0.0832646
1.91 -0.0860407
1.92 -0.0902963
1.93 -0.0963258
1.94 -0.103741
1.95 -0.112397
1.96 -0.121794
1.97 -0.131392
1.98 -0.140473
1.99 -0.148442
2 -0.15439
2.01 -0.157805
2.02 -0.158066
2.03 -0.154541
2.04 -0.147336
2.05 -0.135665
2.06 -0.120241
2.07 -0.100924
2.08 -0.0782372
2.09 -0.0527804
2.1 -0.0249199
2.11 0.00445466
2.12 0.0349208
2.13 0.0658402
2.14 0.096839
2.15 0.127629
2.16 0.158143
2.17 0.188417
2.18 0.218716
2.19 0.249394
2.2 0.28091
2.21 0.31365
2.22 0.348221
2.23 0.384676
2.24 0.423412
2.25 0.464119
2.26 0.50649
2.27 0.549842
2.28 0.593206
2.29 0.635143
2.3 0.674388
2.31 0.709053
2.32 0.737398
2.33 0.758126
2.34 0.768608
2.35 0.768914
2.36 0.7566
2.37 0.732213
2.38 0.695396
2.39 0.646189
2.4 0.586753
2.41 0.517082
2.42 0.440649
2.43 0.359116
2.44 0.275421
2.45 0.192134
2.46 0.112356
2.47 0.0379836
2.48 -0.0279421
2.49 -0.0843846
2.5 -0.129998
2.51 -0.16372
2.52 -0.186807
2.53 -0.198216
2.54 -0.200911
2.55 -0.195773
2.56 -0.185279
2.57 -0.171782
2.58 -0.157679
2.59 -0.14521
2.6 -0.136761
2.61 -0.133696
2.62 -0.137246
2.63 -0.148348
2.64 -0.166254
2.65 -0.19148
2.66 -0.221859
2.67 -0.25636
2.68 -0.292865
2.69 -0.329424
2.7 -0.363694
2.71 -0.394164
2.72 -0.418589
2.73 -0.436243
2.74 -0.4463
2.75 -0.448304
2.76 -0.443465
2.77 -0.431753
2.78 -0.415645
2.79 -0.396552
2.8 -0.376808
2.81 -0.358429
2.82 -0.343952
2.83 -0.334606
2.84 -0.332621
2.85 -0.338321
2.86 -0.352213
2.87 -0.374313
2.88 -0.402981
2.89 -0.437661
2.9 -0.475557
2.91 -0.514744
2.92 -0.552568
2.93 -0.586873
2.94 -0.614718
2.95 -0.63518
2.96 -0.645817
2.97 -0.646717
2.98 -0.637609
2.99 -0.618804
3 -0.592474
3.01 -0.55952
3.02 -0.52326
3.03 -0.486006
3.04 -0.450778
3.05 -0.419943
3.06 -0.396734
3.07 -0.38198
3.08 -0.378228
3.09 -0.385148
3.1 -0.40283
3.11 -0.430693
3.12 -0.466248
3.13 -0.508279
3.14 -0.553226
3.15 -0.598544
3.16 -0.641101
3.17 -0.678558
3.18 -0.707724
3.19 -0.728076
3.2 -0.737389
3.21 -0.736456
3.22 -0.72569
3.23 -0.706326
3.24 -0.681199
3.25 -0.652454
3.26 -0.623672
3.27 -0.597987
3.28 -0.578628
3.29 -0.567774
3.3 -0.56878
3.31 -0.581339
3.32 -0.607443
3.33 -0.645338
3.34 -0.693843
3.35 -0.750735
3.36 -0.812354
3.37 -0.875341
3.38 -0.935638
3.39 -0.989216
3.4 -1.03244
3.41 -1.06312
3.42 -1.07749
3.43 -1.07674
3.44 -1.05901
3.45 -1.02719
3.46 -0.983333
3.47 -0.930826
3.48 -0.874362
3.49 -0.81863
3.5 -0.768251
3.51 -0.728077
3.52 -0.701888
3.53 -0.691466
3.54 -0.700011
3.55 -0.724619
3.56 -0.765071
3.57 -0.815733
3.58 -0.871278
3.59 -0.923645
3.6 -0.965392
3.61 -0.983893
3.62 -0.972818
3.63 -0.920175
3.64 -0.817682
3.65 -0.661123
3.66 -0.438466
3.67 -0.155831
3.68 0.194767
3.69 0.604348
3.7 1.06839
3.71 1.5792
3.72 2.1215
3.73 2.68473
3.74 3.25038
3.75 3.80232
3.76 4.32252
3.77 4.79733
3.78 5.20395
3.79 5.53854
3.8 5.77977
3.81 5.9272
3.82 5.9745
3.83 5.91603
3.84 5.76484
3.85 5.51186
3.86 5.18062
3.87 4.77542
3.88 4.31283
3.89 3.80946
3.9 3.27898
3.91 2.74016
3.92 2.20816
3.93 1.69714
3.94 1.21912
3.95 0.7868
3.96 0.402265
3.97 0.0791655
3.98 -0.189192
3.99 -0.398324
4 -0.552599
4.01 -0.65898
4.02 -0.719229
4.03 -0.746469
4.04 -0.744745
4.05 -0.724938
4.06 -0.694003
4.07 -0.65926
4.08 -0.626464
4.09 -0.601266
4.1 -0.58578
4.11 -0.582605
4.12 -0.591896
4.13 -0.612293
4.14 -0.642927
4.15 -0.679916
4.16 -0.720746
4.17 -0.761546
4.18 -0.799135
4.19 -0.829919
4.2 -0.85224
4.21 -0.862373
4.22 -0.860763
4.23 -0.845802
4.24 -0.817916
4.25 -0.778406
4.26 -0.727363
4.27 -0.667855
4.28 -0.6007
4.29 -0.528531
4.3 -0.452992
4.31 -0.375785
4.32 -0.298334
4.33 -0.221817
4.34 -0.146819
4.35 -0.0738681
4.36 -0.00307165
4.37 0.0657254
4.38 0.132473
4.39 0.197603
4.4 0.26099
4.41 0.322697
4.42 0.382408
4.43 0.439405
4.44 0.493228
4.45 0.542109
4.46 0.585477
4.47 0.621464
4.48 0.648671
4.49 0.666274
4.5 0.67178
4.51 0.665908
4.52 0.646533
4.53 0.614612
4.54 0.570199
4.55 0.513574
4.56 0.447102
4.57 0.37096
4.58 0.28845
4.59 0.201134
4.6 0.111599
4.61 0.0220602
4.62 -0.0649581
4.63 -0.1479
4.64 -0.224446
4.65 -0.293753
4.66 -0.354853
4.67 -0.406856
4.68 -0.450689
4.69 -0.485406
4.7 -0.513015
4.71 -0.533868
4.72 -0.549387
4.73 -0.56101
4.74 -0.569767
4.75 -0.577199
4.76 -0.584269
4.77 -0.591924
4.78 -0.600782
4.79 -0.611338
4.8 -0.623546
4.81 -0.637583
4.82 -0.652906
4.83 -0.669201
4.84 -0.685873
4.85 -0.70238
4.86 -0.718057
4.87 -0.732535
4.88 -0.745222
4.89 -0.755966
4.9 -0.76459
4.91 -0.770978
4.92 -0.775464
4.93 -0.777983
4.94 -0.779121
4.95 -0.779113
4.96 -0.77841
4.97 -0.777405
4.98 -0.776488
4.99 -0.775963
5 -0.776177
5.01 -0.777306
5.02 -0.77953
5.03 -0.783041
5.04 -0.787782
5.05 -0.794023
5.06 -0.801579
5.07 -0.810561
5.08 -0.820903
5.09 -0.832461
5.1 -0.845208
5.11 -0.858759
5.12 -0.872844
5.13 -0.886893
5.14 -0.900268
5.15 -0.91197
5.16 -0.921216
5.17 -0.92616
5.18 -0.925973
5.19 -0.918672
5.2 -0.902608
5.21 -0.876721
5.22 -0.838043
5.23 -0.786963
5.24 -0.72068
5.25 -0.639674
5.26 -0.543486
5.27 -0.431735
5.28 -0.306888
5.29 -0.168541
5.3 -0.0207901
5.31 0.134403
5.32 0.293249
5.33 0.452092
5.34 0.606212
5.35 0.752182
5.36 0.884464
5.37 0.99994
5.38 1.09491
5.39 1.16491
5.4 1.21041
5.41 1.22549
5.42 1.21374
5.43 1.17314
5.44 1.10554
5.45 1.01429
5.46 0.899914
5.47 0.768949
5.48 0.623561
5.49 0.46957
5.5 0.311174
5.51 0.153217
5.52 -0.000492141
5.53 -0.144891
5.54 -0.278044
5.55 -0.396511
5.56 -0.49862
5.57 -0.584308
5.58 -0.651331
5.59 -0.702645
5.6 -0.73734
5.61 -0.758398
5.62 -0.767442
5.63 -0.766254
5.64 -0.757876
5.65 -0.74345
5.66 -0.725637
5.67 -0.705606
5.68 -0.684592
5.69 -0.663264
5.7 -0.641875
5.71 -0.620297
5.72 -0.598019
5.73 -0.57437
5.74 -0.548553
5.75 -0.519528
5.76 -0.486966
5.77 -0.449671
5.78 -0.408055
5.79 -0.361863
5.8 -0.311712
5.81 -0.258612
5.82 -0.203635
5.83 -0.148512
5.84 -0.0950937
5.85 -0.045238
5.86 -0.000800824
5.87 0.0359115
5.88 0.0642635
5.89 0.0813924
5.9 0.08795
5.91 0.0826131
5.92 0.0656143
5.93 0.0380317
5.94 -0.00032984
5.95 -0.0467484
5.96 -0.100553
5.97 -0.159232
5.98 -0.221025
5.99 -0.28394
6 -0.346236
6.01 -0.406023
6.02 -0.462382
6.03 -0.514139
6.04 -0.560789
6.05 -0.602465
6.06 -0.638786
6.07 -0.670949
6.08 -0.699181
6.09 -0.724706
6.1 -0.748369
6.11 -0.771077
6.12 -0.793639
6.13 -0.816706
6.14 -0.840561
6.15 -0.865361
6.16 -0.890908
6.17 -0.916797
6.18 -0.942386
6.19 -0.967025
6.2 -0.989781
6.21 -1.01002
6.22 -1.02713
6.23 -1.04043
6.24 -1.05013
6.25 -1.05569
6.26 -1.058
6.27 -1.05732
6.28 -1.05449
6.29 -1.05039
6.3 -1.0458
6.31 -1.04144
6.32 -1.03776
6.33 -1.03474
6.34 -1.03193
6.35 -1.02814
6.36 -1.02192
6.37 -1.01015
6.38 -0.990539
6.39 -0.958935
6.4 -0.911164
6.41 -0.844236
6.42 -0.750873
6.43 -0.630765
6.44 -0.476681
6.45 -0.288281
6.46 -0.0634274
6.47 0.200483
6.48 0.498585
6.49 0.833942
6.5 1.19758
6.51 1.58651
6.52 1.99283
6.53 2.40812
6.54 2.82288
6.55 3.22763
6.56 3.61023
6.57 3.96152
6.58 4.27183
6.59 4.52883
6.6 4.73109
6.61 4.86241
6.62 4.928
6.63 4.92018
6.64 4.83978
6.65 4.69262
6.66 4.47517
6.67 4.20277
6.68 3.8765
6.69 3.5102
6.7 3.1131
6.71 2.69575
6.72 2.27038
6.73 1.8479
6.74 1.43805
6.75 1.05073
6.76 0.694033
6.77 0.371889
6.78 0.0937161
6.79 -0.143907
6.8 -0.334824
6.81 -0.483433
6.82 -0.591426
6.83 -0.660592
6.84 -0.699182
6.85 -0.708001
6.86 -0.696594
6.87 -0.668732
6.88 -0.63041
6.89 -0.586607
6.9 -0.541412
6.91 -0.498196
6.92 -0.459779
6.93 -0.427438
6.94 -0.401919
6.95 -0.383576
6.96 -0.371085
6.97 -0.364219
6.98 -0.360909
6.99 -0.360091
7 -0.360326
7.01 -0.360589
7.02 -0.360063
7.03 -0.358571
7.04 -0.356142
7.05 -0.353447
7.06 -0.351367
7.07 -0.3513
7.08 -0.35428
7.09 -0.36241
7.1 -0.376304
7.11 -0.397467
7.12 -0.426589
7.13 -0.463483
7.14 -0.508895
7.15 -0.560984
7.16 -0.619355
7.17 -0.681822
7.18 -0.74658
7.19 -0.811306
7.2 -0.873951
7.21 -0.931688
7.22 -0.983186
7.23 -1.02635
7.24 -1.05998
7.25 -1.084
7.26 -1.09707
7.27 -1.10112
7.28 -1.09601
7.29 -1.08395
7.3 -1.06651
7.31 -1.04563
7.32 -1.02349
7.33 -1.00203
7.34 -0.982807
7.35 -0.967164
7.36 -0.955817
7.37 -0.948615
7.38 -0.945466
7.39 -0.944695
7.4 -0.94477
7.41 -0.943269
7.42 -0.937724
7.43 -0.924754
7.44 -0.902577
7.45 -0.866646
7.46 -0.816448
7.47 -0.749078
7.48 -0.663461
7.49 -0.560273
7.5 -0.437775
7.51 -0.299838
7.52 -0.146718
7.53 0.0173984
7.54 0.189247
7.55 0.364669
7.56 0.539253
7.57 0.707684
7.58 0.866235
7.59 1.00996
7.6 1.13482
7.61 1.23895
7.62 1.31673
7.63 1.3701
7.64 1.39498
7.65 1.39345
7.66 1.36604
7.67 1.31306
7.68 1.23932
7.69 1.14457
7.7 1.03484
7.71 0.912339
7.72 0.781177
7.73 0.645157
7.74 0.507699
7.75 0.372146
7.76 0.24185
7.77 0.11917
7.78 0.00624007
7.79 -0.0943815
7.8 -0.182791
7.81 -0.255922
7.82 -0.315246
7.83 -0.359504
7.84 -0.389014
7.85 -0.405046
7.86 -0.406701
7.87 -0.39687
7.88 -0.375341
7.89 -0.344451
7.9 -0.305633
7.91 -0.260422
7.92 -0.211256
7.93 -0.159778
7.94 -0.10841
7.95 -0.0592382
7.96 -0.0145354
7.97 0.0241289
7.98 0.0538425
7.99 0.0742782
8 0.0828845
8.01 0.0795318
8.02 0.0636481
8.03 0.0344471
8.04 -0.00624118
8.05 -0.0592791
8.06 -0.121682
8.07 -0.192474
8.08 -0.269328
8.09 -0.349814
8.1 -0.431655
8.11 -0.512395
8.12 -0.589571
8.13 -0.661367
8.14 -0.726236
8.15 -0.782465
8.16 -0.830385
8.17 -0.868481
8.18 -0.898421
8.19 -0.9204
8.2 -0.935821
8.21 -0.946427
8.22 -0.953455
8.23 -0.958929
8.24 -0.964127
8.25 -0.970212
8.26 -0.97777
8.27 -0.98693
8.28 -0.996958
8.29 -1.00651
8.3 -1.01364
8.31 -1.01558
8.32 -1.00895
8.33 -0.99109
8.34 -0.956289
8.35 -0.903374
8.36 -0.826528
8.37 -0.724444
8.38 -0.59495
8.39 -0.435046
8.4 -0.247897
8.41 -0.0302241
8.42 0.211688
8.43 0.476253
8.44 0.758169
8.45 1.0512
8.46 1.34924
8.47 1.64471
8.48 1.92944
8.49 2.19622
8.5 2.43809
8.51 2.64597
8.52 2.81816
8.53 2.94339
8.54 3.02421
8.55 3.05517
8.56 3.036
8.57 2.97051
8.58 2.85531
8.59 2.70077
8.6 2.50696
8.61 2.28282
8.62 2.03433
8.63 1.76788
8.64 1.49197
8.65 1.21296
8.66 0.937945
8.67 0.673086
8.68 0.42402
8.69 0.193696
8.7 -0.0116583
8.71 -0.19339
8.72 -0.347376
8.73 -0.475497
8.74 -0.57843
8.75 -0.656527
8.76 -0.714613
8.77 -0.75258
8.78 -0.77616
8.79 -0.787422
8.8 -0.789966
8.81 -0.787102
8.82 -0.781313
8.83 -0.775297
8.84 -0.771057
8.85 -0.770028
8.86 -0.773169
8.87 -0.781345
8.88 -0.794118
8.89 -0.811957
8.9 -0.833661
8.91 -0.858771
8.92 -0.886272
8.93 -0.915129
8.94 -0.944396
8.95 -0.973141
8.96 -1.00046
8.97 -1.02578
8.98 -1.04861
8.99 -1.06847
9 -1.08556
9.01 -1.09946
9.02 -1.11074
9.03 -1.11947
9.04 -1.126
9.05 -1.13081
9.06 -1.13404
9.07 -1.13618
9.08 -1.13729
9.09 -1.13751
9.1 -1.13678
9.11 -1.13481
9.12 -1.1314
9.13 -1.12577
9.14 -1.11757
9.15 -1.10592
9.16 -1.09003
9.17 -1.06944
9.18 -1.04272
9.19 -1.01011
9.2 -0.970391
9.21 -0.923766
9.22 -0.870199
9.23 -0.809554
9.24 -0.743124
9.25 -0.670959
9.26 -0.594987
9.27 -0.516348
9.28 -0.436912
9.29 -0.358431
9.3 -0.283321
9.31 -0.213049
9.32 -0.150242
9.33 -0.0962746
9.34 -0.0526211
9.35 -0.0212924
9.36 -0.00167854
9.37 0.00391769
9.38 -0.0025866
9.39 -0.0214743
9.4 -0.0514866
9.41 -0.0905426
9.42 -0.137676
9.43 -0.189681
9.44 -0.24473
9.45 -0.300072
9.46 -0.353505
9.47 -0.402461
9.48 -0.445711
9.49 -0.480654
9.5 -0.507306
9.51 -0.524559
9.52 -0.532461
9.53 -0.53207
9.54 -0.523412
9.55 -0.508981
9.56 -0.489839
9.57 -0.468341
9.58 -0.446371
9.59 -0.426134
9.6 -0.409114
9.61 -0.397594
9.62 -0.392111
9.63 -0.393894
9.64 -0.403323
9.65 -0.419859
9.66 -0.443912
9.67 -0.47363
9.68 -0.508551
9.69 -0.546927
9.7 -0.587442
9.71 -0.628652
9.72 -0.669298
9.73 -0.70805
9.74 -0.744284
9.75 -0.77726
9.76 -0.806663
9.77 -0.832668
9.78 -0.85496
9.79 -0.874268
9.8 -0.890443
9.81 -0.903786
9.82 -0.914146
9.83 -0.920758
9.84 -0.923168
9.85 -0.919059
9.86 -0.907233
9.87 -0.884692
9.88 -0.848235
9.89 -0.795756
9.9 -0.721041
9.91 -0.623794
9.92 -0.49779
9.93 -0.341934
9.94 -0.15413
9.95 0.0691503
9.96 0.324191
9.97 0.61498
9.98 0.934651
9.99 1.28166
10 1.65043
10.01 2.03385
10.02 2.42549
10.03 2.81631
10.04 3.19716
10.05 3.55921
10.06 3.89412
10.07 4.19064
10.08 4.44606
10.09 4.6465
10.1 4.79372
10.11 4.88059
10.12 4.9054
10.13 4.87224
10.14 4.77538
10.15 4.62716
10.16 4.42655
10.17 4.18388
10.18 3.9062
10.19 3.6005
10.2 3.27779
10.21 2.94496
10.22 2.61164
10.23 2.28518
10.24 1.97291
10.25 1.67898
10.26 1.41092
10.27 1.16801
10.28 0.955058
10.29 0.77045
10.3 0.613404
10.31 0.483626
10.32 0.375622
10.33 0.289198
10.34 0.217961
10.35 0.159294
10.36 0.109102
10.37 0.0636879
10.38 0.0201944
10.39 -0.0240672
10.4 -0.0711685
10.41 -0.122288
10.42 -0.178059
10.43 -0.238917
10.44 -0.303949
10.45 -0.372949
10.46 -0.444336
10.47 -0.517058
10.48 -0.589654
10.49 -0.660944
10.5 -0.729341
10.51 -0.794228
10.52 -0.854277
10.53 -0.909107
10.54 -0.958301
10.55 -1.00119
10.56 -1.03837
10.57 -1.06895
10.58 -1.09384
10.59 -1.11277
10.6 -1.12588
10.61 -1.13368
10.62 -1.13552
10.63 -1.13228
10.64 -1.12339
10.65 -1.10926
10.66 -1.08996
10.67 -1.0653
10.68 -1.03609
10.69 -1.00201
10.7 -0.964162
10.71 -0.922923
10.72 -0.879182
10.73 -0.833966
10.74 -0.788308
10.75 -0.743386
10.76 -0.700531
10.77 -0.660873
10.78 -0.625468
10.79 -0.59576
10.8 -0.571907
10.81 -0.555596
10.82 -0.54634
10.83 -0.544814
10.84 -0.550959
10.85 -0.563998
10.86 -0.5843
10.87 -0.610168
10.88 -0.641399
10.89 -0.676619
10.9 -0.714851
10.91 -0.755105
10.92 -0.796203
10.93 -0.837192
10.94 -0.877193
10.95 -0.915397
10.96 -0.951105
10.97 -0.98403
10.98 -1.01336
10.99 -1.03937
11 -1.06154
11.01 -1.08011
11.02 -1.09518
11.03 -1.10673
11.04 -1.11538
11.05 -1.12103
11.06 -1.12445
11.07 -1.12588
11.08 -1.12585
11.09 -1.12489
11.1 -1.12345
11.11 -1.12207
11.12 -1.12123
11.13 -1.12128
11.14 -1.12249
11.15 -1.12509
11.16 -1.12887
11.17 -1.13369
11.18 -1.13887
11.19 -1.1436
11.2 -1.14661
11.21 -1.14669
11.22 -1.14136
11.23 -1.12944
11.24 -1.10782
11.25 -1.07463
11.26 -1.0277
11.27 -0.963536
11.28 -0.882217
11.29 -0.779159
11.3 -0.655832
11.31 -0.510331
11.32 -0.342797
11.33 -0.15557
11.34 0.0520973
11.35 0.274811
11.36 0.510881
11.37 0.755052
11.38 1.00281
11.39 1.24844
11.4 1.48705
11.41 1.71118
11.42 1.91696
11.43 2.09811
11.44 2.24947
11.45 2.36954
11.46 2.45042
11.47 2.49574
11.48 2.50031
11.49 2.46708
11.5 2.3976
11.51 2.29229
11.52 2.1585
11.53 1.99662
11.54 1.81516
11.55 1.61808
11.56 1.41148
11.57 1.201
11.58 0.992167
11.59 0.78932
11.6 0.59739
11.61 0.419189
11.62 0.256924
11.63 0.113413
11.64 -0.0129159
11.65 -0.119639
11.66 -0.210183
11.67 -0.285106
11.68 -0.346738
11.69 -0.398238
11.7 -0.441185
11.71 -0.479289
11.72 -0.514438
11.73 -0.549033
11.74 -0.584637
11.75 -0.622646
11.76 -0.663363
11.77 -0.707285
11.78 -0.753539
11.79 -0.801339
11.8 -0.849179
11.81 -0.895523
11.82 -0.93795
11.83 -0.975057
11.84 -1.00413
11.85 -1.02363
11.86 -1.032
11.87 -1.02683
11.88 -1.00864
11.89 -0.974556
11.9 -0.926172
11.91 -0.862638
11.92 -0.78444
11.93 -0.693381
11.94 -0.589008
11.95 -0.474669
11.96 -0.350992
11.97 -0.220672
11.98 -0.0857823
11.99 0.0513951
12 0.188407
12.01 0.322543
12.02 0.451721
12.03 0.573374
12.04 0.685057
12.05 0.785626
12.06 0.87137
12.07 0.942872
12.08 0.997121
12.09 1.03421
12.1 1.05375
12.11 1.05439
12.12 1.03857
12.13 1.00457
12.14 0.955775
12.15 0.892783
12.16 0.81766
12.17 0.733267
12.18 0.641066
12.19 0.544616
12.2 0.446029
12.21 0.348056
12.22 0.252834
12.23 0.162837
12.24 0.0789926
12.25 0.00362625
12.26 -0.0635203
12.27 -0.121682
12.28 -0.171078
12.29 -0.212948
12.3 -0.247447
12.31 -0.276963
12.32 -0.302539
12.33 -0.326209
12.34 -0.349546
12.35 -0.374257
12.36 -0.401357
12.37 -0.43224
12.38 -0.466942
12.39 -0.5057
12.4 -0.547977
12.41 -0.592625
