# xPDFsuite Configuration #
[PDF]
wavelength = 0.1432
dataformat = twotheta
inputfile = 1_1Pd_CeO2_cycle-00271.chi
backgroundfile = background-00000.chi
mode = xray
bgscale = 1.007
composition = CeO2
outputtype = gr
qmaxinst = 28.8974762299
qmin = 0.5
qmax = 27.9
rmax = 50.0
rmin = 0.0
rstep = 0.01
rpoly = 1.8657

[Misc]
inputdir = G:/SankarDec16/1Pd/Chi
savedir = D:/DATA/APS_CeO2/1Pd
backgroundfilefull = G:/SankarDec16/Background/background-00000.chi

#### start data
#S 1
#L r($\AA$)  G($\AA^{-2}$)
0 0
0.01 -0.00542174
0.02 -0.0104353
0.03 -0.0146204
0.04 -0.0176603
0.05 -0.0193788
0.06 -0.0194925
0.07 -0.0181897
0.08 -0.015379
0.09 -0.0114201
0.1 -0.00656178
0.11 -0.00118495
0.12 0.00429445
0.13 0.00941022
0.14 0.0138313
0.15 0.0171527
0.16 0.0191368
0.17 0.0196883
0.18 0.0186132
0.19 0.0161881
0.2 0.0124228
0.21 0.00773651
0.22 0.00243873
0.23 -0.00304287
0.24 -0.00831637
0.25 -0.0128795
0.26 -0.0164936
0.27 -0.0187884
0.28 -0.0196163
0.29 -0.0189677
0.3 -0.0167471
0.31 -0.0133066
0.32 -0.00875675
0.33 -0.00355704
0.34 0.00193701
0.35 0.00727077
0.36 0.0120949
0.37 0.0158948
0.38 0.0185353
0.39 0.0196987
0.4 0.0193344
0.41 0.017519
0.42 0.0142607
0.43 0.00997055
0.44 0.00485497
0.45 -0.000607803
0.46 -0.00603295
0.47 -0.01096
0.48 -0.0150989
0.49 -0.0179469
0.5 -0.0194793
0.51 -0.0194458
0.52 -0.0178957
0.53 -0.0149887
0.54 -0.0108366
0.55 -0.00589034
0.56 -0.000442733
0.57 0.00503142
0.58 0.0101363
0.59 0.0144269
0.6 0.0176869
0.61 0.0194489
0.62 0.0198002
0.63 0.0185701
0.64 0.0159062
0.65 0.0120438
0.66 0.00719367
0.67 0.0018256
0.68 -0.00369486
0.69 -0.00891842
0.7 -0.013457
0.71 -0.016902
0.72 -0.0191209
0.73 -0.0197039
0.74 -0.018846
0.75 -0.0164643
0.76 -0.0127968
0.77 -0.00814319
0.78 -0.00280228
0.79 0.00276017
0.8 0.00812508
0.81 0.0128905
0.82 0.0166964
0.83 0.0191912
0.84 0.0203328
0.85 0.0197911
0.86 0.0178579
0.87 0.014542
0.88 0.0101592
0.89 0.00505588
0.9 -0.000399416
0.91 -0.00577288
0.92 -0.0106205
0.93 -0.014615
0.94 -0.0174525
0.95 -0.0188698
0.96 -0.0189249
0.97 -0.0174083
0.98 -0.0146972
0.99 -0.0109135
1 -0.00644585
1.01 -0.00167596
1.02 0.00295439
1.03 0.00707892
1.04 0.0102346
1.05 0.012205
1.06 0.0127672
1.07 0.0117794
1.08 0.00943167
1.09 0.00567952
1.1 0.00101508
1.11 -0.00427729
1.12 -0.00969336
1.13 -0.0147809
1.14 -0.0189471
1.15 -0.0218832
1.16 -0.0230108
1.17 -0.0222077
1.18 -0.0192733
1.19 -0.0141201
1.2 -0.00708948
1.21 0.00182275
1.22 0.0119284
1.23 0.0228379
1.24 0.0338912
1.25 0.0445062
1.26 0.0539188
1.27 0.0617285
1.28 0.0671657
1.29 0.0700296
1.3 0.0699895
1.31 0.0668047
1.32 0.0608166
1.33 0.0517502
1.34 0.0403903
1.35 0.0269495
1.36 0.0120732
1.37 -0.00362938
1.38 -0.0195246
1.39 -0.0349977
1.4 -0.0493616
1.41 -0.0621753
1.42 -0.0729814
1.43 -0.0813361
1.44 -0.0872841
1.45 -0.0902792
1.46 -0.0907623
1.47 -0.0885789
1.48 -0.0840022
1.49 -0.0773518
1.5 -0.0687421
1.51 -0.0587294
1.52 -0.0474799
1.53 -0.0354567
1.54 -0.0229497
1.55 -0.0102897
1.56 0.0022447
1.57 0.0143149
1.58 0.0257372
1.59 0.0362116
1.6 0.0455229
1.61 0.0535232
1.62 0.0598459
1.63 0.0645368
1.64 0.067203
1.65 0.0678989
1.66 0.066491
1.67 0.0628668
1.68 0.0572747
1.69 0.0494889
1.7 0.0400104
1.71 0.0289213
1.72 0.0166184
1.73 0.00350495
1.74 -0.0100107
1.75 -0.0234428
1.76 -0.0362875
1.77 -0.0481457
1.78 -0.058628
1.79 -0.0673458
1.8 -0.0742953
1.81 -0.0790759
1.82 -0.0820598
1.83 -0.0832498
1.84 -0.0830241
1.85 -0.0818131
1.86 -0.0800649
1.87 -0.0783477
1.88 -0.0772343
1.89 -0.0771848
1.9 -0.0786233
1.91 -0.0819419
1.92 -0.0870925
1.93 -0.0943771
1.94 -0.103286
1.95 -0.113609
1.96 -0.124729
1.97 -0.136001
1.98 -0.146566
1.99 -0.155746
2 -0.162482
2.01 -0.166208
2.02 -0.166229
2.03 -0.161848
2.04 -0.153227
2.05 -0.13951
2.06 -0.121566
2.07 -0.0993001
2.08 -0.0733816
2.09 -0.0445592
2.1 -0.0133761
2.11 0.0191155
2.12 0.0522733
2.13 0.0853197
2.14 0.117721
2.15 0.149023
2.16 0.179168
2.17 0.207988
2.18 0.235912
2.19 0.26326
2.2 0.290631
2.21 0.318587
2.22 0.347892
2.23 0.378879
2.24 0.412188
2.25 0.447783
2.26 0.485613
2.27 0.525289
2.28 0.565948
2.29 0.606512
2.3 0.645632
2.31 0.681587
2.32 0.712576
2.33 0.737162
2.34 0.752664
2.35 0.758793
2.36 0.752925
2.37 0.735228
2.38 0.705034
2.39 0.662008
2.4 0.608064
2.41 0.542746
2.42 0.469458
2.43 0.389575
2.44 0.305968
2.45 0.221261
2.46 0.138467
2.47 0.0598332
2.48 -0.0115283
2.49 -0.0741762
2.5 -0.126465
2.51 -0.166944
2.52 -0.196528
2.53 -0.213718
2.54 -0.221262
2.55 -0.219689
2.56 -0.211296
2.57 -0.198392
2.58 -0.183175
2.59 -0.168166
2.6 -0.155718
2.61 -0.14756
2.62 -0.145173
2.63 -0.149842
2.64 -0.161196
2.65 -0.180161
2.66 -0.204878
2.67 -0.234686
2.68 -0.267723
2.69 -0.302159
2.7 -0.335926
2.71 -0.367323
2.72 -0.394231
2.73 -0.415637
2.74 -0.430542
2.75 -0.438228
2.76 -0.439546
2.77 -0.434167
2.78 -0.424216
2.79 -0.410787
2.8 -0.395939
2.81 -0.381522
2.82 -0.369798
2.83 -0.362076
2.84 -0.360423
2.85 -0.36534
2.86 -0.377418
2.87 -0.396825
2.88 -0.422192
2.89 -0.45312
2.9 -0.487106
2.91 -0.522425
2.92 -0.556628
2.93 -0.587691
2.94 -0.612843
2.95 -0.631149
2.96 -0.640252
2.97 -0.640157
2.98 -0.630536
2.99 -0.611616
3 -0.585423
3.01 -0.552768
3.02 -0.516833
3.03 -0.479844
3.04 -0.444748
3.05 -0.413885
3.06 -0.39047
3.07 -0.375386
3.08 -0.371226
3.09 -0.377754
3.1 -0.395148
3.11 -0.422941
3.12 -0.458698
3.13 -0.501329
3.14 -0.547255
3.15 -0.593967
3.16 -0.638286
3.17 -0.677787
3.18 -0.709187
3.19 -0.731807
3.2 -0.743261
3.21 -0.744183
3.22 -0.734833
3.23 -0.716275
3.24 -0.691315
3.25 -0.661918
3.26 -0.631775
3.27 -0.604001
3.28 -0.581954
3.29 -0.567978
3.3 -0.5656
3.31 -0.574761
3.32 -0.597704
3.33 -0.632899
3.34 -0.679381
3.35 -0.735157
3.36 -0.796589
3.37 -0.860553
3.38 -0.922818
3.39 -0.979368
3.4 -1.02638
3.41 -1.06143
3.42 -1.08053
3.43 -1.08453
3.44 -1.07124
3.45 -1.04325
3.46 -1.00235
3.47 -0.951622
3.48 -0.895725
3.49 -0.839038
3.5 -0.7864
3.51 -0.742623
3.52 -0.711705
3.53 -0.695706
3.54 -0.698079
3.55 -0.716334
3.56 -0.750617
3.57 -0.795666
3.58 -0.846486
3.59 -0.895382
3.6 -0.934988
3.61 -0.953064
3.62 -0.943083
3.63 -0.893145
3.64 -0.794777
3.65 -0.643496
3.66 -0.427061
3.67 -0.151146
3.68 0.192565
3.69 0.595495
3.7 1.05346
3.71 1.55917
3.72 2.09745
3.73 2.65815
3.74 3.22262
3.75 3.77488
3.76 4.29678
3.77 4.77445
3.78 5.18497
3.79 5.5241
3.8 5.77029
3.81 5.92273
3.82 5.97483
3.83 5.92061
3.84 5.77301
3.85 5.52266
3.86 5.19314
3.87 4.78864
3.88 4.32583
3.89 3.82146
3.9 3.28928
3.91 2.74834
3.92 2.21399
3.93 1.70059
3.94 1.22039
3.95 0.786277
3.96 0.400405
3.97 0.0766009
3.98 -0.191887
3.99 -0.400546
4 -0.553827
4.01 -0.658814
4.02 -0.717376
4.03 -0.742815
4.04 -0.739324
4.05 -0.717931
4.06 -0.685713
4.07 -0.650113
4.08 -0.616901
4.09 -0.591837
4.1 -0.576951
4.11 -0.574848
4.12 -0.585608
4.13 -0.607779
4.14 -0.640427
4.15 -0.679551
4.16 -0.72257
4.17 -0.765533
4.18 -0.805208
4.19 -0.837959
4.2 -0.862118
4.21 -0.87393
4.22 -0.873862
4.23 -0.860291
4.24 -0.833641
4.25 -0.795201
4.26 -0.745002
4.27 -0.686089
4.28 -0.619167
4.29 -0.546806
4.3 -0.470547
4.31 -0.391957
4.32 -0.312451
4.33 -0.233017
4.34 -0.154336
4.35 -0.0768877
4.36 -0.000879753
4.37 0.0736822
4.38 0.146582
4.39 0.217953
4.4 0.287357
4.41 0.354517
4.42 0.418772
4.43 0.478974
4.44 0.534518
4.45 0.583096
4.46 0.624252
4.47 0.655884
4.48 0.67669
4.49 0.686108
4.5 0.681777
4.51 0.665033
4.52 0.634157
4.53 0.590772
4.54 0.535526
4.55 0.469435
4.56 0.395255
4.57 0.314054
4.58 0.229156
4.59 0.14261
4.6 0.0570272
4.61 -0.0256252
4.62 -0.10281
4.63 -0.173804
4.64 -0.236663
4.65 -0.291464
4.66 -0.338002
4.67 -0.376336
4.68 -0.40805
4.69 -0.433319
4.7 -0.454397
4.71 -0.472332
4.72 -0.488741
4.73 -0.504891
4.74 -0.521993
4.75 -0.540661
4.76 -0.561558
4.77 -0.58457
4.78 -0.609461
4.79 -0.635653
4.8 -0.662249
4.81 -0.688167
4.82 -0.712429
4.83 -0.733872
4.84 -0.751561
4.85 -0.765041
4.86 -0.773328
4.87 -0.777011
4.88 -0.77572
4.89 -0.770436
4.9 -0.761875
4.91 -0.751057
4.92 -0.739297
4.93 -0.727862
4.94 -0.71791
4.95 -0.710628
4.96 -0.706912
4.97 -0.707142
4.98 -0.712134
4.99 -0.721242
5 -0.734668
5.01 -0.751439
5.02 -0.770842
5.03 -0.791932
5.04 -0.813605
5.05 -0.834806
5.06 -0.854686
5.07 -0.872381
5.08 -0.887319
5.09 -0.899324
5.1 -0.907901
5.11 -0.913568
5.12 -0.916163
5.13 -0.91623
5.14 -0.913991
5.15 -0.909548
5.16 -0.90315
5.17 -0.894216
5.18 -0.882583
5.19 -0.867198
5.2 -0.846897
5.21 -0.820646
5.22 -0.785901
5.23 -0.742178
5.24 -0.686537
5.25 -0.618385
5.26 -0.536422
5.27 -0.439197
5.28 -0.328216
5.29 -0.201848
5.3 -0.0636097
5.31 0.0853999
5.32 0.241797
5.33 0.401894
5.34 0.561301
5.35 0.715706
5.36 0.859356
5.37 0.98807
5.38 1.0973
5.39 1.18153
5.4 1.24031
5.41 1.26654
5.42 1.26332
5.43 1.22784
5.44 1.16163
5.45 1.06814
5.46 0.947654
5.47 0.807628
5.48 0.650512
5.49 0.48319
5.5 0.310706
5.51 0.138953
5.52 -0.0274351
5.53 -0.182236
5.54 -0.323129
5.55 -0.445961
5.56 -0.548835
5.57 -0.631863
5.58 -0.69267
5.59 -0.73514
5.6 -0.758727
5.61 -0.767455
5.62 -0.763783
5.63 -0.750512
5.64 -0.731414
5.65 -0.708735
5.66 -0.68539
5.67 -0.663161
5.68 -0.643386
5.69 -0.626471
5.7 -0.612664
5.71 -0.600891
5.72 -0.590168
5.73 -0.578799
5.74 -0.565151
5.75 -0.547173
5.76 -0.523911
5.77 -0.49309
5.78 -0.45501
5.79 -0.408886
5.8 -0.355341
5.81 -0.295743
5.82 -0.23127
5.83 -0.164644
5.84 -0.0982623
5.85 -0.0350027
5.86 0.0224375
5.87 0.0707588
5.88 0.108769
5.89 0.132564
5.9 0.142769
5.91 0.137596
5.92 0.117352
5.93 0.0835147
5.94 0.036044
5.95 -0.0213569
5.96 -0.0874687
5.97 -0.15881
5.98 -0.232838
5.99 -0.306657
6 -0.378046
6.01 -0.444214
6.02 -0.504276
6.03 -0.556707
6.04 -0.601146
6.05 -0.638142
6.06 -0.66755
6.07 -0.691448
6.08 -0.710623
6.09 -0.727132
6.1 -0.742496
6.11 -0.758379
6.12 -0.775906
6.13 -0.796432
6.14 -0.820068
6.15 -0.847136
6.16 -0.877156
6.17 -0.909245
6.18 -0.942352
6.19 -0.975041
6.2 -1.00572
6.21 -1.03306
6.22 -1.05583
6.23 -1.07272
6.24 -1.0838
6.25 -1.08794
6.26 -1.08641
6.27 -1.07946
6.28 -1.06837
6.29 -1.05459
6.3 -1.03945
6.31 -1.02446
6.32 -1.01081
6.33 -0.999119
6.34 -0.98952
6.35 -0.981419
6.36 -0.973365
6.37 -0.962769
6.38 -0.946849
6.39 -0.921388
6.4 -0.881708
6.41 -0.824201
6.42 -0.741014
6.43 -0.631083
6.44 -0.48648
6.45 -0.306288
6.46 -0.0878895
6.47 0.171802
6.48 0.46785
6.49 0.803677
6.5 1.1698
6.51 1.56305
6.52 1.975
6.53 2.39668
6.54 2.81795
6.55 3.22879
6.56 3.6164
6.57 3.97126
6.58 4.28339
6.59 4.54017
6.6 4.74043
6.61 4.86788
6.62 4.92833
6.63 4.91445
6.64 4.82771
6.65 4.67449
6.66 4.45198
6.67 4.1759
6.68 3.84798
6.69 3.48221
6.7 3.08795
6.71 2.67583
6.72 2.25758
6.73 1.84397
6.74 1.44394
6.75 1.06679
6.76 0.719842
6.77 0.406375
6.78 0.1349
6.79 -0.0982775
6.8 -0.287728
6.81 -0.437857
6.82 -0.550402
6.83 -0.627085
6.84 -0.675462
6.85 -0.696034
6.86 -0.697328
6.87 -0.682366
6.88 -0.656176
6.89 -0.622997
6.9 -0.585838
6.91 -0.54782
6.92 -0.510935
6.93 -0.476519
6.94 -0.445311
6.95 -0.417793
6.96 -0.393482
6.97 -0.372537
6.98 -0.354078
6.99 -0.337912
7 -0.323709
7.01 -0.311289
7.02 -0.301064
7.03 -0.293141
7.04 -0.288495
7.05 -0.287743
7.06 -0.291792
7.07 -0.301945
7.08 -0.318308
7.09 -0.342635
7.1 -0.374222
7.11 -0.413669
7.12 -0.460466
7.13 -0.513487
7.14 -0.572164
7.15 -0.634266
7.16 -0.698348
7.17 -0.762178
7.18 -0.823828
7.19 -0.880945
7.2 -0.932369
7.21 -0.975447
7.22 -1.01018
7.23 -1.03526
7.24 -1.05065
7.25 -1.05724
7.26 -1.05492
7.27 -1.04615
7.28 -1.03181
7.29 -1.01431
7.3 -0.995457
7.31 -0.977352
7.32 -0.961492
7.33 -0.949843
7.34 -0.942804
7.35 -0.941155
7.36 -0.944652
7.37 -0.952299
7.38 -0.963045
7.39 -0.974636
7.4 -0.984711
7.41 -0.990559
7.42 -0.989451
7.43 -0.977769
7.44 -0.95418
7.45 -0.914014
7.46 -0.857562
7.47 -0.782266
7.48 -0.687705
7.49 -0.575159
7.5 -0.443495
7.51 -0.297048
7.52 -0.136599
7.53 0.033425
7.54 0.209572
7.55 0.387523
7.56 0.563102
7.57 0.73092
7.58 0.8877
7.59 1.02868
7.6 1.15019
7.61 1.25067
7.62 1.3248
7.63 1.37474
7.64 1.39665
7.65 1.39267
7.66 1.3634
7.67 1.30916
7.68 1.23462
7.69 1.1395
7.7 1.02964
7.71 0.90718
7.72 0.776088
7.73 0.640101
7.74 0.502592
7.75 0.36692
7.76 0.236475
7.77 0.113705
7.78 0.000842309
7.79 -0.0994186
7.8 -0.187109
7.81 -0.25901
7.82 -0.316617
7.83 -0.358639
7.84 -0.385471
7.85 -0.398518
7.86 -0.397043
7.87 -0.384172
7.88 -0.359962
7.89 -0.326996
7.9 -0.286943
7.91 -0.241621
7.92 -0.193483
7.93 -0.144445
7.94 -0.0967236
7.95 -0.0523905
7.96 -0.0134783
7.97 0.018769
7.98 0.0417832
7.99 0.055677
8 0.0583792
8.01 0.0501677
8.02 0.0308448
8.03 6.44104e-05
8.04 -0.0403446
8.05 -0.0908276
8.06 -0.148735
8.07 -0.213106
8.08 -0.281964
8.09 -0.353349
8.1 -0.425428
8.11 -0.496381
8.12 -0.564356
8.13 -0.6281
8.14 -0.686558
8.15 -0.738592
8.16 -0.784566
8.17 -0.823506
8.18 -0.856707
8.19 -0.884381
8.2 -0.907557
8.21 -0.927439
8.22 -0.94482
8.23 -0.960971
8.24 -0.976533
8.25 -0.992024
8.26 -1.00749
8.27 -1.02243
8.28 -1.03605
8.29 -1.04643
8.3 -1.05196
8.31 -1.04987
8.32 -1.03713
8.33 -1.0116
8.34 -0.967995
8.35 -0.905892
8.36 -0.820077
8.37 -0.709863
8.38 -0.573589
8.39 -0.408818
8.4 -0.218781
8.41 -0.000683646
8.42 0.239531
8.43 0.500291
8.44 0.776664
8.45 1.06292
8.46 1.3534
8.47 1.64116
8.48 1.91865
8.49 2.17916
8.5 2.41617
8.51 2.62107
8.52 2.79214
8.53 2.9185
8.54 3.00229
8.55 3.03799
8.56 3.0249
8.57 2.96634
8.58 2.85844
8.59 2.71099
8.6 2.52351
8.61 2.30451
8.62 2.0596
8.63 1.79482
8.64 1.51876
8.65 1.23753
8.66 0.958665
8.67 0.688491
8.68 0.433086
8.69 0.195883
8.7 -0.0163935
8.71 -0.204613
8.72 -0.364136
8.73 -0.496522
8.74 -0.602197
8.75 -0.681261
8.76 -0.738726
8.77 -0.774366
8.78 -0.794375
8.79 -0.801062
8.8 -0.79848
8.81 -0.790374
8.82 -0.779718
8.83 -0.769545
8.84 -0.762288
8.85 -0.759549
8.86 -0.762396
8.87 -0.771766
8.88 -0.786931
8.89 -0.80827
8.9 -0.834084
8.91 -0.863559
8.92 -0.89519
8.93 -0.927559
8.94 -0.959184
8.95 -0.988986
8.96 -1.01568
8.97 -1.03872
8.98 -1.05767
8.99 -1.07215
9 -1.08283
9.01 -1.08959
9.02 -1.09359
9.03 -1.09541
9.04 -1.096
9.05 -1.09619
9.06 -1.0968
9.07 -1.0983
9.08 -1.10116
9.09 -1.10535
9.1 -1.11065
9.11 -1.11655
9.12 -1.12224
9.13 -1.12651
9.14 -1.12828
9.15 -1.12607
9.16 -1.11841
9.17 -1.10444
9.18 -1.08201
9.19 -1.05141
9.2 -1.01098
9.21 -0.961185
9.22 -0.902176
9.23 -0.834104
9.24 -0.758943
9.25 -0.677209
9.26 -0.591598
9.27 -0.503886
9.28 -0.416612
9.29 -0.331934
9.3 -0.25295
9.31 -0.181045
9.32 -0.119203
9.33 -0.0685061
9.34 -0.0301799
9.35 -0.00588244
9.36 0.0056809
9.37 0.00274252
9.38 -0.0120586
9.39 -0.0383691
9.4 -0.0743102
9.41 -0.117472
9.42 -0.166274
9.43 -0.2177
9.44 -0.26967
9.45 -0.319823
9.46 -0.366299
9.47 -0.406993
9.48 -0.441378
9.49 -0.467501
9.5 -0.486052
9.51 -0.496588
9.52 -0.499737
9.53 -0.496804
9.54 -0.4884
9.55 -0.476689
9.56 -0.462913
9.57 -0.44892
9.58 -0.436161
9.59 -0.426276
9.6 -0.419995
9.61 -0.418856
9.62 -0.422722
9.63 -0.43212
9.64 -0.44685
9.65 -0.466166
9.66 -0.489887
9.67 -0.516571
9.68 -0.545594
9.69 -0.575775
9.7 -0.60627
9.71 -0.636229
9.72 -0.665175
9.73 -0.692531
9.74 -0.718354
9.75 -0.742598
9.76 -0.765512
9.77 -0.78747
9.78 -0.80872
9.79 -0.829591
9.8 -0.850081
9.81 -0.869949
9.82 -0.888598
9.83 -0.904715
9.84 -0.917116
9.85 -0.922817
9.86 -0.920004
9.87 -0.90508
9.88 -0.874361
9.89 -0.825586
9.9 -0.752094
9.91 -0.653955
9.92 -0.524866
9.93 -0.364213
9.94 -0.170304
9.95 0.0599034
9.96 0.322104
9.97 0.619723
9.98 0.945442
9.99 1.29727
10 1.66931
10.01 2.05442
10.02 2.44589
10.03 2.83509
10.04 3.21292
10.05 3.57099
10.06 3.90137
10.07 4.19326
10.08 4.44437
10.09 4.64131
10.1 4.78608
10.11 4.87182
10.12 4.89694
10.13 4.86541
10.14 4.77147
10.15 4.62705
10.16 4.43082
10.17 4.19265
10.18 3.91914
10.19 3.61677
10.2 3.29628
10.21 2.96404
10.22 2.62969
10.23 2.30039
10.24 1.98355
10.25 1.68366
10.26 1.40843
10.27 1.15774
10.28 0.936874
10.29 0.744805
10.3 0.581271
10.31 0.446613
10.32 0.33554
10.33 0.248486
10.34 0.178906
10.35 0.124338
10.36 0.0804925
10.37 0.0432341
10.38 0.00942432
10.39 -0.0243844
10.4 -0.0608242
10.41 -0.101784
10.42 -0.148496
10.43 -0.202118
10.44 -0.261965
10.45 -0.328534
10.46 -0.400073
10.47 -0.475706
10.48 -0.553776
10.49 -0.632628
10.5 -0.710413
10.51 -0.785698
10.52 -0.856606
10.53 -0.922016
10.54 -0.980901
10.55 -1.03187
10.56 -1.07528
10.57 -1.10955
10.58 -1.13571
10.59 -1.15332
10.6 -1.16271
10.61 -1.1648
10.62 -1.15917
10.63 -1.14748
10.64 -1.12961
10.65 -1.10665
10.66 -1.07922
10.67 -1.04775
10.68 -1.01327
10.69 -0.976025
10.7 -0.936993
10.71 -0.896672
10.72 -0.855776
10.73 -0.814947
10.74 -0.774979
10.75 -0.736421
10.76 -0.700167
10.77 -0.666801
10.78 -0.636947
10.79 -0.611553
10.8 -0.590645
10.81 -0.575489
10.82 -0.565772
10.83 -0.562135
10.84 -0.564733
10.85 -0.573155
10.86 -0.588051
10.87 -0.608238
10.88 -0.63392
10.89 -0.664151
10.9 -0.698287
10.91 -0.735714
10.92 -0.775282
10.93 -0.816325
10.94 -0.85773
10.95 -0.898636
10.96 -0.938082
10.97 -0.975429
10.98 -1.00955
10.99 -1.0403
11 -1.06678
11.01 -1.08892
11.02 -1.10657
11.03 -1.11945
11.04 -1.12824
11.05 -1.1327
11.06 -1.13385
11.07 -1.13209
11.08 -1.12823
11.09 -1.12314
11.1 -1.11762
11.11 -1.11253
11.12 -1.10869
11.13 -1.10669
11.14 -1.10694
11.15 -1.10984
11.16 -1.11504
11.17 -1.12247
11.18 -1.13111
11.19 -1.13999
11.2 -1.14752
11.21 -1.15217
11.22 -1.15115
11.23 -1.14301
11.24 -1.12434
11.25 -1.09317
11.26 -1.04722
11.27 -0.982916
11.28 -0.900532
11.29 -0.795485
11.3 -0.669558
11.31 -0.521037
11.32 -0.350339
11.33 -0.160045
11.34 0.0503187
11.35 0.275233
11.36 0.51282
11.37 0.757809
11.38 1.00571
11.39 1.25084
11.4 1.48852
11.41 1.71143
11.42 1.91597
11.43 2.09605
11.44 2.24675
11.45 2.36671
11.46 2.44821
11.47 2.49484
11.48 2.50147
11.49 2.47089
11.5 2.40448
11.51 2.30246
11.52 2.17188
11.53 2.01282
11.54 1.83355
11.55 1.63774
11.56 1.43126
11.57 1.21975
11.58 1.00849
11.59 0.802095
11.6 0.605509
11.61 0.421876
11.62 0.253704
11.63 0.104201
11.64 -0.0278238
11.65 -0.139451
11.66 -0.233828
11.67 -0.311139
11.68 -0.373461
11.69 -0.423959
11.7 -0.463964
11.71 -0.497572
11.72 -0.526725
11.73 -0.554277
11.74 -0.582193
11.75 -0.612368
11.76 -0.645585
11.77 -0.682951
11.78 -0.723933
11.79 -0.768191
11.8 -0.81452
11.81 -0.861375
11.82 -0.906631
11.83 -0.948433
11.84 -0.984015
11.85 -1.01133
11.86 -1.02838
11.87 -1.0322
11.88 -1.02277
11.89 -0.996573
11.9 -0.954815
11.91 -0.896167
11.92 -0.820785
11.93 -0.730468
11.94 -0.624438
11.95 -0.5065
11.96 -0.377305
11.97 -0.240061
11.98 -0.0972734
11.99 0.0482614
12 0.193546
12.01 0.335281
12.02 0.470994
12.03 0.597685
12.04 0.712607
12.05 0.814614
12.06 0.899725
12.07 0.968938
12.08 1.01929
12.09 1.05134
12.1 1.06511
12.11 1.05968
12.12 1.03797
12.13 0.998772
12.14 0.945761
12.15 0.879863
12.16 0.80334
12.17 0.718993
12.18 0.628408
12.19 0.534742
12.2 0.43995
12.21 0.346337
12.22 0.255652
12.23 0.169905
12.24 0.0896847
12.25 0.01683
12.26 -0.049055
12.27 -0.107442
12.28 -0.158608
12.29 -0.203613
12.3 -0.242586
12.31 -0.277438
12.32 -0.308921
12.33 -0.338574
12.34 -0.367543
12.35 -0.397006
12.36 -0.427712
12.37 -0.460524
12.38 -0.495459
12.39 -0.53256
