# xPDFsuite Configuration #
[PDF]
wavelength = 0.1432
dataformat = twotheta
inputfile = 1_1Pd_CeO2_cycle-00039.chi
backgroundfile = background-00000.chi
mode = xray
bgscale = 1.007
composition = CeO2
outputtype = gr
qmaxinst = 28.8974762299
qmin = 0.5
qmax = 27.9
rmax = 50.0
rmin = 0.0
rstep = 0.01
rpoly = 1.8657

[Misc]
inputdir = G:/SankarDec16/1Pd/Chi
savedir = D:/DATA/APS_CeO2/1Pd
backgroundfilefull = G:/SankarDec16/Background/background-00000.chi

#### start data
#S 1
#L r($\AA$)  G($\AA^{-2}$)
0 0
0.01 -0.00914531
0.02 -0.0176027
0.03 -0.0246637
0.04 -0.0297946
0.05 -0.0326982
0.06 -0.0328964
0.07 -0.0307063
0.08 -0.0259734
0.09 -0.0193036
0.1 -0.0111156
0.11 -0.00205103
0.12 0.00718896
0.13 0.0158191
0.14 0.0232807
0.15 0.028891
0.16 0.0322488
0.17 0.0331923
0.18 0.0313935
0.19 0.0273177
0.2 0.0209798
0.21 0.0130859
0.22 0.0041566
0.23 -0.00508787
0.24 -0.0139865
0.25 -0.0216932
0.26 -0.0278042
0.27 -0.0316947
0.28 -0.0331143
0.29 -0.0320448
0.3 -0.0283237
0.31 -0.0225428
0.32 -0.0148865
0.33 -0.00612829
0.34 0.00313336
0.35 0.0121327
0.36 0.0202798
0.37 0.0267071
0.38 0.0311846
0.39 0.0331749
0.4 0.0325904
0.41 0.0295578
0.42 0.0240881
0.43 0.0168728
0.44 0.00825721
0.45 -0.000952946
0.46 -0.0101096
0.47 -0.0184363
0.48 -0.0254423
0.49 -0.0302792
0.5 -0.0329016
0.51 -0.0328853
0.52 -0.03031
0.53 -0.0254422
0.54 -0.0184666
0.55 -0.0101426
0.56 -0.000960788
0.57 0.0082778
0.58 0.0169058
0.59 0.0241721
0.6 0.0297085
0.61 0.0327253
0.62 0.0333651
0.63 0.0313368
0.64 0.0268851
0.65 0.0204039
0.66 0.0122445
0.67 0.00319899
0.68 -0.00611905
0.69 -0.0149502
0.7 -0.0226393
0.71 -0.0284947
0.72 -0.0322892
0.73 -0.0333283
0.74 -0.0319364
0.75 -0.0279694
0.76 -0.0218254
0.77 -0.0140077
0.78 -0.00501742
0.79 0.00435837
0.8 0.013413
0.81 0.0214647
0.82 0.0279024
0.83 0.0321282
0.84 0.0340661
0.85 0.0331521
0.86 0.0298755
0.87 0.0242462
0.88 0.0167952
0.89 0.00810815
0.9 -0.00119206
0.91 -0.0103657
0.92 -0.0186557
0.93 -0.0254979
0.94 -0.0303656
0.95 -0.0327969
0.96 -0.032878
0.97 -0.0302272
0.98 -0.0254767
0.99 -0.0188106
1 -0.0108764
1.01 -0.00231741
1.02 0.00613311
1.03 0.0138346
1.04 0.0200052
1.05 0.0242476
1.06 0.0261592
1.07 0.0254606
1.08 0.0224322
1.09 0.0169344
1.1 0.00975783
1.11 0.00131129
1.12 -0.00761077
1.13 -0.0162867
1.14 -0.0238075
1.15 -0.0296426
1.16 -0.0329054
1.17 -0.0333664
1.18 -0.0307038
1.19 -0.0247698
1.2 -0.0160625
1.21 -0.00457787
1.22 0.00866084
1.23 0.0230699
1.24 0.037672
1.25 0.0516141
1.26 0.063791
1.27 0.0736469
1.28 0.0801151
1.29 0.0829714
1.3 0.0818256
1.31 0.0764569
1.32 0.067434
1.33 0.054573
1.34 0.0390342
1.35 0.0212892
1.36 0.00232728
1.37 -0.0169703
1.38 -0.0356066
1.39 -0.0528711
1.4 -0.0677897
1.41 -0.0799702
1.42 -0.0889476
1.43 -0.0943617
1.44 -0.0965411
1.45 -0.0950945
1.46 -0.0908657
1.47 -0.0839974
1.48 -0.0751144
1.49 -0.0647977
1.5 -0.0535181
1.51 -0.0418779
1.52 -0.0302966
1.53 -0.0191323
1.54 -0.00863447
1.55 0.0010035
1.56 0.00981224
1.57 0.0176612
1.58 0.024755
1.59 0.031102
1.6 0.0368101
1.61 0.0419516
1.62 0.0464686
1.63 0.0503859
1.64 0.053489
1.65 0.0556624
1.66 0.0566653
1.67 0.0561771
1.68 0.0541273
1.69 0.0500012
1.7 0.0439638
1.71 0.0357736
1.72 0.0255562
1.73 0.0135593
1.74 -5.53712e-05
1.75 -0.0146775
1.76 -0.0298874
1.77 -0.0450185
1.78 -0.0594811
1.79 -0.0725756
1.8 -0.0839476
1.81 -0.0927835
1.82 -0.0991583
1.83 -0.102696
1.84 -0.103529
1.85 -0.101981
1.86 -0.0982615
1.87 -0.0931781
1.88 -0.0872575
1.89 -0.0813348
1.9 -0.0761093
1.91 -0.0723705
1.92 -0.0704881
1.93 -0.0712662
1.94 -0.0745238
1.95 -0.0804923
1.96 -0.0888301
1.97 -0.0990083
1.98 -0.110454
1.99 -0.122212
2 -0.133315
2.01 -0.14279
2.02 -0.149673
2.03 -0.152879
2.04 -0.152115
2.05 -0.146074
2.06 -0.135238
2.07 -0.119093
2.08 -0.098009
2.09 -0.0725868
2.1 -0.0430739
2.11 -0.0107259
2.12 0.0239434
2.13 0.0598369
2.14 0.0962312
2.15 0.132392
2.16 0.167888
2.17 0.202257
2.18 0.235593
2.19 0.267932
2.2 0.299647
2.21 0.331184
2.22 0.363124
2.23 0.395908
2.24 0.430114
2.25 0.46589
2.26 0.503301
2.27 0.542113
2.28 0.581656
2.29 0.620982
2.3 0.65888
2.31 0.693711
2.32 0.723706
2.33 0.747411
2.34 0.762088
2.35 0.76735
2.36 0.760437
2.37 0.741399
2.38 0.709446
2.39 0.664117
2.4 0.60733
2.41 0.538532
2.42 0.461276
2.43 0.377009
2.44 0.288808
2.45 0.199515
2.46 0.112452
2.47 0.0300953
2.48 -0.0440652
2.49 -0.108399
2.5 -0.161032
2.51 -0.200295
2.52 -0.227201
2.53 -0.24003
2.54 -0.241901
2.55 -0.233434
2.56 -0.217287
2.57 -0.196148
2.58 -0.172641
2.59 -0.149713
2.6 -0.130228
2.61 -0.116254
2.62 -0.10962
2.63 -0.111954
2.64 -0.122826
2.65 -0.143516
2.66 -0.171758
2.67 -0.206858
2.68 -0.246579
2.69 -0.288674
2.7 -0.330666
2.71 -0.370323
2.72 -0.405021
2.73 -0.433317
2.74 -0.453818
2.75 -0.465408
2.76 -0.468923
2.77 -0.463635
2.78 -0.452003
2.79 -0.435093
2.8 -0.415276
2.81 -0.394773
2.82 -0.376168
2.83 -0.361282
2.84 -0.352606
2.85 -0.35106
2.86 -0.357597
2.87 -0.372751
2.88 -0.395216
2.89 -0.424958
2.9 -0.45924
2.91 -0.4964
2.92 -0.533771
2.93 -0.569059
2.94 -0.599286
2.95 -0.62311
2.96 -0.6379
2.97 -0.64333
2.98 -0.638817
2.99 -0.624324
3 -0.601804
3.01 -0.571826
3.02 -0.537685
3.03 -0.501547
3.04 -0.466461
3.05 -0.434901
3.06 -0.410146
3.07 -0.393287
3.08 -0.386988
3.09 -0.391153
3.1 -0.406027
3.11 -0.431187
3.12 -0.464226
3.13 -0.504027
3.14 -0.547002
3.15 -0.590601
3.16 -0.631622
3.17 -0.667645
3.18 -0.695394
3.19 -0.714273
3.2 -0.722
3.21 -0.719362
3.22 -0.7068
3.23 -0.685634
3.24 -0.658815
3.25 -0.628692
3.26 -0.598994
3.27 -0.573098
3.28 -0.554428
3.29 -0.545274
3.3 -0.549243
3.31 -0.565911
3.32 -0.597401
3.33 -0.641728
3.34 -0.697545
3.35 -0.762345
3.36 -0.832086
3.37 -0.902976
3.38 -0.970553
3.39 -1.0303
3.4 -1.07816
3.41 -1.1117
3.42 -1.12664
3.43 -1.12433
3.44 -1.1026
3.45 -1.06465
3.46 -1.01271
3.47 -0.9505
3.48 -0.883288
3.49 -0.816215
3.5 -0.754577
3.51 -0.703824
3.52 -0.668344
3.53 -0.650327
3.54 -0.653639
3.55 -0.67534
3.56 -0.715674
3.57 -0.768759
3.58 -0.829163
3.59 -0.888584
3.6 -0.938969
3.61 -0.967352
3.62 -0.966641
3.63 -0.92429
3.64 -0.831379
3.65 -0.68324
3.66 -0.467199
3.67 -0.189313
3.68 0.158847
3.69 0.568136
3.7 1.03396
3.71 1.54846
3.72 2.09581
3.73 2.66518
3.74 3.23738
3.75 3.79584
3.76 4.32198
3.77 4.8018
3.78 5.212
3.79 5.54871
3.8 5.79031
3.81 5.93656
3.82 5.98127
3.83 5.91903
3.84 5.76336
3.85 5.50558
3.86 5.1697
3.87 4.76048
3.88 4.29489
3.89 3.7898
3.9 3.25922
3.91 2.72182
3.92 2.1929
3.93 1.68628
3.94 1.21375
3.95 0.787621
3.96 0.409502
3.97 0.0925358
3.98 -0.170394
3.99 -0.375285
4 -0.526849
4.01 -0.632196
4.02 -0.693407
4.03 -0.723319
4.04 -0.726034
4.05 -0.711982
4.06 -0.687772
4.07 -0.66024
4.08 -0.634628
4.09 -0.615993
4.1 -0.606058
4.11 -0.606933
4.12 -0.618481
4.13 -0.639268
4.14 -0.668176
4.15 -0.701715
4.16 -0.737417
4.17 -0.771951
4.18 -0.802567
4.19 -0.826241
4.2 -0.84183
4.21 -0.846288
4.22 -0.840377
4.23 -0.822973
4.24 -0.794722
4.25 -0.756905
4.26 -0.709768
4.27 -0.655864
4.28 -0.59584
4.29 -0.531683
4.3 -0.464506
4.31 -0.395328
4.32 -0.325049
4.33 -0.254047
4.34 -0.182666
4.35 -0.110922
4.36 -0.0387665
4.37 0.0338468
4.38 0.106966
4.39 0.180363
4.4 0.253649
4.41 0.326113
4.42 0.396804
4.43 0.464207
4.44 0.527284
4.45 0.583347
4.46 0.631596
4.47 0.669595
4.48 0.695797
4.49 0.709526
4.5 0.708181
4.51 0.69324
4.52 0.662861
4.53 0.618858
4.54 0.561977
4.55 0.493349
4.56 0.415973
4.57 0.330991
4.58 0.241967
4.59 0.151059
4.6 0.061023
4.61 -0.0260672
4.62 -0.107559
4.63 -0.182665
4.64 -0.249325
4.65 -0.307556
4.66 -0.357065
4.67 -0.397789
4.68 -0.431287
4.69 -0.457519
4.7 -0.478762
4.71 -0.495917
4.72 -0.510555
4.73 -0.523968
4.74 -0.53727
4.75 -0.55128
4.76 -0.566674
4.77 -0.583595
4.78 -0.60202
4.79 -0.621666
4.8 -0.641933
4.81 -0.662159
4.82 -0.681614
4.83 -0.69952
4.84 -0.715213
4.85 -0.728349
4.86 -0.738276
4.87 -0.745342
4.88 -0.749317
4.89 -0.750823
4.9 -0.750322
4.91 -0.748461
4.92 -0.746045
4.93 -0.743831
4.94 -0.742479
4.95 -0.74263
4.96 -0.744714
4.97 -0.748855
4.98 -0.755342
4.99 -0.763721
5 -0.773902
5.01 -0.785267
5.02 -0.797329
5.03 -0.809494
5.04 -0.821268
5.05 -0.832065
5.06 -0.841687
5.07 -0.849847
5.08 -0.856528
5.09 -0.861895
5.1 -0.866027
5.11 -0.869342
5.12 -0.872011
5.13 -0.874285
5.14 -0.876202
5.15 -0.877564
5.16 -0.878045
5.17 -0.87667
5.18 -0.872651
5.19 -0.86444
5.2 -0.850383
5.21 -0.829155
5.22 -0.797768
5.23 -0.755843
5.24 -0.700247
5.25 -0.630685
5.26 -0.546094
5.27 -0.445377
5.28 -0.330527
5.29 -0.200388
5.3 -0.0589241
5.31 0.0923141
5.32 0.249602
5.33 0.409118
5.34 0.566199
5.35 0.716821
5.36 0.855252
5.37 0.977774
5.38 1.08024
5.39 1.15768
5.4 1.21016
5.41 1.23127
5.42 1.22444
5.43 1.18739
5.44 1.12192
5.45 1.03147
5.46 0.916559
5.47 0.784102
5.48 0.636411
5.49 0.479681
5.5 0.318385
5.51 0.15767
5.52 0.00154423
5.53 -0.144671
5.54 -0.279018
5.55 -0.397977
5.56 -0.499937
5.57 -0.584967
5.58 -0.650953
5.59 -0.701086
5.6 -0.73466
5.61 -0.754863
5.62 -0.763488
5.63 -0.762482
5.64 -0.754886
5.65 -0.741948
5.66 -0.726163
5.67 -0.708617
5.68 -0.690333
5.69 -0.671762
5.7 -0.652873
5.71 -0.633337
5.72 -0.61234
5.73 -0.589073
5.74 -0.562608
5.75 -0.531783
5.76 -0.496408
5.77 -0.455229
5.78 -0.408982
5.79 -0.357584
5.8 -0.301971
5.81 -0.243457
5.82 -0.183493
5.83 -0.124045
5.84 -0.0673345
5.85 -0.0153572
5.86 0.0298846
5.87 0.065957
5.88 0.0924066
5.89 0.106295
5.9 0.108653
5.91 0.0983314
5.92 0.0759019
5.93 0.0427623
5.94 -0.00092674
5.95 -0.0521891
5.96 -0.110024
5.97 -0.171782
5.98 -0.235581
5.99 -0.299336
6 -0.361467
6.01 -0.420059
6.02 -0.474522
6.03 -0.523852
6.04 -0.567841
6.05 -0.606879
6.06 -0.640881
6.07 -0.671209
6.08 -0.698323
6.09 -0.723493
6.1 -0.74759
6.11 -0.771501
6.12 -0.795838
6.13 -0.821131
6.14 -0.847368
6.15 -0.874461
6.16 -0.901928
6.17 -0.929157
6.18 -0.955201
6.19 -0.979388
6.2 -1.00059
6.21 -1.01828
6.22 -1.03189
6.23 -1.04093
6.24 -1.04589
6.25 -1.04651
6.26 -1.04402
6.27 -1.03905
6.28 -1.03278
6.29 -1.02632
6.3 -1.02082
6.31 -1.01695
6.32 -1.01541
6.33 -1.01598
6.34 -1.0181
6.35 -1.02037
6.36 -1.02092
6.37 -1.01633
6.38 -1.00384
6.39 -0.978898
6.4 -0.936901
6.41 -0.874596
6.42 -0.78426
6.43 -0.665631
6.44 -0.511205
6.45 -0.32083
6.46 -0.0924877
6.47 0.176223
6.48 0.480001
6.49 0.82161
6.5 1.19159
6.51 1.58652
6.52 1.9981
6.53 2.41765
6.54 2.83522
6.55 3.24141
6.56 3.62381
6.57 3.97349
6.58 4.2809
6.59 4.53395
6.6 4.73165
6.61 4.85814
6.62 4.9191
6.63 4.90726
6.64 4.82386
6.65 4.67495
6.66 4.45738
6.67 4.18639
6.68 3.86325
6.69 3.50151
6.7 3.11018
6.71 2.6995
6.72 2.28121
6.73 1.86575
6.74 1.46237
6.75 1.08046
6.76 0.727665
6.77 0.407689
6.78 0.12946
6.79 -0.110246
6.8 -0.305503
6.81 -0.460357
6.82 -0.576237
6.83 -0.654546
6.84 -0.702937
6.85 -0.721675
6.86 -0.719687
6.87 -0.700132
6.88 -0.668435
6.89 -0.629258
6.9 -0.586052
6.91 -0.542359
6.92 -0.500635
6.93 -0.462497
6.94 -0.428918
6.95 -0.400595
6.96 -0.376888
6.97 -0.358066
6.98 -0.342824
6.99 -0.330758
7 -0.321121
7.01 -0.313332
7.02 -0.307337
7.03 -0.302927
7.04 -0.300644
7.05 -0.300935
7.06 -0.304563
7.07 -0.312716
7.08 -0.32575
7.09 -0.345424
7.1 -0.371505
7.11 -0.404885
7.12 -0.445511
7.13 -0.492657
7.14 -0.546271
7.15 -0.604371
7.16 -0.665966
7.17 -0.728932
7.18 -0.791459
7.19 -0.851285
7.2 -0.906949
7.21 -0.955807
7.22 -0.997347
7.23 -1.02999
7.24 -1.05326
7.25 -1.06765
7.26 -1.07257
7.27 -1.07021
7.28 -1.06105
7.29 -1.04734
7.3 -1.03077
7.31 -1.0133
7.32 -0.996647
7.33 -0.982673
7.34 -0.97217
7.35 -0.966053
7.36 -0.964372
7.37 -0.966417
7.38 -0.971381
7.39 -0.977261
7.4 -0.981912
7.41 -0.982769
7.42 -0.97721
7.43 -0.961727
7.44 -0.934945
7.45 -0.892299
7.46 -0.833965
7.47 -0.757408
7.48 -0.662173
7.49 -0.549486
7.5 -0.418277
7.51 -0.272805
7.52 -0.113936
7.53 0.0539254
7.54 0.227304
7.55 0.401842
7.56 0.57345
7.57 0.736707
7.58 0.888509
7.59 1.0242
7.6 1.14031
7.61 1.23549
7.62 1.30474
7.63 1.35042
7.64 1.36904
7.65 1.36295
7.66 1.33293
7.67 1.27957
7.68 1.2074
7.69 1.11638
7.7 1.01197
7.71 0.896186
7.72 0.77264
7.73 0.644651
7.74 0.515117
7.75 0.386934
7.76 0.262927
7.77 0.145152
7.78 0.0354773
7.79 -0.0638121
7.8 -0.152643
7.81 -0.22815
7.82 -0.291354
7.83 -0.340837
7.84 -0.376508
7.85 -0.399209
7.86 -0.407605
7.87 -0.404173
7.88 -0.388247
7.89 -0.361877
7.9 -0.326257
7.91 -0.282675
7.92 -0.233696
7.93 -0.180793
7.94 -0.126758
7.95 -0.0738195
7.96 -0.0245952
7.97 0.0189823
7.98 0.0536293
7.99 0.0786744
8 0.091191
8.01 0.0908251
8.02 0.0768236
8.03 0.0482274
8.04 0.00700198
8.05 -0.0477997
8.06 -0.112855
8.07 -0.187016
8.08 -0.267624
8.09 -0.351931
8.1 -0.437291
8.11 -0.520998
8.12 -0.600245
8.13 -0.67308
8.14 -0.737841
8.15 -0.792722
8.16 -0.838252
8.17 -0.872921
8.18 -0.89877
8.19 -0.916227
8.2 -0.927058
8.21 -0.933324
8.22 -0.936674
8.23 -0.93932
8.24 -0.942892
8.25 -0.948623
8.26 -0.957167
8.27 -0.96869
8.28 -0.982186
8.29 -0.996244
8.3 -1.00847
8.31 -1.01583
8.32 -1.01452
8.33 -1.00154
8.34 -0.970714
8.35 -0.920721
8.36 -0.845377
8.37 -0.743347
8.38 -0.612428
8.39 -0.449631
8.4 -0.258455
8.41 -0.0357541
8.42 0.211697
8.43 0.481955
8.44 0.769255
8.45 1.067
8.46 1.36857
8.47 1.66624
8.48 1.95146
8.49 2.21704
8.5 2.45601
8.51 2.65934
8.52 2.82573
8.53 2.94412
8.54 3.01761
8.55 3.04118
8.56 3.01509
8.57 2.94356
8.58 2.82382
8.59 2.66634
8.6 2.47168
8.61 2.24875
8.62 2.00351
8.63 1.74234
8.64 1.47325
8.65 1.20245
8.66 0.936377
8.67 0.680738
8.68 0.440582
8.69 0.218398
8.7 0.0197598
8.71 -0.156865
8.72 -0.307859
8.73 -0.435129
8.74 -0.539393
8.75 -0.621013
8.76 -0.684362
8.77 -0.729224
8.78 -0.760679
8.79 -0.780387
8.8 -0.791378
8.81 -0.796499
8.82 -0.79763
8.83 -0.79724
8.84 -0.796864
8.85 -0.797874
8.86 -0.801172
8.87 -0.807595
8.88 -0.81709
8.89 -0.830213
8.9 -0.846328
8.91 -0.865324
8.92 -0.886677
8.93 -0.909747
8.94 -0.934085
8.95 -0.958945
8.96 -0.983793
8.97 -1.00807
8.98 -1.03131
8.99 -1.05301
9 -1.07302
9.01 -1.09079
9.02 -1.10641
9.03 -1.11962
9.04 -1.13039
9.05 -1.13888
9.06 -1.14481
9.07 -1.14862
9.08 -1.15009
9.09 -1.14944
9.1 -1.14668
9.11 -1.14163
9.12 -1.13445
9.13 -1.1246
9.14 -1.11212
9.15 -1.09649
9.16 -1.07727
9.17 -1.05422
9.18 -1.02627
9.19 -0.993611
9.2 -0.955188
9.21 -0.911041
9.22 -0.860968
9.23 -0.804608
9.24 -0.742872
9.25 -0.675466
9.26 -0.603932
9.27 -0.529037
9.28 -0.45231
9.29 -0.375344
9.3 -0.300213
9.31 -0.228544
9.32 -0.162848
9.33 -0.104771
9.34 -0.0560232
9.35 -0.0189304
9.36 0.00668888
9.37 0.0181046
9.38 0.0168422
9.39 0.00220916
9.4 -0.0248771
9.41 -0.0624643
9.42 -0.109933
9.43 -0.163845
9.44 -0.222471
9.45 -0.28273
9.46 -0.342143
9.47 -0.397795
9.48 -0.447998
9.49 -0.489704
9.5 -0.522533
9.51 -0.54497
9.52 -0.556737
9.53 -0.55878
9.54 -0.55081
9.55 -0.535566
9.56 -0.514042
9.57 -0.488926
9.58 -0.462376
9.59 -0.436937
9.6 -0.414514
9.61 -0.397794
9.62 -0.38765
9.63 -0.385643
9.64 -0.392399
9.65 -0.407425
9.66 -0.431326
9.67 -0.461987
9.68 -0.498907
9.69 -0.540003
9.7 -0.583668
9.71 -0.628102
9.72 -0.671722
9.73 -0.7128
9.74 -0.750528
9.75 -0.783929
9.76 -0.812591
9.77 -0.836776
9.78 -0.85616
9.79 -0.871836
9.8 -0.883876
9.81 -0.893001
9.82 -0.899431
9.83 -0.902866
9.84 -0.903104
9.85 -0.898328
9.86 -0.887366
9.87 -0.867424
9.88 -0.835266
9.89 -0.788544
9.9 -0.720921
9.91 -0.63155
9.92 -0.513817
9.93 -0.36605
9.94 -0.185648
9.95 0.0315433
9.96 0.282086
9.97 0.570635
9.98 0.890288
9.99 1.23976
10 1.61338
10.01 2.00374
10.02 2.40425
10.03 2.80516
10.04 3.19686
10.05 3.56981
10.06 3.91506
10.07 4.22062
10.08 4.48342
10.09 4.6888
10.1 4.83853
10.11 4.92515
10.12 4.94699
10.13 4.9085
10.14 4.804
10.15 4.64664
10.16 4.4358
10.17 4.18258
10.18 3.89466
10.19 3.57977
10.2 3.24933
10.21 2.911
10.22 2.57445
10.23 2.24734
10.24 1.93699
10.25 1.64721
10.26 1.38548
10.27 1.15029
10.28 0.946064
10.29 0.770449
10.3 0.622068
10.31 0.499925
10.32 0.398152
10.33 0.315864
10.34 0.246651
10.35 0.187638
10.36 0.13479
10.37 0.0847551
10.38 0.0348201
10.39 -0.0169886
10.4 -0.0722965
10.41 -0.131599
10.42 -0.194964
10.43 -0.26216
10.44 -0.331978
10.45 -0.403571
10.46 -0.475426
10.47 -0.5463
10.48 -0.614869
10.49 -0.680339
10.5 -0.741351
10.51 -0.797997
10.52 -0.849445
10.53 -0.895978
10.54 -0.937727
10.55 -0.974669
10.56 -1.00763
10.57 -1.03632
10.58 -1.06151
10.59 -1.08304
10.6 -1.10087
10.61 -1.11505
10.62 -1.12466
10.63 -1.12986
10.64 -1.12953
10.65 -1.12345
10.66 -1.11115
10.67 -1.09182
10.68 -1.0661
10.69 -1.03311
10.7 -0.99416
10.71 -0.949558
10.72 -0.900451
10.73 -0.84834
10.74 -0.794607
10.75 -0.741139
10.76 -0.689829
10.77 -0.642428
10.78 -0.6005
10.79 -0.566082
10.8 -0.539434
10.81 -0.52275
10.82 -0.515269
10.83 -0.517677
10.84 -0.529596
10.85 -0.549747
10.86 -0.578087
10.87 -0.61223
10.88 -0.651381
10.89 -0.693582
10.9 -0.737382
10.91 -0.781236
10.92 -0.823939
10.93 -0.864087
10.94 -0.901153
10.95 -0.934385
10.96 -0.963474
10.97 -0.988671
10.98 -1.00966
10.99 -1.02738
11 -1.04196
11.01 -1.05419
11.02 -1.06462
11.03 -1.07376
11.04 -1.0822
11.05 -1.09024
11.06 -1.09821
11.07 -1.10625
11.08 -1.1144
11.09 -1.12263
11.1 -1.13081
11.11 -1.13878
11.12 -1.14634
11.13 -1.15328
11.14 -1.15941
11.15 -1.16443
11.16 -1.16821
11.17 -1.17021
11.18 -1.17023
11.19 -1.16763
11.2 -1.16164
11.21 -1.15168
11.22 -1.13592
11.23 -1.11387
11.24 -1.08318
11.25 -1.04257
11.26 -0.990353
11.27 -0.923619
11.28 -0.842342
11.29 -0.742399
11.3 -0.624738
11.31 -0.487317
11.32 -0.32976
11.33 -0.153739
11.34 0.0421087
11.35 0.253176
11.36 0.478534
11.37 0.713581
11.38 0.954338
11.39 1.19574
11.4 1.43284
11.41 1.65876
11.42 1.86915
11.43 2.05768
11.44 2.21876
11.45 2.35026
11.46 2.44377
11.47 2.5021
11.48 2.51939
11.49 2.49789
11.5 2.43859
11.51 2.34125
11.52 2.21312
11.53 2.05401
11.54 1.8727
11.55 1.67309
11.56 1.46154
11.57 1.24421
11.58 1.02688
11.59 0.814649
11.6 0.612907
11.61 0.425081
11.62 0.253855
11.63 0.102585
11.64 -0.0301223
11.65 -0.141373
11.66 -0.234717
11.67 -0.310618
11.68 -0.371549
11.69 -0.420995
11.7 -0.4607
11.71 -0.494889
11.72 -0.52576
11.73 -0.556137
11.74 -0.587905
11.75 -0.622814
11.76 -0.661281
11.77 -0.704084
11.78 -0.75025
11.79 -0.79901
11.8 -0.848715
11.81 -0.897585
11.82 -0.943002
11.83 -0.983229
11.84 -1.01527
11.85 -1.03731
11.86 -1.04758
11.87 -1.04343
11.88 -1.02535
11.89 -0.990304
11.9 -0.940041
11.91 -0.87376
11.92 -0.792129
11.93 -0.697198
11.94 -0.588741
11.95 -0.470392
11.96 -0.343053
11.97 -0.209647
11.98 -0.0724213
11.99 0.0661302
12 0.203596
12.01 0.337115
12.02 0.464799
12.03 0.584147
12.04 0.692912
12.05 0.79019
12.06 0.872501
12.07 0.940693
12.08 0.992016
12.09 1.02677
12.1 1.04472
12.11 1.04469
12.12 1.02909
12.13 0.996308
12.14 0.949543
12.15 0.889303
12.16 0.817456
12.17 0.736622
12.18 0.648016
12.19 0.554948
12.2 0.459248
12.21 0.363466
12.22 0.269575
12.23 0.179843
12.24 0.0952572
12.25 0.0179853
12.26 -0.0520242
12.27 -0.113942
12.28 -0.167788
12.29 -0.214544
12.3 -0.254124
12.31 -0.288622
12.32 -0.318778
12.33 -0.346372
12.34 -0.372764
12.35 -0.399383
12.36 -0.427254
12.37 -0.457515
12.38 -0.490369
12.39 -0.526041
12.4 -0.564135
12.41 -0.603755
12.42 -0.643727
