# xPDFsuite Configuration #
[PDF]
wavelength = 0.1432
dataformat = twotheta
inputfile = 1_1Pd_CeO2_cycle-00078.chi
backgroundfile = background-00000.chi
mode = xray
bgscale = 1.007
composition = CeO2
outputtype = gr
qmaxinst = 28.8974762299
qmin = 0.5
qmax = 27.9
rmax = 50.0
rmin = 0.0
rstep = 0.01
rpoly = 1.8657

[Misc]
inputdir = G:/SankarDec16/1Pd/Chi
savedir = D:/DATA/APS_CeO2/1Pd
backgroundfilefull = G:/SankarDec16/Background/background-00000.chi

#### start data
#S 1
#L r($\AA$)  G($\AA^{-2}$)
0 0
0.01 -0.00733425
0.02 -0.0141167
0.03 -0.0197792
0.04 -0.0238937
0.05 -0.0262217
0.06 -0.0263799
0.07 -0.0246228
0.08 -0.0208263
0.09 -0.0154765
0.1 -0.00890944
0.11 -0.00163969
0.12 0.00577046
0.13 0.0126911
0.14 0.0186742
0.15 0.0231725
0.16 0.025864
0.17 0.0266193
0.18 0.0251756
0.19 0.021906
0.2 0.016823
0.21 0.0104927
0.22 0.00333299
0.23 -0.00407859
0.24 -0.011212
0.25 -0.0173887
0.26 -0.0222852
0.27 -0.0254006
0.28 -0.0265345
0.29 -0.0256726
0.3 -0.0226849
0.31 -0.0180465
0.32 -0.0119054
0.33 -0.00488205
0.34 0.00254345
0.35 0.00975703
0.36 0.016286
0.37 0.0214347
0.38 0.0250193
0.39 0.0266092
0.4 0.0261349
0.41 0.0236983
0.42 0.019309
0.43 0.0135215
0.44 0.00661343
0.45 -0.000769261
0.46 -0.00810688
0.47 -0.014777
0.48 -0.0203868
0.49 -0.0242561
0.5 -0.0263496
0.51 -0.0263277
0.52 -0.0242551
0.53 -0.020346
0.54 -0.0147494
0.55 -0.0080741
0.56 -0.000714134
0.57 0.00668858
0.58 0.0135992
0.59 0.0194159
0.6 0.0238443
0.61 0.0262521
0.62 0.0267545
0.63 0.025119
0.64 0.0215427
0.65 0.0163419
0.66 0.00979916
0.67 0.00254904
0.68 -0.00491614
0.69 -0.0119884
0.7 -0.0181429
0.71 -0.0228264
0.72 -0.0258576
0.73 -0.0266813
0.74 -0.0255583
0.75 -0.0223743
0.76 -0.017449
0.77 -0.011186
0.78 -0.00398711
0.79 0.00351777
0.8 0.0107632
0.81 0.0172045
0.82 0.0223541
0.83 0.0257354
0.84 0.0272896
0.85 0.0265689
0.86 0.0239664
0.87 0.0194934
0.88 0.0135766
0.89 0.00668559
0.9 -0.000678981
0.91 -0.00792777
0.92 -0.0144551
0.93 -0.0198139
0.94 -0.0235872
0.95 -0.025412
0.96 -0.0253641
0.97 -0.0231496
0.98 -0.0192812
0.99 -0.0139192
1 -0.00759182
1.01 -0.000821392
1.02 0.0057887
1.03 0.011728
1.04 0.0163548
1.05 0.0193564
1.06 0.0204085
1.07 0.0192895
1.08 0.0162395
1.09 0.0111503
1.1 0.00468187
1.11 -0.00281997
1.12 -0.0106898
1.13 -0.0183223
1.14 -0.0249468
1.15 -0.030115
1.16 -0.0330629
1.17 -0.0335836
1.18 -0.0313816
1.19 -0.026297
1.2 -0.0187328
1.21 -0.00862164
1.22 0.00317533
1.23 0.0162143
1.24 0.0296845
1.25 0.0428639
1.26 0.0548412
1.27 0.0650888
1.28 0.0726938
1.29 0.0773845
1.3 0.0787612
1.31 0.0765354
1.32 0.0710965
1.33 0.0621366
1.34 0.0505646
1.35 0.0366367
1.36 0.0210993
1.37 0.00464856
1.38 -0.0119997
1.39 -0.0281688
1.4 -0.0431159
1.41 -0.0563888
1.42 -0.0675308
1.43 -0.076124
1.44 -0.0822649
1.45 -0.0854693
1.46 -0.0862412
1.47 -0.0844972
1.48 -0.0805633
1.49 -0.0747831
1.5 -0.0673074
1.51 -0.058642
1.52 -0.0489316
1.53 -0.0385439
1.54 -0.0276777
1.55 -0.0165355
1.56 -0.00529879
1.57 0.00586992
1.58 0.0168311
1.59 0.0274062
1.6 0.0374111
1.61 0.0466767
1.62 0.0548476
1.63 0.0618089
1.64 0.0670821
1.65 0.0705121
1.66 0.0717805
1.67 0.0705355
1.68 0.0668661
1.69 0.0602428
1.7 0.0511213
1.71 0.0393935
1.72 0.025428
1.73 0.00968193
1.74 -0.0074429
1.75 -0.0251883
1.76 -0.0429133
1.77 -0.0598853
1.78 -0.0754282
1.79 -0.0887875
1.8 -0.0997105
1.81 -0.107336
1.82 -0.111952
1.83 -0.113259
1.84 -0.111563
1.85 -0.107345
1.86 -0.100976
1.87 -0.0934002
1.88 -0.0852996
1.89 -0.0775873
1.9 -0.0710423
1.91 -0.0665196
1.92 -0.0643461
1.93 -0.0653925
1.94 -0.0693536
1.95 -0.0764416
1.96 -0.0862198
1.97 -0.0980659
1.98 -0.111327
1.99 -0.124942
2 -0.137857
2.01 -0.14902
2.02 -0.157398
2.03 -0.161835
2.04 -0.162023
2.05 -0.156565
2.06 -0.145975
2.07 -0.129696
2.08 -0.108104
2.09 -0.0818261
2.1 -0.0510943
2.11 -0.0172405
2.12 0.0192156
2.13 0.0570949
2.14 0.0956159
2.15 0.133962
2.16 0.171616
2.17 0.207999
2.18 0.243121
2.19 0.276894
2.2 0.309592
2.21 0.341592
2.22 0.373335
2.23 0.405295
2.24 0.437938
2.25 0.471488
2.26 0.506037
2.27 0.541425
2.28 0.577148
2.29 0.612376
2.3 0.646128
2.31 0.676968
2.32 0.703367
2.33 0.724054
2.34 0.736596
2.35 0.740658
2.36 0.73376
2.37 0.715934
2.38 0.686444
2.39 0.644838
2.4 0.592812
2.41 0.529794
2.42 0.458959
2.43 0.381543
2.44 0.300272
2.45 0.217684
2.46 0.136698
2.47 0.0595807
2.48 -0.01058
2.49 -0.072267
2.5 -0.123775
2.51 -0.163569
2.52 -0.192477
2.53 -0.20891
2.54 -0.215568
2.55 -0.212929
2.56 -0.203286
2.57 -0.188977
2.58 -0.172242
2.59 -0.155692
2.6 -0.141784
2.61 -0.132356
2.62 -0.129003
2.63 -0.133143
2.64 -0.144443
2.65 -0.163986
2.66 -0.189853
2.67 -0.221436
2.68 -0.256809
2.69 -0.294049
2.7 -0.331011
2.71 -0.365811
2.72 -0.396194
2.73 -0.420969
2.74 -0.438979
2.75 -0.449328
2.76 -0.452795
2.77 -0.448847
2.78 -0.43965
2.79 -0.426208
2.8 -0.410613
2.81 -0.394793
2.82 -0.381031
2.83 -0.370821
2.84 -0.366309
2.85 -0.36817
2.86 -0.377127
2.87 -0.393495
2.88 -0.416008
2.89 -0.444418
2.9 -0.476252
2.91 -0.509875
2.92 -0.54286
2.93 -0.573169
2.94 -0.598069
2.95 -0.61653
2.96 -0.626208
2.97 -0.627021
2.98 -0.6186
2.99 -0.601124
3 -0.576553
3.01 -0.545673
3.02 -0.511604
3.03 -0.47654
3.04 -0.443388
3.05 -0.414451
3.06 -0.392892
3.07 -0.379559
3.08 -0.376976
3.09 -0.38486
3.1 -0.403327
3.11 -0.431828
3.12 -0.46791
3.13 -0.51036
3.14 -0.555634
3.15 -0.601161
3.16 -0.643783
3.17 -0.68113
3.18 -0.709945
3.19 -0.729697
3.2 -0.738101
3.21 -0.735965
3.22 -0.723713
3.23 -0.702617
3.24 -0.675607
3.25 -0.644921
3.26 -0.61428
3.27 -0.586971
3.28 -0.566386
3.29 -0.554825
3.3 -0.555854
3.31 -0.56917
3.32 -0.59693
3.33 -0.637312
3.34 -0.689111
3.35 -0.75002
3.36 -0.816154
3.37 -0.883997
3.38 -0.949185
3.39 -1.00742
3.4 -1.05475
3.41 -1.08876
3.42 -1.1053
3.43 -1.10554
3.44 -1.08731
3.45 -1.05356
3.46 -1.00634
3.47 -0.94911
3.48 -0.886875
3.49 -0.82446
3.5 -0.76695
3.51 -0.719521
3.52 -0.68638
3.53 -0.669648
3.54 -0.673003
3.55 -0.693682
3.56 -0.73187
3.57 -0.781938
3.58 -0.838627
3.59 -0.893879
3.6 -0.93993
3.61 -0.964102
3.62 -0.959546
3.63 -0.913976
3.64 -0.818659
3.65 -0.669001
3.66 -0.452499
3.67 -0.175056
3.68 0.171722
3.69 0.578919
3.7 1.04212
3.71 1.55368
3.72 2.09804
3.73 2.66464
3.74 3.23451
3.75 3.79126
3.76 4.31649
3.77 4.79621
3.78 5.20722
3.79 5.54549
3.8 5.78937
3.81 5.93838
3.82 5.98611
3.83 5.92692
3.84 5.77411
3.85 5.51868
3.86 5.18454
3.87 4.77622
3.88 4.31063
3.89 3.80466
3.9 3.27229
3.91 2.73238
3.92 2.20037
3.93 1.69033
3.94 1.21429
3.95 0.784856
3.96 0.403836
3.97 0.084701
3.98 -0.179597
3.99 -0.384872
4 -0.535811
4.01 -0.639601
4.02 -0.698343
4.03 -0.725159
4.04 -0.724314
4.05 -0.706561
4.06 -0.678782
4.07 -0.648142
4.08 -0.620075
4.09 -0.599999
4.1 -0.58965
4.11 -0.591309
4.12 -0.604808
4.13 -0.628575
4.14 -0.661416
4.15 -0.699483
4.16 -0.740074
4.17 -0.779477
4.18 -0.814616
4.19 -0.842079
4.2 -0.860533
4.21 -0.866504
4.22 -0.860792
4.23 -0.84209
4.24 -0.811112
4.25 -0.769329
4.26 -0.7171
4.27 -0.657417
4.28 -0.591219
4.29 -0.520946
4.3 -0.4481
4.31 -0.374161
4.32 -0.30025
4.33 -0.227256
4.34 -0.155479
4.35 -0.0851594
4.36 -0.0161814
4.37 0.0517138
4.38 0.118676
4.39 0.184988
4.4 0.250569
4.41 0.315233
4.42 0.378474
4.43 0.439307
4.44 0.496981
4.45 0.549402
4.46 0.595779
4.47 0.633977
4.48 0.662439
4.49 0.680307
4.5 0.684962
4.51 0.677341
4.52 0.655358
4.53 0.620264
4.54 0.572349
4.55 0.5122
4.56 0.442445
4.57 0.363608
4.58 0.279134
4.59 0.190808
4.6 0.101293
4.61 0.0127553
4.62 -0.0722611
4.63 -0.15249
4.64 -0.225762
4.65 -0.29158
4.66 -0.349266
4.67 -0.398289
4.68 -0.439798
4.69 -0.47324
4.7 -0.500654
4.71 -0.522579
4.72 -0.540409
4.73 -0.555427
4.74 -0.568566
4.75 -0.580971
4.76 -0.593318
4.77 -0.606128
4.78 -0.619642
4.79 -0.633906
4.8 -0.64867
4.81 -0.663621
4.82 -0.678282
4.83 -0.692148
4.84 -0.704729
4.85 -0.715731
4.86 -0.724653
4.87 -0.731657
4.88 -0.736528
4.89 -0.739647
4.9 -0.741304
4.91 -0.741924
4.92 -0.742076
4.93 -0.742284
4.94 -0.743038
4.95 -0.744799
4.96 -0.747893
4.97 -0.75242
4.98 -0.758599
4.99 -0.766116
5 -0.774916
5.01 -0.784567
5.02 -0.794735
5.03 -0.805019
5.04 -0.815088
5.05 -0.824579
5.06 -0.833383
5.07 -0.841361
5.08 -0.848556
5.09 -0.855115
5.1 -0.861164
5.11 -0.866949
5.12 -0.872583
5.13 -0.878114
5.14 -0.883412
5.15 -0.888062
5.16 -0.891569
5.17 -0.892693
5.18 -0.890555
5.19 -0.883419
5.2 -0.869542
5.21 -0.847601
5.22 -0.814501
5.23 -0.770043
5.24 -0.711091
5.25 -0.637564
5.26 -0.548553
5.27 -0.443166
5.28 -0.323615
5.29 -0.188991
5.3 -0.0434353
5.31 0.111279
5.32 0.271264
5.33 0.432624
5.34 0.590501
5.35 0.74098
5.36 0.878221
5.37 0.998655
5.38 1.09822
5.39 1.17207
5.4 1.22049
5.41 1.23722
5.42 1.22594
5.43 1.18454
5.44 1.11503
5.45 1.021
5.46 0.903165
5.47 0.768453
5.48 0.619333
5.49 0.461953
5.5 0.300779
5.51 0.14093
5.52 -0.013745
5.53 -0.157964
5.54 -0.289982
5.55 -0.406393
5.56 -0.505748
5.57 -0.588244
5.58 -0.65191
5.59 -0.700002
5.6 -0.731918
5.61 -0.750852
5.62 -0.758603
5.63 -0.757107
5.64 -0.749317
5.65 -0.736445
5.66 -0.720863
5.67 -0.703582
5.68 -0.685532
5.69 -0.6671
5.7 -0.648184
5.71 -0.628456
5.72 -0.607085
5.73 -0.583317
5.74 -0.556283
5.75 -0.524921
5.76 -0.489138
5.77 -0.447836
5.78 -0.401831
5.79 -0.351173
5.8 -0.296882
5.81 -0.240289
5.82 -0.182925
5.83 -0.12663
5.84 -0.0736038
5.85 -0.0256576
5.86 0.0153732
5.87 0.0472895
5.88 0.0698515
5.89 0.0804529
5.9 0.0802898
5.91 0.0684948
5.92 0.0458248
5.93 0.0137316
5.94 -0.0273944
5.95 -0.0747925
5.96 -0.12739
5.97 -0.182829
5.98 -0.239445
5.99 -0.29546
6 -0.34968
6.01 -0.400608
6.02 -0.448018
6.03 -0.491331
6.04 -0.530697
6.05 -0.566689
6.06 -0.599649
6.07 -0.630772
6.08 -0.660761
6.09 -0.690615
6.1 -0.721034
6.11 -0.752649
6.12 -0.785584
6.13 -0.820019
6.14 -0.855399
6.15 -0.891172
6.16 -0.926374
6.17 -0.960078
6.18 -0.990805
6.19 -1.0179
6.2 -1.03988
6.21 -1.05637
6.22 -1.06688
6.23 -1.07105
6.24 -1.06984
6.25 -1.06321
6.26 -1.05298
6.27 -1.04016
6.28 -1.02644
6.29 -1.01327
6.3 -1.00231
6.31 -0.994307
6.32 -0.99032
6.33 -0.990073
6.34 -0.992976
6.35 -0.997552
6.36 -1.00156
6.37 -1.00141
6.38 -0.993859
6.39 -0.973999
6.4 -0.936825
6.41 -0.878777
6.42 -0.791717
6.43 -0.675302
6.44 -0.521753
6.45 -0.330981
6.46 -0.101009
6.47 0.170458
6.48 0.477788
6.49 0.823547
6.5 1.19785
6.51 1.59697
6.52 2.01223
6.53 2.4347
6.54 2.85406
6.55 3.2609
6.56 3.64256
6.57 3.99024
6.58 4.29447
6.59 4.54328
6.6 4.73602
6.61 4.85707
6.62 4.91249
6.63 4.89534
6.64 4.8072
6.65 4.65434
6.66 4.43399
6.67 4.16136
6.68 3.83795
6.69 3.47719
6.7 3.08803
6.71 2.68059
6.72 2.26628
6.73 1.85539
6.74 1.45682
6.75 1.07969
6.76 0.73139
6.77 0.415421
6.78 0.140466
6.79 -0.096705
6.8 -0.290307
6.81 -0.444299
6.82 -0.56005
6.83 -0.63887
6.84 -0.688207
6.85 -0.70821
6.86 -0.707604
6.87 -0.689414
6.88 -0.658946
6.89 -0.620805
6.9 -0.578391
6.91 -0.535306
6.92 -0.494059
6.93 -0.456387
6.94 -0.423392
6.95 -0.395936
6.96 -0.37347
6.97 -0.35645
6.98 -0.343567
6.99 -0.334482
7 -0.328394
7.01 -0.3246
7.02 -0.322917
7.03 -0.322888
7.04 -0.324801
7.05 -0.32883
7.06 -0.335472
7.07 -0.345595
7.08 -0.359468
7.09 -0.378494
7.1 -0.402563
7.11 -0.432468
7.12 -0.468286
7.13 -0.50954
7.14 -0.556352
7.15 -0.607185
7.16 -0.661385
7.17 -0.71726
7.18 -0.77337
7.19 -0.827894
7.2 -0.879524
7.21 -0.92607
7.22 -0.966911
7.23 -1.00061
7.24 -1.02656
7.25 -1.04496
7.26 -1.05509
7.27 -1.05861
7.28 -1.05567
7.29 -1.04806
7.3 -1.03707
7.31 -1.02423
7.32 -1.01109
7.33 -0.99911
7.34 -0.989195
7.35 -0.982169
7.36 -0.978249
7.37 -0.977014
7.38 -0.977894
7.39 -0.979357
7.4 -0.979637
7.41 -0.976589
7.42 -0.967938
7.43 -0.950557
7.44 -0.923132
7.45 -0.881414
7.46 -0.825345
7.47 -0.752355
7.48 -0.661695
7.49 -0.554215
7.5 -0.428445
7.51 -0.288178
7.52 -0.133773
7.53 0.0307533
7.54 0.202266
7.55 0.37677
7.56 0.550099
7.57 0.71711
7.58 0.874275
7.59 1.01679
7.6 1.14072
7.61 1.2442
7.62 1.32167
7.63 1.37494
7.64 1.39987
7.65 1.3984
7.66 1.37095
7.67 1.31767
7.68 1.24332
7.69 1.14753
7.7 1.03637
7.71 0.91208
7.72 0.778853
7.73 0.640641
7.74 0.501044
7.75 0.363582
7.76 0.231839
7.77 0.108331
7.78 -0.00467036
7.79 -0.104457
7.8 -0.191194
7.81 -0.261726
7.82 -0.31776
7.83 -0.358164
7.84 -0.383527
7.85 -0.395394
7.86 -0.393218
7.87 -0.380142
7.88 -0.356322
7.89 -0.324273
7.9 -0.285593
7.91 -0.241981
7.92 -0.195701
7.93 -0.148476
7.94 -0.102331
7.95 -0.0591336
7.96 -0.0207502
7.97 0.0116437
7.98 0.0356325
7.99 0.0512077
8 0.0563091
8.01 0.0510154
8.02 0.034949
8.03 0.00751664
8.04 -0.0297014
8.05 -0.0774775
8.06 -0.13335
8.07 -0.196618
8.08 -0.265467
8.09 -0.337957
8.1 -0.412407
8.11 -0.486754
8.12 -0.559115
8.13 -0.627926
8.14 -0.691868
8.15 -0.74946
8.16 -0.800746
8.17 -0.84433
8.18 -0.881284
8.19 -0.911503
8.2 -0.935823
8.21 -0.955438
8.22 -0.970943
8.23 -0.983909
8.24 -0.994988
8.25 -1.00505
8.26 -1.01444
8.27 -1.023
8.28 -1.03029
8.29 -1.03483
8.3 -1.03527
8.31 -1.02915
8.32 -1.01366
8.33 -0.986699
8.34 -0.9432
8.35 -0.882468
8.36 -0.799313
8.37 -0.692741
8.38 -0.560854
8.39 -0.400931
8.4 -0.215877
8.41 -0.00258737
8.42 0.233237
8.43 0.490267
8.44 0.763736
8.45 1.04795
8.46 1.33737
8.47 1.6249
8.48 1.90294
8.49 2.1646
8.5 2.40317
8.51 2.60985
8.52 2.78273
8.53 2.91071
8.54 2.99584
8.55 3.03247
8.56 3.01986
8.57 2.96138
8.58 2.85316
8.59 2.70514
8.6 2.51696
8.61 2.29727
8.62 2.05184
8.63 1.78686
8.64 1.51098
8.65 1.23047
8.66 0.952795
8.67 0.684309
8.68 0.431007
8.69 0.196197
8.7 -0.0135187
8.71 -0.199186
8.72 -0.356331
8.73 -0.48666
8.74 -0.590713
8.75 -0.668713
8.76 -0.725642
8.77 -0.761345
8.78 -0.781869
8.79 -0.789446
8.8 -0.787962
8.81 -0.780991
8.82 -0.771301
8.83 -0.761786
8.84 -0.754691
8.85 -0.751547
8.86 -0.75338
8.87 -0.761116
8.88 -0.774176
8.89 -0.793038
8.9 -0.816266
8.91 -0.843284
8.92 -0.872891
8.93 -0.903896
8.94 -0.935199
8.95 -0.965782
8.96 -0.994651
8.97 -1.02121
8.98 -1.04502
8.99 -1.06562
9 -1.08331
9.01 -1.09776
9.02 -1.10966
9.03 -1.11917
9.04 -1.12674
9.05 -1.13283
9.06 -1.13766
9.07 -1.14161
9.08 -1.14471
9.09 -1.14697
9.1 -1.14819
9.11 -1.1479
9.12 -1.1458
9.13 -1.14088
9.14 -1.13276
9.15 -1.12045
9.16 -1.1031
9.17 -1.08038
9.18 -1.05082
9.19 -1.01492
9.2 -0.971575
9.21 -0.921251
9.22 -0.864126
9.23 -0.800337
9.24 -0.731329
9.25 -0.657446
9.26 -0.580635
9.27 -0.502169
9.28 -0.423909
9.29 -0.34748
9.3 -0.275254
9.31 -0.20839
9.32 -0.149327
9.33 -0.0991289
9.34 -0.0590061
9.35 -0.0306513
9.36 -0.0133005
9.37 -0.00893479
9.38 -0.0156518
9.39 -0.0336225
9.4 -0.0616403
9.41 -0.0978023
9.42 -0.141246
9.43 -0.189121
9.44 -0.239852
9.45 -0.291037
9.46 -0.340768
9.47 -0.386833
9.48 -0.428136
9.49 -0.462424
9.5 -0.489647
9.51 -0.508793
9.52 -0.519813
9.53 -0.523537
9.54 -0.51985
9.55 -0.510838
9.56 -0.497273
9.57 -0.481128
9.58 -0.46397
9.59 -0.447627
9.6 -0.433453
9.61 -0.423368
9.62 -0.417994
9.63 -0.418463
9.64 -0.425259
9.65 -0.438079
9.66 -0.457462
9.67 -0.481965
9.68 -0.511388
9.69 -0.544346
9.7 -0.57981
9.71 -0.616668
9.72 -0.653778
9.73 -0.690104
9.74 -0.724954
9.75 -0.757653
9.76 -0.78779
9.77 -0.815346
9.78 -0.839894
9.79 -0.861855
9.8 -0.880889
9.81 -0.897054
9.82 -0.910024
9.83 -0.918858
9.84 -0.923065
9.85 -0.920237
9.86 -0.909282
9.87 -0.887262
9.88 -0.851131
9.89 -0.79895
9.9 -0.724699
9.91 -0.628222
9.92 -0.503469
9.93 -0.3494
9.94 -0.163942
9.95 0.0564522
9.96 0.308239
9.97 0.595562
9.98 0.911834
9.99 1.2558
10 1.62221
10.01 2.00421
10.02 2.39578
10.03 2.78792
10.04 3.17176
10.05 3.53842
10.06 3.87947
10.07 4.18356
10.08 4.44752
10.09 4.65721
10.1 4.81381
10.11 4.90971
10.12 4.9426
10.13 4.91619
10.14 4.82401
10.15 4.67833
10.16 4.47763
10.17 4.23229
10.18 3.94939
10.19 3.63599
10.2 3.30369
10.21 2.95961
10.22 2.61419
10.23 2.27534
10.24 1.95113
10.25 1.64631
10.26 1.36924
10.27 1.11944
10.28 0.90239
10.29 0.716529
10.3 0.561138
10.31 0.435989
10.32 0.335001
10.33 0.257881
10.34 0.197391
10.35 0.150393
10.36 0.112041
10.37 0.0780028
10.38 0.044615
10.39 0.0088254
10.4 -0.032096
10.41 -0.0794914
10.42 -0.134123
10.43 -0.196565
10.44 -0.265427
10.45 -0.340492
10.46 -0.419445
10.47 -0.500819
10.48 -0.582521
10.49 -0.662811
10.5 -0.739457
10.51 -0.81149
10.52 -0.87706
10.53 -0.935634
10.54 -0.986689
10.55 -1.02946
10.56 -1.06491
10.57 -1.0922
10.58 -1.11278
10.59 -1.12672
10.6 -1.13465
10.61 -1.13745
10.62 -1.13495
10.63 -1.12823
10.64 -1.11703
10.65 -1.10178
10.66 -1.08254
10.67 -1.05906
10.68 -1.03182
10.69 -1.0003
10.7 -0.965199
10.71 -0.926558
10.72 -0.884909
10.73 -0.841058
10.74 -0.795695
10.75 -0.75004
10.76 -0.705286
10.77 -0.662741
10.78 -0.62365
10.79 -0.589717
10.8 -0.561479
10.81 -0.541015
10.82 -0.528193
10.83 -0.524062
10.84 -0.52887
10.85 -0.541933
10.86 -0.563907
10.87 -0.592829
10.88 -0.6285
10.89 -0.66917
10.9 -0.713513
10.91 -0.760088
10.92 -0.807256
10.93 -0.853488
10.94 -0.897561
10.95 -0.938228
10.96 -0.974501
10.97 -1.0061
10.98 -1.03195
10.99 -1.05278
11 -1.06819
11.01 -1.07896
11.02 -1.08568
11.03 -1.08896
11.04 -1.08998
11.05 -1.08938
11.06 -1.08828
11.07 -1.08746
11.08 -1.0877
11.09 -1.08948
11.1 -1.09352
11.11 -1.09971
11.12 -1.10837
11.13 -1.11915
11.14 -1.13169
11.15 -1.14545
11.16 -1.15958
11.17 -1.17305
11.18 -1.18477
11.19 -1.19334
11.2 -1.19718
11.21 -1.19517
11.22 -1.18456
11.23 -1.16489
11.24 -1.13325
11.25 -1.08858
11.26 -1.02941
11.27 -0.953108
11.28 -0.860468
11.29 -0.747882
11.3 -0.617258
11.31 -0.467324
11.32 -0.298565
11.33 -0.113198
11.34 0.0892226
11.35 0.304098
11.36 0.529959
11.37 0.762422
11.38 0.997721
11.39 1.23105
11.4 1.45828
11.41 1.67299
11.42 1.87176
11.43 2.04898
11.44 2.19985
11.45 2.32273
11.46 2.41004
11.47 2.46455
11.48 2.48089
11.49 2.46105
11.5 2.40582
11.51 2.31469
11.52 2.19418
11.53 2.04362
11.54 1.87103
11.55 1.67965
11.56 1.47519
11.57 1.26342
11.58 1.04944
11.59 0.838449
11.6 0.635527
11.61 0.444378
11.62 0.267955
11.63 0.109959
11.64 -0.0303455
11.65 -0.149541
11.66 -0.250509
11.67 -0.333119
11.68 -0.399263
11.69 -0.452148
11.7 -0.492926
11.71 -0.526025
11.72 -0.553409
11.73 -0.578245
11.74 -0.602734
11.75 -0.629009
11.76 -0.658134
11.77 -0.691422
11.78 -0.728523
11.79 -0.769235
11.8 -0.812447
11.81 -0.856619
11.82 -0.899689
11.83 -0.939702
11.84 -0.973888
11.85 -1.00012
11.86 -1.01633
11.87 -1.01955
11.88 -1.00969
11.89 -0.983274
11.9 -0.9415
11.91 -0.883091
11.92 -0.808265
11.93 -0.718845
11.94 -0.614165
11.95 -0.497997
11.96 -0.371054
11.97 -0.236488
11.98 -0.0967462
11.99 0.0454579
12 0.187281
12.01 0.325582
12.02 0.458065
12.03 0.581922
12.04 0.694602
12.05 0.795054
12.06 0.879532
12.07 0.948969
12.08 1.00052
12.09 1.03464
12.1 1.05122
12.11 1.04924
12.12 1.03135
12.13 0.996125
12.14 0.946965
12.15 0.884545
12.16 0.810879
12.17 0.728642
12.18 0.639163
12.19 0.545683
12.2 0.45006
12.21 0.354757
12.22 0.26168
12.23 0.173037
12.24 0.0897213
12.25 0.0138631
12.26 -0.0546465
12.27 -0.114992
12.28 -0.167197
12.29 -0.212239
12.3 -0.250002
12.31 -0.282578
12.32 -0.310693
12.33 -0.336152
12.34 -0.360355
12.35 -0.384812
12.36 -0.410641
12.37 -0.439152
12.38 -0.470669
12.39 -0.505605
12.4 -0.543746
12.41 -0.58427
12.42 -0.626251
