# xPDFsuite Configuration #
[PDF]
wavelength = 0.1432
dataformat = twotheta
inputfile = 1_1Pd_CeO2_cycle-00179.chi
backgroundfile = background-00000.chi
mode = xray
bgscale = 1.007
composition = CeO2
outputtype = gr
qmaxinst = 28.8974762299
qmin = 0.5
qmax = 27.9
rmax = 50.0
rmin = 0.0
rstep = 0.01
rpoly = 1.8657

[Misc]
inputdir = G:/SankarDec16/1Pd/Chi
savedir = D:/DATA/APS_CeO2/1Pd
backgroundfilefull = G:/SankarDec16/Background/background-00000.chi

#### start data
#S 1
#L r($\AA$)  G($\AA^{-2}$)
0 0
0.01 -0.00906235
0.02 -0.0174427
0.03 -0.0244387
0.04 -0.0295212
0.05 -0.0323958
0.06 -0.0325887
0.07 -0.0304146
0.08 -0.0257206
0.09 -0.0191076
0.1 -0.0109912
0.11 -0.00200779
0.12 0.00714774
0.13 0.0156965
0.14 0.0230852
0.15 0.0286372
0.16 0.0319553
0.17 0.0328799
0.18 0.0310867
0.19 0.0270377
0.2 0.0207489
0.21 0.0129206
0.22 0.00406963
0.23 -0.00508958
0.24 -0.0139022
0.25 -0.0215291
0.26 -0.0275714
0.27 -0.0314103
0.28 -0.032799
0.29 -0.0317208
0.3 -0.0280162
0.31 -0.022273
0.32 -0.0146756
0.33 -0.0059913
0.34 0.00318595
0.35 0.0120968
0.36 0.0201574
0.37 0.0265079
0.38 0.0309224
0.39 0.0328696
0.4 0.0322647
0.41 0.0292352
0.42 0.0237944
0.43 0.0166288
0.44 0.00808288
0.45 -0.00104451
0.46 -0.0101105
0.47 -0.0183458
0.48 -0.0252656
0.49 -0.0300297
0.5 -0.0325962
0.51 -0.0325466
0.52 -0.0299629
0.53 -0.0251113
0.54 -0.0181781
0.55 -0.00991671
0.56 -0.000815695
0.57 0.00833146
0.58 0.0168634
0.59 0.0240365
0.6 0.0294887
0.61 0.0324389
0.62 0.0330321
0.63 0.0309828
0.64 0.0265367
0.65 0.0200869
0.66 0.0119848
0.67 0.00301527
0.68 -0.00621114
0.69 -0.0149435
0.7 -0.0225332
0.71 -0.0282971
0.72 -0.0320133
0.73 -0.0329968
0.74 -0.0315729
0.75 -0.0276026
0.76 -0.0214839
0.77 -0.0137173
0.78 -0.00480265
0.79 0.0044814
0.8 0.0134335
0.81 0.0213813
0.82 0.0277219
0.83 0.0318668
0.84 0.0337454
0.85 0.0328045
0.86 0.029533
0.87 0.023946
0.88 0.016573
0.89 0.0079955
0.9 -0.00116625
0.91 -0.0101833
0.92 -0.0183063
0.93 -0.0249826
0.94 -0.0296966
0.95 -0.0319992
0.96 -0.0319837
0.97 -0.0292848
0.98 -0.0245351
0.99 -0.0179289
1 -0.0101152
1.01 -0.00173526
1.02 0.00647401
1.03 0.0138846
1.04 0.0197154
1.05 0.0235831
1.06 0.0250946
1.07 0.0239834
1.08 0.0205432
1.09 0.0146505
1.1 0.00710794
1.11 -0.00165853
1.12 -0.0108402
1.13 -0.0197049
1.14 -0.0273205
1.15 -0.0331565
1.16 -0.0363007
1.17 -0.0365242
1.18 -0.0334939
1.19 -0.0270514
1.2 -0.0177067
1.21 -0.00543523
1.22 0.00871071
1.23 0.0241474
1.24 0.0398741
1.25 0.055011
1.26 0.068424
1.27 0.0795155
1.28 0.0871711
1.29 0.0911194
1.3 0.0909169
1.31 0.0862765
1.32 0.0777403
1.33 0.0650242
1.34 0.0492969
1.35 0.030964
1.36 0.011005
1.37 -0.00968729
1.38 -0.0301427
1.39 -0.0495657
1.4 -0.0669725
1.41 -0.0818656
1.42 -0.0937002
1.43 -0.102004
1.44 -0.106995
1.45 -0.108127
1.46 -0.106154
1.47 -0.101065
1.48 -0.0933839
1.49 -0.0836286
1.5 -0.072125
1.51 -0.0595395
1.52 -0.0461856
1.53 -0.0325279
1.54 -0.018858
1.55 -0.00545667
1.56 0.00752905
1.57 0.0198564
1.58 0.0315067
1.59 0.0423069
1.6 0.0521579
1.61 0.0609718
1.62 0.0684443
1.63 0.0745552
1.64 0.0788662
1.65 0.081279
1.66 0.0815033
1.67 0.0792075
1.68 0.074488
1.69 0.0668157
1.7 0.0566414
1.71 0.043852
1.72 0.0288144
1.73 0.0119895
1.74 -0.00620818
1.75 -0.0250025
1.76 -0.0437201
1.77 -0.0615994
1.78 -0.0779292
1.79 -0.0919133
1.8 -0.103291
1.81 -0.111149
1.82 -0.115807
1.83 -0.116956
1.84 -0.114937
1.85 -0.110278
1.86 -0.103403
1.87 -0.0953258
1.88 -0.086804
1.89 -0.0788131
1.9 -0.0721913
1.91 -0.0678484
1.92 -0.0661043
1.93 -0.0678672
1.94 -0.0727557
1.95 -0.0809411
1.96 -0.0918865
1.97 -0.104866
1.98 -0.119083
1.99 -0.133379
2 -0.14653
2.01 -0.157416
2.02 -0.164915
2.03 -0.1678
2.04 -0.16583
2.05 -0.157559
2.06 -0.143693
2.07 -0.123771
2.08 -0.0983758
2.09 -0.0683316
2.1 -0.0341342
2.11 0.00270859
2.12 0.0413849
2.13 0.0805964
2.14 0.11941
2.15 0.156882
2.16 0.192603
2.17 0.225883
2.18 0.257036
2.19 0.286086
2.2 0.313606
2.21 0.340262
2.22 0.366843
2.23 0.394104
2.24 0.422894
2.25 0.453633
2.26 0.486628
2.27 0.521904
2.28 0.558845
2.29 0.596784
2.3 0.634371
2.31 0.670045
2.32 0.701916
2.33 0.728358
2.34 0.746519
2.35 0.755711
2.36 0.752987
2.37 0.738129
2.38 0.710134
2.39 0.668312
2.4 0.614481
2.41 0.547858
2.42 0.47205
2.43 0.388421
2.44 0.300115
2.45 0.210086
2.46 0.121729
2.47 0.0377366
2.48 -0.038268
2.49 -0.10446
2.5 -0.158811
2.51 -0.199495
2.52 -0.227458
2.53 -0.240838
2.54 -0.242805
2.55 -0.233951
2.56 -0.217013
2.57 -0.194782
2.58 -0.169986
2.59 -0.145729
2.6 -0.125023
2.61 -0.110065
2.62 -0.102804
2.63 -0.104985
2.64 -0.116178
2.65 -0.137766
2.66 -0.167369
2.67 -0.204273
2.68 -0.246113
2.69 -0.290509
2.7 -0.334828
2.71 -0.376682
2.72 -0.413261
2.73 -0.443
2.74 -0.464388
2.75 -0.476196
2.76 -0.479292
2.77 -0.472846
2.78 -0.459479
2.79 -0.440298
2.8 -0.417831
2.81 -0.394465
2.82 -0.372965
2.83 -0.355331
2.84 -0.344262
2.85 -0.340807
2.86 -0.346049
2.87 -0.360643
2.88 -0.383241
2.89 -0.413915
2.9 -0.44975
2.91 -0.489036
2.92 -0.528937
2.93 -0.566982
2.94 -0.6
2.95 -0.626464
2.96 -0.643525
2.97 -0.650723
2.98 -0.647344
2.99 -0.633232
3 -0.610386
3.01 -0.579271
3.02 -0.54337
3.03 -0.504901
3.04 -0.467095
3.05 -0.432608
3.06 -0.404922
3.07 -0.38532
3.08 -0.376695
3.09 -0.379085
3.1 -0.392876
3.11 -0.417775
3.12 -0.451326
3.13 -0.492534
3.14 -0.537621
3.15 -0.583993
3.16 -0.628276
3.17 -0.667862
3.18 -0.69929
3.19 -0.721756
3.2 -0.732761
3.21 -0.732937
3.22 -0.722575
3.23 -0.70285
3.24 -0.676727
3.25 -0.646407
3.26 -0.615768
3.27 -0.588183
3.28 -0.5672
3.29 -0.555256
3.3 -0.556065
3.31 -0.569401
3.32 -0.597519
3.33 -0.638586
3.34 -0.691371
3.35 -0.753489
3.36 -0.820925
3.37 -0.890002
3.38 -0.956202
3.39 -1.01504
3.4 -1.06243
3.41 -1.09586
3.42 -1.11106
3.43 -1.10929
3.44 -1.08835
3.45 -1.05139
3.46 -1.00064
3.47 -0.939791
3.48 -0.874108
3.49 -0.808764
3.5 -0.749036
3.51 -0.700398
3.52 -0.667232
3.53 -0.651709
3.54 -0.657676
3.55 -0.682122
3.56 -0.725222
3.57 -0.780989
3.58 -0.843879
3.59 -0.905437
3.6 -0.957522
3.61 -0.986945
3.62 -0.986591
3.63 -0.943756
3.64 -0.849478
3.65 -0.699106
3.66 -0.479904
3.67 -0.198121
3.68 0.154636
3.69 0.568981
3.7 1.04013
3.71 1.55996
3.72 2.11242
3.73 2.68635
3.74 3.26239
3.75 3.8237
3.76 4.35154
3.77 4.83185
3.78 5.24114
3.79 5.57575
3.8 5.81399
3.81 5.9559
3.82 5.99546
3.83 5.92753
3.84 5.76595
3.85 5.50235
3.86 5.16103
3.87 4.74705
3.88 4.27763
3.89 3.76976
3.9 3.23772
3.91 2.70001
3.92 2.17209
3.93 1.66754
3.94 1.19802
3.95 0.775642
3.96 0.401692
3.97 0.0890719
3.98 -0.169636
3.99 -0.370694
4 -0.519048
4.01 -0.621936
4.02 -0.681657
4.03 -0.710961
4.04 -0.714044
4.05 -0.701161
4.06 -0.678798
4.07 -0.653608
4.08 -0.630584
4.09 -0.614557
4.1 -0.607024
4.11 -0.609875
4.12 -0.622806
4.13 -0.644305
4.14 -0.673114
4.15 -0.705857
4.16 -0.740049
4.17 -0.772546
4.18 -0.80075
4.19 -0.821843
4.2 -0.834896
4.21 -0.837112
4.22 -0.829405
4.23 -0.810847
4.24 -0.782186
4.25 -0.744717
4.26 -0.698761
4.27 -0.646694
4.28 -0.589115
4.29 -0.527778
4.3 -0.463607
4.31 -0.39738
4.32 -0.329803
4.33 -0.26098
4.34 -0.191167
4.35 -0.120216
4.36 -0.0480387
4.37 0.0253588
4.38 0.100018
4.39 0.175475
4.4 0.251201
4.41 0.326213
4.42 0.399323
4.43 0.468735
4.44 0.533248
4.45 0.589868
4.46 0.637798
4.47 0.674476
4.48 0.698408
4.49 0.709066
4.5 0.703973
4.51 0.684938
4.52 0.650397
4.53 0.602518
4.54 0.542371
4.55 0.471471
4.56 0.39296
4.57 0.308402
4.58 0.221255
4.59 0.13382
4.6 0.0487189
4.61 -0.0322273
4.62 -0.106563
4.63 -0.173991
4.64 -0.232842
4.65 -0.283632
4.66 -0.326514
4.67 -0.361951
4.68 -0.391702
4.69 -0.416319
4.7 -0.437952
4.71 -0.457733
4.72 -0.477099
4.73 -0.497051
4.74 -0.51854
4.75 -0.541758
4.76 -0.566987
4.77 -0.593749
4.78 -0.621496
4.79 -0.649334
4.8 -0.676357
4.81 -0.701238
4.82 -0.723289
4.83 -0.741432
4.84 -0.755073
4.85 -0.764127
4.86 -0.768039
4.87 -0.767793
4.88 -0.763501
4.89 -0.75642
4.9 -0.747523
4.91 -0.738053
4.92 -0.729156
4.93 -0.722209
4.94 -0.717884
4.95 -0.717104
4.96 -0.720249
4.97 -0.727209
4.98 -0.738176
4.99 -0.752118
5 -0.768617
5.01 -0.786482
5.02 -0.804762
5.03 -0.822333
5.04 -0.838424
5.05 -0.851921
5.06 -0.862668
5.07 -0.870189
5.08 -0.874586
5.09 -0.876295
5.1 -0.875599
5.11 -0.873457
5.12 -0.870444
5.13 -0.867333
5.14 -0.864606
5.15 -0.86256
5.16 -0.861035
5.17 -0.859529
5.18 -0.857069
5.19 -0.852188
5.2 -0.842978
5.21 -0.827733
5.22 -0.803098
5.23 -0.768102
5.24 -0.719056
5.25 -0.655119
5.26 -0.574736
5.27 -0.476268
5.28 -0.361636
5.29 -0.229156
5.3 -0.083148
5.31 0.0748638
5.32 0.24076
5.33 0.410199
5.34 0.578003
5.35 0.739412
5.36 0.887967
5.37 1.01928
5.38 1.12861
5.39 1.21028
5.4 1.2643
5.41 1.28356
5.42 1.27195
5.43 1.22709
5.44 1.15123
5.45 1.04843
5.46 0.919747
5.47 0.773002
5.48 0.611305
5.49 0.441681
5.5 0.269336
5.51 0.100247
5.52 -0.0613902
5.53 -0.209392
5.54 -0.342183
5.55 -0.45603
5.56 -0.549689
5.57 -0.623821
5.58 -0.676716
5.59 -0.71257
5.6 -0.731379
5.61 -0.73725
5.62 -0.732737
5.63 -0.72066
5.64 -0.704384
5.65 -0.686049
5.66 -0.667943
5.67 -0.651456
5.68 -0.637389
5.69 -0.625721
5.7 -0.616174
5.71 -0.607501
5.72 -0.59835
5.73 -0.587064
5.74 -0.572035
5.75 -0.551337
5.76 -0.524413
5.77 -0.489253
5.78 -0.44667
5.79 -0.396299
5.8 -0.339217
5.81 -0.277095
5.82 -0.211565
5.83 -0.145328
5.84 -0.0810343
5.85 -0.0213611
5.86 0.0311506
5.87 0.0734657
5.88 0.104853
5.89 0.121806
5.9 0.125451
5.91 0.114467
5.92 0.0895975
5.93 0.0525672
5.94 0.00378153
5.95 -0.0531949
5.96 -0.116925
5.97 -0.184222
5.98 -0.252756
5.99 -0.31995
6 -0.38408
6.01 -0.442773
6.02 -0.495639
6.03 -0.541605
6.04 -0.580713
6.05 -0.613719
6.06 -0.640861
6.07 -0.664056
6.08 -0.68424
6.09 -0.703169
6.1 -0.722135
6.11 -0.742483
6.12 -0.764896
6.13 -0.790336
6.14 -0.818519
6.15 -0.849391
6.16 -0.882184
6.17 -0.915896
6.18 -0.94924
6.19 -0.980992
6.2 -1.00955
6.21 -1.03391
6.22 -1.05312
6.23 -1.06622
6.24 -1.07368
6.25 -1.07479
6.26 -1.07107
6.27 -1.06311
6.28 -1.05236
6.29 -1.04027
6.3 -1.02832
6.31 -1.01767
6.32 -1.00944
6.33 -1.00383
6.34 -1.00062
6.35 -0.998803
6.36 -0.996559
6.37 -0.990796
6.38 -0.978541
6.39 -0.955239
6.4 -0.916066
6.41 -0.857458
6.42 -0.771427
6.43 -0.657295
6.44 -0.507214
6.45 -0.3207
6.46 -0.0954655
6.47 0.171168
6.48 0.473909
6.49 0.81574
6.5 1.18697
6.51 1.58415
6.52 1.99871
6.53 2.4217
6.54 2.84286
6.55 3.25246
6.56 3.63774
6.57 3.98952
6.58 4.29802
6.59 4.55091
6.6 4.74725
6.61 4.871
6.62 4.92811
6.63 4.91138
6.64 4.82232
6.65 4.66729
6.66 4.44346
6.67 4.16639
6.68 3.83773
6.69 3.47131
6.7 3.07639
6.71 2.66349
6.72 2.24431
6.73 1.82957
6.74 1.42829
6.75 1.04986
6.76 0.70173
6.77 0.387343
6.78 0.115445
6.79 -0.117556
6.8 -0.305987
6.81 -0.4542
6.82 -0.563865
6.83 -0.636665
6.84 -0.68034
6.85 -0.695438
6.86 -0.690823
6.87 -0.669763
6.88 -0.637652
6.89 -0.599036
6.9 -0.557377
6.91 -0.51597
6.92 -0.477218
6.93 -0.442529
6.94 -0.412739
6.95 -0.388399
6.96 -0.368722
6.97 -0.353846
6.98 -0.342371
6.99 -0.333794
7 -0.327294
7.01 -0.322262
7.02 -0.318553
7.03 -0.316002
7.04 -0.315087
7.05 -0.316297
7.06 -0.320401
7.07 -0.328596
7.08 -0.341311
7.09 -0.360297
7.1 -0.38542
7.11 -0.417604
7.12 -0.456868
7.13 -0.50255
7.14 -0.554661
7.15 -0.61128
7.16 -0.671477
7.17 -0.733171
7.18 -0.794583
7.19 -0.853481
7.2 -0.90839
7.21 -0.95668
7.22 -0.997786
7.23 -1.03011
7.24 -1.0531
7.25 -1.06721
7.26 -1.07179
7.27 -1.069
7.28 -1.05926
7.29 -1.04483
7.3 -1.02739
7.31 -1.00893
7.32 -0.99123
7.33 -0.976228
7.34 -0.964808
7.35 -0.957997
7.36 -0.95596
7.37 -0.958059
7.38 -0.963638
7.39 -0.970672
7.4 -0.977105
7.41 -0.980304
7.42 -0.977585
7.43 -0.965336
7.44 -0.94199
7.45 -0.902787
7.46 -0.847671
7.47 -0.77385
7.48 -0.680608
7.49 -0.569014
7.5 -0.437668
7.51 -0.290874
7.52 -0.129284
7.53 0.0425735
7.54 0.221131
7.55 0.401878
7.56 0.580365
7.57 0.750888
7.58 0.909891
7.59 1.0523
7.6 1.17417
7.61 1.27384
7.62 1.34574
7.63 1.3922
7.64 1.40933
7.65 1.39959
7.66 1.3638
7.67 1.30265
7.68 1.22121
7.69 1.11967
7.7 1.00421
7.71 0.877369
7.72 0.743423
7.73 0.606202
7.74 0.469389
7.75 0.336056
7.76 0.209658
7.77 0.0922582
7.78 -0.0142191
7.79 -0.107474
7.8 -0.188007
7.81 -0.253083
7.82 -0.304579
7.83 -0.341622
7.84 -0.364906
7.85 -0.375926
7.86 -0.37423
7.87 -0.362653
7.88 -0.341284
7.89 -0.312326
7.9 -0.27714
7.91 -0.237159
7.92 -0.194412
7.93 -0.150366
7.94 -0.106931
7.95 -0.0658347
7.96 -0.0288955
7.97 0.00266282
7.98 0.0264303
7.99 0.0422126
8 0.0478623
8.01 0.0432752
8.02 0.0279356
8.03 0.00110413
8.04 -0.0357164
8.05 -0.0833973
8.06 -0.139446
8.07 -0.203145
8.08 -0.272579
8.09 -0.345684
8.1 -0.420606
8.11 -0.495139
8.12 -0.567191
8.13 -0.635081
8.14 -0.697386
8.15 -0.752519
8.16 -0.800618
8.17 -0.84025
8.18 -0.872731
8.19 -0.898118
8.2 -0.917535
8.21 -0.932451
8.22 -0.943855
8.23 -0.953541
8.24 -0.962568
8.25 -0.971975
8.26 -0.982263
8.27 -0.993486
8.28 -1.005
8.29 -1.01544
8.3 -1.02301
8.31 -1.02506
8.32 -1.01832
8.33 -1.00026
8.34 -0.965259
8.35 -0.912208
8.36 -0.835328
8.37 -0.733295
8.38 -0.603892
8.39 -0.444032
8.4 -0.256795
8.41 -0.0387536
8.42 0.203878
8.43 0.469626
8.44 0.753249
8.45 1.0485
8.46 1.34928
8.47 1.64787
8.48 1.936
8.49 2.20624
8.5 2.45141
8.51 2.66215
8.52 2.83659
8.53 2.9631
8.54 3.04415
8.55 3.07409
8.56 3.05259
8.57 2.98354
8.58 2.86353
8.59 2.70327
8.6 2.50301
8.61 2.2721
8.62 2.01688
8.63 1.74423
8.64 1.46294
8.65 1.17995
8.66 0.902487
8.67 0.637067
8.68 0.389456
8.69 0.162495
8.7 -0.0374628
8.71 -0.212264
8.72 -0.357947
8.73 -0.476951
8.74 -0.570421
8.75 -0.639299
8.76 -0.68888
8.77 -0.719751
8.78 -0.737906
8.79 -0.745879
8.8 -0.7475
8.81 -0.746011
8.82 -0.744125
8.83 -0.743991
8.84 -0.747499
8.85 -0.755469
8.86 -0.768348
8.87 -0.786372
8.88 -0.808534
8.89 -0.834572
8.9 -0.862917
8.91 -0.892593
8.92 -0.922289
8.93 -0.950993
8.94 -0.977477
8.95 -1.00135
8.96 -1.02179
8.97 -1.03883
8.98 -1.05252
8.99 -1.063
9 -1.07106
9.01 -1.07702
9.02 -1.08186
9.03 -1.08615
9.04 -1.09059
9.05 -1.09561
9.06 -1.10165
9.07 -1.10868
9.08 -1.11665
9.09 -1.12511
9.1 -1.13347
9.11 -1.14081
9.12 -1.14635
9.13 -1.14856
9.14 -1.14672
9.15 -1.13944
9.16 -1.12561
9.17 -1.10483
9.18 -1.07539
9.19 -1.03807
9.2 -0.991757
9.21 -0.93727
9.22 -0.875082
9.23 -0.805684
9.24 -0.730933
9.25 -0.651584
9.26 -0.569907
9.27 -0.487517
9.28 -0.406525
9.29 -0.328621
9.3 -0.256412
9.31 -0.190816
9.32 -0.134296
9.33 -0.0876069
9.34 -0.051704
9.35 -0.0279633
9.36 -0.0152633
9.37 -0.0152062
9.38 -0.0256145
9.39 -0.0463534
9.4 -0.0760011
9.41 -0.112616
9.42 -0.155143
9.43 -0.200981
9.44 -0.24857
9.45 -0.295828
9.46 -0.341117
9.47 -0.382569
9.48 -0.41943
9.49 -0.449863
9.5 -0.474058
9.51 -0.491313
9.52 -0.501774
9.53 -0.506271
9.54 -0.50486
9.55 -0.499315
9.56 -0.490343
9.57 -0.479538
9.58 -0.468135
9.59 -0.457538
9.6 -0.448726
9.61 -0.443103
9.62 -0.441044
9.63 -0.443316
9.64 -0.450189
9.65 -0.461383
9.66 -0.477234
9.67 -0.4967
9.68 -0.519662
9.69 -0.545207
9.7 -0.572714
9.71 -0.601583
9.72 -0.63114
9.73 -0.660975
9.74 -0.690708
9.75 -0.72012
9.76 -0.749077
9.77 -0.777548
9.78 -0.805385
9.79 -0.832537
9.8 -0.858608
9.81 -0.883101
9.82 -0.905221
9.83 -0.923441
9.84 -0.936696
9.85 -0.941863
9.86 -0.937439
9.87 -0.919947
9.88 -0.885982
9.89 -0.833585
9.9 -0.756382
9.91 -0.654728
9.92 -0.522607
9.93 -0.359595
9.94 -0.164144
9.95 0.0666339
9.96 0.328522
9.97 0.624852
9.98 0.948533
9.99 1.29767
10 1.66657
10.01 2.04831
10.02 2.43642
10.03 2.82246
10.04 3.19755
10.05 3.55347
10.06 3.88238
10.07 4.17365
10.08 4.4249
10.09 4.62287
10.1 4.7694
10.11 4.8576
10.12 4.88574
10.13 4.85765
10.14 4.76745
10.15 4.62687
10.16 4.43447
10.17 4.19995
10.18 3.92979
10.19 3.63034
10.2 3.3123
10.21 2.98189
10.22 2.64875
10.23 2.32
10.24 2.00303
10.25 1.70235
10.26 1.42562
10.27 1.17285
10.28 0.9493
10.29 0.754057
10.3 0.586932
10.31 0.448348
10.32 0.333155
10.33 0.241893
10.34 0.168166
10.35 0.109654
10.36 0.0622253
10.37 0.0218476
10.38 -0.0144025
10.39 -0.0499577
10.4 -0.087271
10.41 -0.128225
10.42 -0.17403
10.43 -0.225798
10.44 -0.282999
10.45 -0.34611
10.46 -0.41361
10.47 -0.484741
10.48 -0.558047
10.49 -0.632069
10.5 -0.705184
10.51 -0.776118
10.52 -0.843213
10.53 -0.905463
10.54 -0.961939
10.55 -1.01137
10.56 -1.05401
10.57 -1.08838
10.58 -1.11532
10.59 -1.13432
10.6 -1.14553
10.61 -1.14971
10.62 -1.14628
10.63 -1.13672
10.64 -1.12076
10.65 -1.09939
10.66 -1.07316
10.67 -1.04242
10.68 -1.00831
10.69 -0.971037
10.7 -0.931752
10.71 -0.891058
10.72 -0.84983
10.73 -0.808843
10.74 -0.769084
10.75 -0.731164
10.76 -0.696119
10.77 -0.664536
10.78 -0.637028
10.79 -0.614507
10.8 -0.596831
10.81 -0.585141
10.82 -0.57889
10.83 -0.578503
10.84 -0.583882
10.85 -0.594446
10.86 -0.610531
10.87 -0.630941
10.88 -0.655664
10.89 -0.683799
10.9 -0.714744
10.91 -0.74794
10.92 -0.782522
10.93 -0.817975
10.94 -0.853551
10.95 -0.888678
10.96 -0.922749
10.97 -0.955378
10.98 -0.985848
10.99 -1.01409
11 -1.0395
11.01 -1.062
11.02 -1.08143
11.03 -1.0975
11.04 -1.11059
11.05 -1.12034
11.06 -1.12736
11.07 -1.13176
11.08 -1.13397
11.09 -1.13454
11.1 -1.13387
11.11 -1.13265
11.12 -1.13138
11.13 -1.13059
11.14 -1.13066
11.15 -1.13193
11.16 -1.1343
11.17 -1.13775
11.18 -1.14165
11.19 -1.14522
11.2 -1.14723
11.21 -1.14644
11.22 -1.14039
11.23 -1.12784
11.24 -1.10566
11.25 -1.07196
11.26 -1.02455
11.27 -0.959964
11.28 -0.878285
11.29 -0.774986
11.3 -0.651579
11.31 -0.506234
11.32 -0.339165
11.33 -0.152747
11.34 0.0536669
11.35 0.274722
11.36 0.508687
11.37 0.75038
11.38 0.995366
11.39 1.23804
11.4 1.47366
11.41 1.69498
11.42 1.8983
11.43 2.07754
11.44 2.22778
11.45 2.34759
11.46 2.42935
11.47 2.4766
11.48 2.48431
11.49 2.45529
11.5 2.39097
11.51 2.29167
11.52 2.16438
11.53 2.00927
11.54 1.83447
11.55 1.64362
11.56 1.44243
11.57 1.23634
11.58 1.03038
11.59 0.828926
11.6 0.636575
11.61 0.456209
11.62 0.290084
11.63 0.141055
11.64 0.0079481
11.65 -0.106675
11.66 -0.205734
11.67 -0.289433
11.68 -0.359635
11.69 -0.419131
11.7 -0.468964
11.71 -0.512667
11.72 -0.551692
11.73 -0.588347
11.74 -0.624123
11.75 -0.660292
11.76 -0.697491
11.77 -0.736183
11.78 -0.775998
11.79 -0.816416
11.8 -0.856372
11.81 -0.894747
11.82 -0.929596
11.83 -0.959845
11.84 -0.98322
11.85 -0.998415
11.86 -1.00405
11.87 -0.997954
11.88 -0.98044
11.89 -0.948806
11.9 -0.904249
11.91 -0.845768
11.92 -0.773507
11.93 -0.688885
11.94 -0.591088
11.95 -0.483079
11.96 -0.365088
11.97 -0.239516
11.98 -0.108199
11.99 0.0268759
12 0.16319
12.01 0.29828
12.02 0.429806
12.03 0.555158
12.04 0.671673
12.05 0.777889
12.06 0.869869
12.07 0.947799
12.08 1.00836
12.09 1.0513
12.1 1.07599
12.11 1.08073
12.12 1.06792
12.13 1.03551
12.14 0.987008
12.15 0.922923
12.16 0.845401
12.17 0.757511
12.18 0.660764
12.19 0.559084
12.2 0.454751
12.21 0.350826
12.22 0.249693
12.23 0.154112
12.24 0.0651842
12.25 -0.0144688
12.26 -0.0850437
12.27 -0.145616
12.28 -0.196336
12.29 -0.238511
12.3 -0.27219
12.31 -0.300001
12.32 -0.323001
12.33 -0.343436
12.34 -0.363046
12.35 -0.38371
12.36 -0.406658
12.37 -0.433473
12.38 -0.464357
12.39 -0.499712
12.4 -0.539141
12.41 -0.581543
12.42 -0.625748
12.43 -0.669747
