# xPDFsuite Configuration #
[PDF]
wavelength = 0.1432
dataformat = twotheta
inputfile = 1_1Pd_CeO2_cycle-00410.chi
backgroundfile = background-00000.chi
mode = xray
bgscale = 1.007
composition = CeO2
outputtype = gr
qmaxinst = 28.8974762299
qmin = 0.5
qmax = 27.9
rmax = 50.0
rmin = 0.0
rstep = 0.01
rpoly = 1.8657

[Misc]
inputdir = G:/SankarDec16/1Pd/Chi
savedir = D:/DATA/APS_CeO2/1Pd
backgroundfilefull = G:/SankarDec16/Background/background-00000.chi

#### start data
#S 1
#L r($\AA$)  G($\AA^{-2}$)
0 0
0.01 -0.00540512
0.02 -0.0104024
0.03 -0.0145718
0.04 -0.0175973
0.05 -0.0193032
0.06 -0.0194069
0.07 -0.0180973
0.08 -0.0152842
0.09 -0.0113279
0.1 -0.00647777
0.11 -0.00111535
0.12 0.00434408
0.13 0.0094339
0.14 0.0138249
0.15 0.0171134
0.16 0.0190637
0.17 0.0195829
0.18 0.0184797
0.19 0.0160327
0.2 0.0122549
0.21 0.00756662
0.22 0.00227873
0.23 -0.00318028
0.24 -0.00842026
0.25 -0.0129387
0.26 -0.0165012
0.27 -0.0187401
0.28 -0.0195119
0.29 -0.018811
0.3 -0.0165471
0.31 -0.0130749
0.32 -0.00850991
0.33 -0.00331231
0.34 0.00216089
0.35 0.00745497
0.36 0.0122242
0.37 0.0159549
0.38 0.0185188
0.39 0.0196025
0.4 0.0191622
0.41 0.0172797
0.42 0.0139706
0.43 0.00964827
0.44 0.00452542
0.45 -0.000920305
0.46 -0.00630346
0.47 -0.0111651
0.48 -0.015221
0.49 -0.0179718
0.5 -0.0194018
0.51 -0.0192677
0.52 -0.0176272
0.53 -0.0146464
0.54 -0.010446
0.55 -0.00547827
0.56 -4.24786e-05
0.57 0.00538928
0.58 0.0104223
0.59 0.0146155
0.6 0.0177609
0.61 0.0193978
0.62 0.0196241
0.63 0.018279
0.64 0.0155192
0.65 0.0115871
0.66 0.00670321
0.67 0.00133625
0.68 -0.00414215
0.69 -0.00928851
0.7 -0.0137182
0.71 -0.0170298
0.72 -0.0191015
0.73 -0.0195337
0.74 -0.0185331
0.75 -0.0160286
0.76 -0.0122683
0.77 -0.00755795
0.78 -0.00220594
0.79 0.00332585
0.8 0.00861392
0.81 0.0132655
0.82 0.0169265
0.83 0.0192559
0.84 0.0202239
0.85 0.0195135
0.86 0.0174279
0.87 0.0139884
0.88 0.00951923
0.89 0.00437086
0.9 -0.00108115
0.91 -0.00641045
0.92 -0.0111727
0.93 -0.0150532
0.94 -0.0177574
0.95 -0.0190356
0.96 -0.0189581
0.97 -0.0173314
0.98 -0.0145397
0.99 -0.0107161
1 -0.00625224
1.01 -0.00152816
1.02 0.00301544
1.03 0.00702635
1.04 0.0100521
1.05 0.011895
1.06 0.0123499
1.07 0.0112968
1.08 0.00893806
1.09 0.00525649
1.1 0.000743236
1.11 -0.0043034
1.12 -0.00938258
1.13 -0.0140523
1.14 -0.0177277
1.15 -0.0201292
1.16 -0.020701
1.17 -0.0193553
1.18 -0.0159243
1.19 -0.0103602
1.2 -0.00302586
1.21 0.00603014
1.22 0.01612
1.23 0.0268219
1.24 0.0374735
1.25 0.0475015
1.26 0.056136
1.27 0.0630209
1.28 0.0673982
1.29 0.0691186
1.3 0.0678893
1.31 0.0635194
1.32 0.0563917
1.33 0.0462917
1.34 0.0340293
1.35 0.0198648
1.36 0.00446774
1.37 -0.0115437
1.38 -0.0275034
1.39 -0.0428295
1.4 -0.0568174
1.41 -0.0690672
1.42 -0.0791421
1.43 -0.0866283
1.44 -0.0916163
1.45 -0.0935874
1.46 -0.0930284
1.47 -0.0898168
1.48 -0.084258
1.49 -0.0766925
1.5 -0.067263
1.51 -0.0565252
1.52 -0.0446639
1.53 -0.0321314
1.54 -0.0192151
1.55 -0.00623863
1.56 0.00653963
1.57 0.0187839
1.58 0.0303339
1.59 0.040896
1.6 0.0502657
1.61 0.0583005
1.62 0.0646327
1.63 0.0693078
1.64 0.0719216
1.65 0.0725203
1.66 0.0709564
1.67 0.0670986
1.68 0.06119
1.69 0.0529748
1.7 0.0429608
1.71 0.031214
1.72 0.0181352
1.73 0.00413852
1.74 -0.0103621
1.75 -0.0248467
1.76 -0.0387879
1.77 -0.0517434
1.78 -0.0632821
1.79 -0.0729598
1.8 -0.0807364
1.81 -0.0861289
1.82 -0.089493
1.83 -0.0907654
1.84 -0.090295
1.85 -0.0885032
1.86 -0.0857895
1.87 -0.0827768
1.88 -0.0800166
1.89 -0.0780431
1.9 -0.0773288
1.91 -0.0783417
1.92 -0.0811299
1.93 -0.0861036
1.94 -0.0928534
1.95 -0.101295
1.96 -0.11092
1.97 -0.121157
1.98 -0.131293
1.99 -0.140627
2 -0.148219
2.01 -0.153442
2.02 -0.155585
2.03 -0.153901
2.04 -0.1484
2.05 -0.138147
2.06 -0.123798
2.07 -0.10509
2.08 -0.0824856
2.09 -0.0565637
2.1 -0.0276109
2.11 0.00338857
2.12 0.0360339
2.13 0.0695515
2.14 0.103469
2.15 0.137349
2.16 0.170958
2.17 0.20412
2.18 0.236938
2.19 0.269546
2.2 0.30223
2.21 0.335266
2.22 0.369036
2.23 0.403666
2.24 0.43939
2.25 0.476043
2.26 0.513384
2.27 0.55086
2.28 0.587774
2.29 0.62288
2.3 0.655254
2.31 0.68331
2.32 0.705641
2.33 0.721203
2.34 0.727775
2.35 0.725484
2.36 0.71225
2.37 0.688577
2.38 0.654169
2.39 0.609069
2.4 0.555139
2.41 0.492363
2.42 0.423726
2.43 0.350643
2.44 0.275629
2.45 0.20089
2.46 0.129073
2.47 0.0618129
2.48 0.00170836
2.49 -0.0503422
2.5 -0.0931825
2.51 -0.125897
2.52 -0.149549
2.53 -0.163239
2.54 -0.169485
2.55 -0.169029
2.56 -0.163969
2.57 -0.156302
2.58 -0.148047
2.59 -0.141103
2.6 -0.137474
2.61 -0.138307
2.62 -0.144627
2.63 -0.157206
2.64 -0.175405
2.65 -0.199622
2.66 -0.228035
2.67 -0.259749
2.68 -0.292981
2.69 -0.326094
2.7 -0.357112
2.71 -0.384801
2.72 -0.407287
2.73 -0.424006
2.74 -0.434299
2.75 -0.437825
2.76 -0.43564
2.77 -0.427762
2.78 -0.416283
2.79 -0.402406
2.8 -0.388082
2.81 -0.374975
2.82 -0.365176
2.83 -0.359655
2.84 -0.360203
2.85 -0.367016
2.86 -0.380432
2.87 -0.400365
2.88 -0.425411
2.89 -0.454975
2.9 -0.486758
2.91 -0.519102
2.92 -0.549828
2.93 -0.577212
2.94 -0.598855
2.95 -0.614145
2.96 -0.621168
2.97 -0.620171
2.98 -0.61108
2.99 -0.594342
3 -0.571846
3.01 -0.544558
3.02 -0.515205
3.03 -0.485802
3.04 -0.458811
3.05 -0.436095
3.06 -0.420262
3.07 -0.411762
3.08 -0.412527
3.09 -0.422023
3.1 -0.440092
3.11 -0.465975
3.12 -0.497481
3.13 -0.533283
3.14 -0.57048
3.15 -0.606831
3.16 -0.639817
3.17 -0.667657
3.18 -0.687839
3.19 -0.700287
3.2 -0.703451
3.21 -0.698378
3.22 -0.685776
3.23 -0.66711
3.24 -0.644922
3.25 -0.621523
3.26 -0.599815
3.27 -0.58265
3.28 -0.572644
3.29 -0.571401
3.3 -0.581625
3.31 -0.602526
3.32 -0.635458
3.33 -0.678395
3.34 -0.72988
3.35 -0.787487
3.36 -0.847833
3.37 -0.907453
3.38 -0.962931
3.39 -1.01054
3.4 -1.04724
3.41 -1.07137
3.42 -1.07977
3.43 -1.07403
3.44 -1.05283
3.45 -1.01919
3.46 -0.975298
3.47 -0.924547
3.48 -0.87124
3.49 -0.819863
3.5 -0.774348
3.51 -0.738992
3.52 -0.716867
3.53 -0.709191
3.54 -0.718331
3.55 -0.74121
3.56 -0.776948
3.57 -0.820038
3.58 -0.865183
3.59 -0.90457
3.6 -0.931529
3.61 -0.934007
3.62 -0.906796
3.63 -0.838941
3.64 -0.723358
3.65 -0.556752
3.66 -0.328615
3.67 -0.0452916
3.68 0.299877
3.69 0.698053
3.7 1.14455
3.71 1.63177
3.72 2.14562
3.73 2.67585
3.74 3.20588
3.75 3.72082
3.76 4.20448
3.77 4.64478
3.78 5.02113
3.79 5.33065
3.8 5.55419
3.81 5.69182
3.82 5.73808
3.83 5.68806
3.84 5.55377
3.85 5.32694
3.86 5.0288
3.87 4.66298
3.88 4.24411
3.89 3.78692
3.9 3.30303
3.91 2.80928
3.92 2.31859
3.93 1.84361
3.94 1.39489
3.95 0.983613
3.96 0.612075
3.97 0.292272
3.98 0.0190966
3.99 -0.203094
4 -0.377393
4.01 -0.509224
4.02 -0.59918
4.03 -0.658202
4.04 -0.688757
4.05 -0.69991
4.06 -0.697126
4.07 -0.686126
4.08 -0.6722
4.09 -0.659402
4.1 -0.650477
4.11 -0.647581
4.12 -0.651482
4.13 -0.661776
4.14 -0.678206
4.15 -0.698562
4.16 -0.721377
4.17 -0.744261
4.18 -0.765209
4.19 -0.781917
4.2 -0.793269
4.21 -0.796797
4.22 -0.792671
4.23 -0.779701
4.24 -0.757956
4.25 -0.728084
4.26 -0.689763
4.27 -0.644817
4.28 -0.593281
4.29 -0.536657
4.3 -0.475683
4.31 -0.41106
4.32 -0.343794
4.33 -0.274092
4.34 -0.202758
4.35 -0.130018
4.36 -0.056275
4.37 0.0180938
4.38 0.0926725
4.39 0.16692
4.4 0.240058
4.41 0.311276
4.42 0.379552
4.43 0.443408
4.44 0.50211
4.45 0.553192
4.46 0.596341
4.47 0.629556
4.48 0.651789
4.49 0.662731
4.5 0.660352
4.51 0.646169
4.52 0.618751
4.53 0.579759
4.54 0.529863
4.55 0.470002
4.56 0.402647
4.57 0.328608
4.58 0.250773
4.59 0.170761
4.6 0.0907172
4.61 0.0122867
4.62 -0.0625357
4.63 -0.133006
4.64 -0.197539
4.65 -0.255994
4.66 -0.308026
4.67 -0.353419
4.68 -0.393191
4.69 -0.427067
4.7 -0.456631
4.71 -0.482327
4.72 -0.505167
4.73 -0.526036
4.74 -0.545515
4.75 -0.564321
4.76 -0.582775
4.77 -0.601116
4.78 -0.619369
4.79 -0.637388
4.8 -0.654975
4.81 -0.671688
4.82 -0.687294
4.83 -0.701361
4.84 -0.713614
4.85 -0.723968
4.86 -0.732112
4.87 -0.738391
4.88 -0.742747
4.89 -0.745642
4.9 -0.747409
4.91 -0.748481
4.92 -0.749342
4.93 -0.75045
4.94 -0.752147
4.95 -0.75477
4.96 -0.758506
4.97 -0.763363
4.98 -0.769426
4.99 -0.776395
5 -0.784154
5.01 -0.792348
5.02 -0.800708
5.03 -0.808933
5.04 -0.816832
5.05 -0.824173
5.06 -0.830969
5.07 -0.837196
5.08 -0.842976
5.09 -0.848471
5.1 -0.853845
5.11 -0.859248
5.12 -0.864747
5.13 -0.870252
5.14 -0.87552
5.15 -0.879995
5.16 -0.883099
5.17 -0.883467
5.18 -0.880236
5.19 -0.871666
5.2 -0.85611
5.21 -0.832389
5.22 -0.797624
5.23 -0.751833
5.24 -0.692208
5.25 -0.618904
5.26 -0.531274
5.27 -0.428726
5.28 -0.313463
5.29 -0.1849
5.3 -0.0469024
5.31 0.098764
5.32 0.248511
5.33 0.398828
5.34 0.545279
5.35 0.684496
5.36 0.811257
5.37 0.922536
5.38 1.01482
5.39 1.08389
5.4 1.13016
5.41 1.14811
5.42 1.14111
5.43 1.10727
5.44 1.04837
5.45 0.967493
5.46 0.865143
5.47 0.747349
5.48 0.616041
5.49 0.476521
5.5 0.332551
5.51 0.188419
5.52 0.0475489
5.53 -0.0856995
5.54 -0.209576
5.55 -0.321138
5.56 -0.418945
5.57 -0.502924
5.58 -0.571164
5.59 -0.62612
5.6 -0.666954
5.61 -0.696085
5.62 -0.71475
5.63 -0.724236
5.64 -0.726978
5.65 -0.723559
5.66 -0.716126
5.67 -0.705335
5.68 -0.692022
5.69 -0.676683
5.7 -0.659188
5.71 -0.639673
5.72 -0.617504
5.73 -0.592407
5.74 -0.563883
5.75 -0.531286
5.76 -0.494796
5.77 -0.453693
5.78 -0.408819
5.79 -0.360348
5.8 -0.30921
5.81 -0.256528
5.82 -0.203626
5.83 -0.151956
5.84 -0.103349
5.85 -0.0592365
5.86 -0.0211093
5.87 0.0092191
5.88 0.0315728
5.89 0.0437162
5.9 0.0466143
5.91 0.0394233
5.92 0.0226395
5.93 -0.00263847
5.94 -0.0363528
5.95 -0.0762385
5.96 -0.121684
5.97 -0.170756
5.98 -0.222164
5.99 -0.274528
6 -0.326676
6.01 -0.377468
6.02 -0.426372
6.03 -0.472786
6.04 -0.516537
6.05 -0.557799
6.06 -0.596533
6.07 -0.633429
6.08 -0.668716
6.09 -0.702996
6.1 -0.736632
6.11 -0.769918
6.12 -0.803022
6.13 -0.835872
6.14 -0.868277
6.15 -0.89981
6.16 -0.929899
6.17 -0.958042
6.18 -0.983228
6.19 -1.00524
6.2 -1.02308
6.21 -1.03667
6.22 -1.04579
6.23 -1.05025
6.24 -1.05086
6.25 -1.04759
6.26 -1.04176
6.27 -1.03405
6.28 -1.02558
6.29 -1.01726
6.3 -1.01005
6.31 -1.00433
6.32 -1.00047
6.33 -0.998022
6.34 -0.996194
6.35 -0.993389
6.36 -0.987832
6.37 -0.976032
6.38 -0.955621
6.39 -0.92233
6.4 -0.872103
6.41 -0.802214
6.42 -0.705769
6.43 -0.582956
6.44 -0.427218
6.45 -0.238803
6.46 -0.0161869
6.47 0.242471
6.48 0.53221
6.49 0.855233
6.5 1.20301
6.51 1.57239
6.52 1.95595
6.53 2.34601
6.54 2.73373
6.55 3.11091
6.56 3.46656
6.57 3.79284
6.58 4.08131
6.59 4.32121
6.6 4.51159
6.61 4.63815
6.62 4.70576
6.63 4.70761
6.64 4.64439
6.65 4.52116
6.66 4.33439
6.67 4.0975
6.68 3.81084
6.69 3.48631
6.7 3.13162
6.71 2.75548
6.72 2.36874
6.73 1.98018
6.74 1.5989
6.75 1.23337
6.76 0.891069
6.77 0.576055
6.78 0.296928
6.79 0.0517832
6.8 -0.15326
6.81 -0.320986
6.82 -0.451947
6.83 -0.546562
6.84 -0.611494
6.85 -0.646092
6.86 -0.658678
6.87 -0.651801
6.88 -0.630567
6.89 -0.599657
6.9 -0.562343
6.91 -0.522738
6.92 -0.483487
6.93 -0.44685
6.94 -0.414311
6.95 -0.387156
6.96 -0.365185
6.97 -0.349219
6.98 -0.338081
6.99 -0.331583
7 -0.328913
7.01 -0.329223
7.02 -0.332193
7.03 -0.33704
7.04 -0.34375
7.05 -0.352154
7.06 -0.362437
7.07 -0.375094
7.08 -0.3903
7.09 -0.409076
7.1 -0.431457
7.11 -0.458144
7.12 -0.489372
7.13 -0.524934
7.14 -0.565148
7.15 -0.608935
7.16 -0.655984
7.17 -0.705028
7.18 -0.754989
7.19 -0.804465
7.2 -0.852284
7.21 -0.89669
7.22 -0.936939
7.23 -0.971728
7.24 -1.00032
7.25 -1.02267
7.26 -1.03789
7.27 -1.04718
7.28 -1.05036
7.29 -1.04876
7.3 -1.04332
7.31 -1.0351
7.32 -1.02547
7.33 -1.01541
7.34 -1.00588
7.35 -0.997503
7.36 -0.990567
7.37 -0.984867
7.38 -0.979916
7.39 -0.974667
7.4 -0.967643
7.41 -0.957188
7.42 -0.941452
7.43 -0.91783
7.44 -0.885301
7.45 -0.84023
7.46 -0.782633
7.47 -0.710301
7.48 -0.622595
7.49 -0.520254
7.5 -0.401985
7.51 -0.271077
7.52 -0.127829
7.53 0.0242644
7.54 0.182467
7.55 0.34328
7.56 0.50304
7.57 0.657203
7.58 0.802644
7.59 0.935085
7.6 1.05101
7.61 1.14873
7.62 1.22323
7.63 1.27607
7.64 1.30349
7.65 1.30713
7.66 1.28729
7.67 1.244
7.68 1.18145
7.69 1.09916
7.7 1.00252
7.71 0.893427
7.72 0.77555
7.73 0.652412
7.74 0.527078
7.75 0.402798
7.76 0.282654
7.77 0.168976
7.78 0.0638163
7.79 -0.0303961
7.8 -0.11365
7.81 -0.183134
7.82 -0.240168
7.83 -0.283655
7.84 -0.313962
7.85 -0.332321
7.86 -0.338078
7.87 -0.333903
7.88 -0.319759
7.89 -0.297777
7.9 -0.269271
7.91 -0.235616
7.92 -0.19885
7.93 -0.160346
7.94 -0.122016
7.95 -0.0854886
7.96 -0.0524899
7.97 -0.0241851
7.98 -0.00276304
7.99 0.0115675
8 0.0168786
8.01 0.0130638
8.02 -0.000351657
8.03 -0.0240586
8.04 -0.0567531
8.05 -0.0993007
8.06 -0.149547
8.07 -0.206977
8.08 -0.27002
8.09 -0.336924
8.1 -0.406264
8.11 -0.476071
8.12 -0.544675
8.13 -0.610553
8.14 -0.672436
8.15 -0.728893
8.16 -0.779821
8.17 -0.823841
8.18 -0.861778
8.19 -0.893398
8.2 -0.91931
8.21 -0.9405
8.22 -0.957309
8.23 -0.97115
8.24 -0.982436
8.25 -0.991949
8.26 -0.999935
8.27 -1.00619
8.28 -1.01043
8.29 -1.01117
8.3 -1.00737
8.31 -0.996806
8.32 -0.977018
8.33 -0.946222
8.34 -0.899855
8.35 -0.837458
8.36 -0.75437
8.37 -0.649803
8.38 -0.522096
8.39 -0.368835
8.4 -0.192696
8.41 0.00913747
8.42 0.231492
8.43 0.473196
8.44 0.729972
8.45 0.996692
8.46 1.26843
8.47 1.53876
8.48 1.80086
8.49 2.04849
8.5 2.27555
8.51 2.47404
8.52 2.64211
8.53 2.76961
8.54 2.8582
8.55 2.90256
8.56 2.90176
8.57 2.85863
8.58 2.76925
8.59 2.6425
8.6 2.47758
8.61 2.28219
8.62 2.06133
8.63 1.82027
8.64 1.56702
8.65 1.30681
8.66 1.04678
8.67 0.792612
8.68 0.549936
8.69 0.322106
8.7 0.1152
8.71 -0.0711433
8.72 -0.232624
8.73 -0.370289
8.74 -0.484249
8.75 -0.574266
8.76 -0.644559
8.77 -0.694524
8.78 -0.729519
8.79 -0.751279
8.8 -0.763195
8.81 -0.768548
8.82 -0.769642
8.83 -0.769406
8.84 -0.769805
8.85 -0.772496
8.86 -0.778567
8.87 -0.788999
8.88 -0.803545
8.89 -0.822716
8.9 -0.845437
8.91 -0.871267
8.92 -0.899206
8.93 -0.928227
8.94 -0.957318
8.95 -0.98556
8.96 -1.01198
8.97 -1.03601
8.98 -1.05717
8.99 -1.07497
9 -1.0897
9.01 -1.10097
9.02 -1.10948
9.03 -1.11538
9.04 -1.11916
9.05 -1.12137
9.06 -1.12229
9.07 -1.12246
9.08 -1.12202
9.09 -1.12113
9.1 -1.11975
9.11 -1.11758
9.12 -1.11436
9.13 -1.10931
9.14 -1.10199
9.15 -1.09152
9.16 -1.07704
9.17 -1.0581
9.18 -1.03329
9.19 -1.00285
9.2 -0.965643
9.21 -0.921919
9.22 -0.871701
9.23 -0.814951
9.24 -0.752941
9.25 -0.685819
9.26 -0.615401
9.27 -0.542788
9.28 -0.469698
9.29 -0.397685
9.3 -0.328896
9.31 -0.264535
9.32 -0.206839
9.33 -0.156878
9.34 -0.115812
9.35 -0.085223
9.36 -0.0644787
9.37 -0.0553889
9.38 -0.0562668
9.39 -0.0672797
9.4 -0.0873572
9.41 -0.114804
9.42 -0.148889
9.43 -0.187086
9.44 -0.228075
9.45 -0.269786
9.46 -0.310626
9.47 -0.3488
9.48 -0.383401
9.49 -0.412709
9.5 -0.436714
9.51 -0.454722
9.52 -0.466805
9.53 -0.473683
9.54 -0.475444
9.55 -0.473698
9.56 -0.469165
9.57 -0.463327
9.58 -0.45735
9.59 -0.452566
9.6 -0.449817
9.61 -0.450409
9.62 -0.454555
9.63 -0.462868
9.64 -0.475428
9.65 -0.491816
9.66 -0.512086
9.67 -0.535134
9.68 -0.560563
9.69 -0.587384
9.7 -0.614867
9.71 -0.642243
9.72 -0.668969
9.73 -0.694431
9.74 -0.718506
9.75 -0.740989
9.76 -0.761917
9.77 -0.781508
9.78 -0.799766
9.79 -0.816986
9.8 -0.833019
9.81 -0.847687
9.82 -0.860475
9.83 -0.870217
9.84 -0.876013
9.85 -0.875196
9.86 -0.866318
9.87 -0.846211
9.88 -0.811651
9.89 -0.760668
9.9 -0.687264
9.91 -0.591505
9.92 -0.467631
9.93 -0.315002
9.94 -0.13197
9.95 0.084406
9.96 0.330326
9.97 0.609175
9.98 0.914381
9.99 1.24434
10 1.59382
10.01 1.95633
10.02 2.32599
10.03 2.69472
10.04 3.05434
10.05 3.397
10.06 3.71531
10.07 3.99928
10.08 4.2465
10.09 4.44454
10.1 4.59488
10.11 4.69098
10.12 4.73102
10.13 4.71841
10.14 4.64742
10.15 4.52883
10.16 4.36101
10.17 4.15282
10.18 3.91008
10.19 3.63837
10.2 3.34763
10.21 3.04316
10.22 2.73406
10.23 2.42663
10.24 2.12767
10.25 1.84151
10.26 1.57495
10.27 1.32847
10.28 1.10681
10.29 0.909515
10.3 0.73666
10.31 0.588901
10.32 0.461956
10.33 0.356642
10.34 0.267529
10.35 0.192878
10.36 0.129316
10.37 0.0734026
10.38 0.0229783
10.39 -0.0250982
10.4 -0.0726718
10.41 -0.121489
10.42 -0.172631
10.43 -0.227035
10.44 -0.284578
10.45 -0.345629
10.46 -0.409303
10.47 -0.475112
10.48 -0.54211
10.49 -0.609344
10.5 -0.675695
10.51 -0.740338
10.52 -0.802112
10.53 -0.86033
10.54 -0.914324
10.55 -0.963138
10.56 -1.00691
10.57 -1.04442
10.58 -1.07616
10.59 -1.10156
10.6 -1.12047
10.61 -1.13328
10.62 -1.13912
10.63 -1.13901
10.64 -1.1323
10.65 -1.1196
10.66 -1.10115
10.67 -1.07692
10.68 -1.04796
10.69 -1.01413
10.7 -0.976672
10.71 -0.936096
10.72 -0.893356
10.73 -0.849462
10.74 -0.805438
10.75 -0.76233
10.76 -0.721354
10.77 -0.683474
10.78 -0.649594
10.79 -0.620964
10.8 -0.597667
10.81 -0.581188
10.82 -0.571068
10.83 -0.567919
10.84 -0.571715
10.85 -0.581796
10.86 -0.59858
10.87 -0.620585
10.88 -0.647731
10.89 -0.678835
10.9 -0.713069
10.91 -0.749609
10.92 -0.787353
10.93 -0.825497
10.94 -0.863147
10.95 -0.899539
10.96 -0.933957
10.97 -0.966039
10.98 -0.994966
10.99 -1.02089
11 -1.04327
11.01 -1.06226
11.02 -1.07792
11.03 -1.09022
11.04 -1.09976
11.05 -1.1065
11.06 -1.11118
11.07 -1.1141
11.08 -1.11581
11.09 -1.11684
11.1 -1.11766
11.11 -1.1187
11.12 -1.1204
11.13 -1.12298
11.14 -1.12657
11.15 -1.13117
11.16 -1.13646
11.17 -1.14202
11.18 -1.14708
11.19 -1.15067
11.2 -1.15143
11.21 -1.14824
11.22 -1.13861
11.23 -1.12167
11.24 -1.09451
11.25 -1.0557
11.26 -1.00349
11.27 -0.934963
11.28 -0.850578
11.29 -0.746522
11.3 -0.624483
11.31 -0.483079
11.32 -0.32274
11.33 -0.145703
11.34 0.0484203
11.35 0.254941
11.36 0.472289
11.37 0.696018
11.38 0.922342
11.39 1.14649
11.4 1.36449
11.41 1.57016
11.42 1.76039
11.43 1.92999
11.44 2.07469
11.45 2.1932
11.46 2.27879
11.47 2.33434
11.48 2.35517
11.49 2.34338
11.5 2.29986
11.51 2.22428
11.52 2.12252
11.53 1.9939
11.54 1.84543
11.55 1.67973
11.56 1.50148
11.57 1.31551
11.58 1.12568
11.59 0.936454
11.6 0.751675
11.61 0.574462
11.62 0.407249
11.63 0.253025
11.64 0.111591
11.65 -0.0142029
11.66 -0.126117
11.67 -0.223641
11.68 -0.307703
11.69 -0.380365
11.7 -0.441749
11.71 -0.495062
11.72 -0.541093
11.73 -0.582065
11.74 -0.619435
11.75 -0.654437
11.76 -0.688293
11.77 -0.721614
11.78 -0.754828
11.79 -0.787927
11.8 -0.820539
11.81 -0.852107
11.82 -0.881407
11.83 -0.90764
11.84 -0.929076
11.85 -0.94451
11.86 -0.952621
11.87 -0.951311
11.88 -0.940456
11.89 -0.917306
11.9 -0.882441
11.91 -0.834508
11.92 -0.77315
11.93 -0.699354
11.94 -0.611822
11.95 -0.513267
11.96 -0.403559
11.97 -0.285001
11.98 -0.159374
11.99 -0.0286
12 0.104547
12.01 0.2376
12.02 0.36788
12.03 0.492624
12.04 0.608952
12.05 0.715228
12.06 0.807426
12.07 0.885674
12.08 0.946694
12.09 0.990355
12.1 1.01616
12.11 1.02269
12.12 1.01247
12.13 0.98386
12.14 0.940416
12.15 0.882875
12.16 0.813462
12.17 0.735115
12.18 0.649395
12.19 0.559775
12.2 0.468295
12.21 0.377495
12.22 0.289274
12.23 0.205748
12.24 0.127596
12.25 0.0566487
12.26 -0.00751155
12.27 -0.0644526
12.28 -0.114583
12.29 -0.15906
12.3 -0.198243
12.31 -0.23405
12.32 -0.267404
12.33 -0.299816
12.34 -0.332392
12.35 -0.366252
12.36 -0.401901
12.37 -0.44003
12.38 -0.480337
12.39 -0.52258
