# xPDFsuite Configuration #
[PDF]
wavelength = 0.1432
dataformat = twotheta
inputfile = 1_1Pd_CeO2_cycle-00208.chi
backgroundfile = background-00000.chi
mode = xray
bgscale = 1.007
composition = CeO2
outputtype = gr
qmaxinst = 28.8974762299
qmin = 0.5
qmax = 27.9
rmax = 50.0
rmin = 0.0
rstep = 0.01
rpoly = 1.8657

[Misc]
inputdir = G:/SankarDec16/1Pd/Chi
savedir = D:/DATA/APS_CeO2/1Pd
backgroundfilefull = G:/SankarDec16/Background/background-00000.chi

#### start data
#S 1
#L r($\AA$)  G($\AA^{-2}$)
0 0
0.01 -0.00709817
0.02 -0.0136605
0.03 -0.0191355
0.04 -0.0231078
0.05 -0.0253466
0.06 -0.0254809
0.07 -0.0237588
0.08 -0.0200621
0.09 -0.0148639
0.1 -0.00849215
0.11 -0.00144816
0.12 0.00572252
0.13 0.0124067
0.14 0.018172
0.15 0.0224879
0.16 0.0250453
0.17 0.0257217
0.18 0.0242664
0.19 0.0210455
0.2 0.0160766
0.21 0.00991187
0.22 0.00296035
0.23 -0.00421472
0.24 -0.0111006
0.25 -0.0170366
0.26 -0.0217149
0.27 -0.0246521
0.28 -0.0256602
0.29 -0.0247318
0.3 -0.0217487
0.31 -0.0171774
0.32 -0.0111703
0.33 -0.00433274
0.34 0.00286562
0.35 0.00982653
0.36 0.0160954
0.37 0.0209964
0.38 0.0243613
0.39 0.0257779
0.4 0.0251889
0.41 0.0227024
0.42 0.0183392
0.43 0.0126439
0.44 0.00589668
0.45 -0.00127359
0.46 -0.00835933
0.47 -0.0147562
0.48 -0.0200905
0.49 -0.0237043
0.5 -0.0255777
0.51 -0.0253905
0.52 -0.0232193
0.53 -0.0192832
0.54 -0.0137417
0.55 -0.00719093
0.56 -2.58096e-05
0.57 0.00713162
0.58 0.013761
0.59 0.0192811
0.6 0.023418
0.61 0.0255645
0.62 0.0258503
0.63 0.0240636
0.64 0.0204119
0.65 0.0152151
0.66 0.00876459
0.67 0.0016789
0.68 -0.00555128
0.69 -0.012341
0.7 -0.0181828
0.71 -0.0225472
0.72 -0.025274
0.73 -0.0258365
0.74 -0.0245082
0.75 -0.0211962
0.76 -0.0162287
0.77 -0.0100101
0.78 -0.00294871
0.79 0.0043458
0.8 0.0113136
0.81 0.0174366
0.82 0.0222483
0.83 0.0252994
0.84 0.0265528
0.85 0.0255929
0.86 0.0228231
0.87 0.0182761
0.88 0.0123844
0.89 0.00561455
0.9 -0.00152998
0.91 -0.00848539
0.92 -0.0146571
0.93 -0.0196298
0.94 -0.0230125
0.95 -0.0244748
0.96 -0.0241159
0.97 -0.0216811
0.98 -0.0176906
0.99 -0.0123294
1 -0.00613032
1.01 0.000389746
1.02 0.00662451
1.03 0.0120951
1.04 0.0161717
1.05 0.0185788
1.06 0.0190215
1.07 0.0173149
1.08 0.0137265
1.09 0.00819146
1.1 0.0013813
1.11 -0.00632854
1.12 -0.0142633
1.13 -0.0218183
1.14 -0.0282107
1.15 -0.0330208
1.16 -0.0354831
1.17 -0.0354229
1.18 -0.0325629
1.19 -0.0267667
1.2 -0.0184633
1.21 -0.00760452
1.22 0.00492958
1.23 0.0186804
1.24 0.0328271
1.25 0.0466432
1.26 0.0592093
1.27 0.0700022
1.28 0.078102
1.29 0.0832392
1.3 0.0850084
1.31 0.0831102
1.32 0.0779294
1.33 0.0691265
1.34 0.0576047
1.35 0.0435853
1.36 0.0277917
1.37 0.0109032
1.38 -0.00640796
1.39 -0.0234509
1.4 -0.0395192
1.41 -0.0541329
1.42 -0.0668244
1.43 -0.077147
1.44 -0.0851367
1.45 -0.0902589
1.46 -0.0929341
1.47 -0.0929958
1.48 -0.090678
1.49 -0.0862511
1.5 -0.0797432
1.51 -0.0716421
1.52 -0.0619777
1.53 -0.05113
1.54 -0.0392755
1.55 -0.0266196
1.56 -0.0134394
1.57 8.8222e-05
1.58 0.0136596
1.59 0.0269979
1.6 0.0397638
1.61 0.0516524
1.62 0.0621251
1.63 0.0709779
1.64 0.077548
1.65 0.0816379
1.66 0.0828553
1.67 0.0807998
1.68 0.0756553
1.69 0.0668517
1.7 0.0550551
1.71 0.0402494
1.72 0.0230011
1.73 0.00395181
1.74 -0.0162676
1.75 -0.0367374
1.76 -0.0565687
1.77 -0.074921
1.78 -0.0909849
1.79 -0.103891
1.8 -0.113467
1.81 -0.118734
1.82 -0.120225
1.83 -0.117706
1.84 -0.111713
1.85 -0.102951
1.86 -0.0920575
1.87 -0.0802194
1.88 -0.0684295
1.89 -0.0577933
1.9 -0.0492994
1.91 -0.0440068
1.92 -0.042206
1.93 -0.0449936
1.94 -0.0518144
1.95 -0.0628743
1.96 -0.077508
1.97 -0.0948386
1.98 -0.113958
1.99 -0.133463
2 -0.151959
2.01 -0.168097
2.02 -0.18055
2.03 -0.187854
2.04 -0.189653
2.05 -0.184196
2.06 -0.172197
2.07 -0.153005
2.08 -0.127176
2.09 -0.0955744
2.1 -0.0586211
2.11 -0.0180656
2.12 0.025261
2.13 0.0697824
2.14 0.114368
2.15 0.157807
2.16 0.19942
2.17 0.238175
2.18 0.27417
2.19 0.307114
2.2 0.337362
2.21 0.365472
2.22 0.391962
2.23 0.417747
2.24 0.443526
2.25 0.469978
2.26 0.497564
2.27 0.526562
2.28 0.55674
2.29 0.587778
2.3 0.618743
2.31 0.6485
2.32 0.675554
2.33 0.698546
2.34 0.715086
2.35 0.724427
2.36 0.723957
2.37 0.71324
2.38 0.691184
2.39 0.656884
2.4 0.611675
2.41 0.554448
2.42 0.48819
2.43 0.413745
2.44 0.333676
2.45 0.250503
2.46 0.166951
2.47 0.0856407
2.48 0.00964893
2.49 -0.0590659
2.5 -0.118493
2.51 -0.16668
2.52 -0.204019
2.53 -0.228424
2.54 -0.242249
2.55 -0.245529
2.56 -0.240256
2.57 -0.228625
2.58 -0.212536
2.59 -0.194831
2.6 -0.177795
2.61 -0.163611
2.62 -0.154078
2.63 -0.15092
2.64 -0.15426
2.65 -0.165541
2.66 -0.183309
2.67 -0.207366
2.68 -0.236172
2.69 -0.268042
2.7 -0.30123
2.71 -0.333784
2.72 -0.363706
2.73 -0.3896
2.74 -0.410217
2.75 -0.424475
2.76 -0.432763
2.77 -0.43432
2.78 -0.430855
2.79 -0.423034
2.8 -0.412579
2.81 -0.401163
2.82 -0.390705
2.83 -0.382686
2.84 -0.379011
2.85 -0.380481
2.86 -0.38788
2.87 -0.401671
2.88 -0.420914
2.89 -0.445582
2.9 -0.473599
2.91 -0.503655
2.92 -0.533666
2.93 -0.561833
2.94 -0.585776
2.95 -0.604461
2.96 -0.615776
2.97 -0.619491
2.98 -0.615156
2.99 -0.602772
3 -0.583944
3.01 -0.559182
3.02 -0.531177
3.03 -0.501735
3.04 -0.473363
3.05 -0.448088
3.06 -0.428627
3.07 -0.415841
3.08 -0.41193
3.09 -0.416772
3.1 -0.430543
3.11 -0.45286
3.12 -0.48169
3.13 -0.516067
3.14 -0.552995
3.15 -0.590324
3.16 -0.625385
3.17 -0.656171
3.18 -0.679961
3.19 -0.6963
3.2 -0.703321
3.21 -0.701739
3.22 -0.691982
3.23 -0.675231
3.24 -0.653987
3.25 -0.630322
3.26 -0.607348
3.27 -0.587948
3.28 -0.574983
3.29 -0.570331
3.3 -0.576993
3.31 -0.594498
3.32 -0.624538
3.33 -0.665306
3.34 -0.715534
3.35 -0.772945
3.36 -0.83405
3.37 -0.895437
3.38 -0.95335
3.39 -1.00386
3.4 -1.04357
3.41 -1.07048
3.42 -1.08102
3.43 -1.07656
3.44 -1.05541
3.45 -1.02056
3.46 -0.97414
3.47 -0.919609
3.48 -0.861612
3.49 -0.804892
3.5 -0.75394
3.51 -0.713573
3.52 -0.687471
3.53 -0.677321
3.54 -0.686241
3.55 -0.711244
3.56 -0.752042
3.57 -0.802965
3.58 -0.858664
3.59 -0.911076
3.6 -0.952796
3.61 -0.971235
3.62 -0.96013
3.63 -0.90756
3.64 -0.805324
3.65 -0.649262
3.66 -0.427442
3.67 -0.145985
3.68 0.203018
3.69 0.610621
3.7 1.07231
3.71 1.58045
3.72 2.11985
3.73 2.68003
3.74 3.24262
3.75 3.79163
3.76 4.30917
3.77 4.7817
3.78 5.18661
3.79 5.52009
3.8 5.76097
3.81 5.9088
3.82 5.95729
3.83 5.90077
3.84 5.75219
3.85 5.50246
3.86 5.17485
3.87 4.77357
3.88 4.31497
3.89 3.81549
3.9 3.28855
3.91 2.75281
3.92 2.22321
3.93 1.71381
3.94 1.23658
3.95 0.804115
3.96 0.418621
3.97 0.093682
3.98 -0.177155
3.99 -0.389315
4 -0.546952
4.01 -0.656824
4.02 -0.720462
4.03 -0.750803
4.04 -0.751656
4.05 -0.733781
4.06 -0.704013
4.07 -0.669568
4.08 -0.636288
4.09 -0.609752
4.1 -0.592306
4.11 -0.586652
4.12 -0.593175
4.13 -0.610737
4.14 -0.638738
4.15 -0.673491
4.16 -0.712765
4.17 -0.752811
4.18 -0.790582
4.19 -0.822593
4.2 -0.847068
4.21 -0.860343
4.22 -0.862567
4.23 -0.851978
4.24 -0.828697
4.25 -0.793734
4.26 -0.746804
4.27 -0.690728
4.28 -0.625927
4.29 -0.554869
4.3 -0.479009
4.31 -0.399873
4.32 -0.319051
4.33 -0.23758
4.34 -0.156457
4.35 -0.0763792
4.36 0.00214784
4.37 0.0788796
4.38 0.153289
4.39 0.225423
4.4 0.294625
4.41 0.360666
4.42 0.42292
4.43 0.480357
4.44 0.532644
4.45 0.577706
4.46 0.615433
4.47 0.644046
4.48 0.662569
4.49 0.670643
4.5 0.666243
4.51 0.650634
4.52 0.622268
4.53 0.582545
4.54 0.531941
4.55 0.471184
4.56 0.402626
4.57 0.326904
4.58 0.246932
4.59 0.164303
4.6 0.0812566
4.61 -0.000429331
4.62 -0.0785971
4.63 -0.152307
4.64 -0.219743
4.65 -0.280588
4.66 -0.334324
4.67 -0.380548
4.68 -0.420287
4.69 -0.453082
4.7 -0.480685
4.71 -0.503543
4.72 -0.522827
4.73 -0.539615
4.74 -0.554661
4.75 -0.56894
4.76 -0.582996
4.77 -0.59728
4.78 -0.612001
4.79 -0.627209
4.8 -0.642729
4.81 -0.658313
4.82 -0.673606
4.83 -0.688206
4.84 -0.701731
4.85 -0.713946
4.86 -0.72444
4.87 -0.733332
4.88 -0.740417
4.89 -0.745969
4.9 -0.750175
4.91 -0.753307
4.92 -0.755793
4.93 -0.757938
4.94 -0.76013
4.95 -0.762656
4.96 -0.765746
4.97 -0.769492
4.98 -0.774015
4.99 -0.779172
5 -0.784925
5.01 -0.791062
5.02 -0.797427
5.03 -0.803852
5.04 -0.810222
5.05 -0.816463
5.06 -0.82261
5.07 -0.828744
5.08 -0.835025
5.09 -0.841615
5.1 -0.848753
5.11 -0.856485
5.12 -0.864909
5.13 -0.873822
5.14 -0.882897
5.15 -0.89147
5.16 -0.8988
5.17 -0.903353
5.18 -0.904085
5.19 -0.899033
5.2 -0.886329
5.21 -0.864631
5.22 -0.830725
5.23 -0.784607
5.24 -0.72315
5.25 -0.646517
5.26 -0.553982
5.27 -0.444887
5.28 -0.32168
5.29 -0.183717
5.3 -0.0352985
5.31 0.1216
5.32 0.282977
5.33 0.444921
5.34 0.60247
5.35 0.751885
5.36 0.887336
5.37 1.00547
5.38 1.10239
5.39 1.17343
5.4 1.21911
5.41 1.23337
5.42 1.22003
5.43 1.17714
5.44 1.10681
5.45 1.01262
5.46 0.895378
5.47 0.761852
5.48 0.614498
5.49 0.459284
5.5 0.300541
5.51 0.143221
5.52 -0.00898621
5.53 -0.150984
5.54 -0.281128
5.55 -0.396144
5.56 -0.494658
5.57 -0.576874
5.58 -0.640893
5.59 -0.689857
5.6 -0.72317
5.61 -0.7439
5.62 -0.753757
5.63 -0.754574
5.64 -0.749182
5.65 -0.738689
5.66 -0.725376
5.67 -0.710166
5.68 -0.693921
5.69 -0.676998
5.7 -0.659223
5.71 -0.640297
5.72 -0.619339
5.73 -0.595626
5.74 -0.568287
5.75 -0.536256
5.76 -0.499488
5.77 -0.456848
5.78 -0.409217
5.79 -0.356642
5.8 -0.300178
5.81 -0.241203
5.82 -0.181281
5.83 -0.122337
5.84 -0.0666425
5.85 -0.0161085
5.86 0.0273274
5.87 0.0613269
5.88 0.0855766
5.89 0.097273
5.9 0.0975902
5.91 0.0855277
5.92 0.0617956
5.93 0.0278702
5.94 -0.0159262
5.95 -0.0666563
5.96 -0.123216
5.97 -0.183034
5.98 -0.244275
5.99 -0.304927
6 -0.363583
6.01 -0.418446
6.02 -0.469136
6.03 -0.514833
6.04 -0.555533
6.05 -0.591779
6.06 -0.623739
6.07 -0.652808
6.08 -0.67966
6.09 -0.705551
6.1 -0.731379
6.11 -0.75804
6.12 -0.785956
6.13 -0.815636
6.14 -0.846771
6.15 -0.8791
6.16 -0.911864
6.17 -0.944207
6.18 -0.974852
6.19 -1.00296
6.2 -1.02707
6.21 -1.04654
6.22 -1.06068
6.23 -1.06883
6.24 -1.07164
6.25 -1.06871
6.26 -1.06161
6.27 -1.05106
6.28 -1.03855
6.29 -1.02548
6.3 -1.01335
6.31 -1.00313
6.32 -0.995893
6.33 -0.991691
6.34 -0.990191
6.35 -0.990262
6.36 -0.989986
6.37 -0.986191
6.38 -0.975845
6.39 -0.954346
6.4 -0.916844
6.41 -0.859767
6.42 -0.775098
6.43 -0.66217
6.44 -0.513101
6.45 -0.327399
6.46 -0.102749
6.47 0.16358
6.48 0.4663
6.49 0.808485
6.5 1.18043
6.51 1.57871
6.52 1.99478
6.53 2.41962
6.54 2.84297
6.55 3.25498
6.56 3.6428
6.57 3.9971
6.58 4.30799
6.59 4.56294
6.6 4.76093
6.61 4.88569
6.62 4.94316
6.63 4.92603
6.64 4.83581
6.65 4.67891
6.66 4.45252
6.67 4.17242
6.68 3.84038
6.69 3.47048
6.7 3.07219
6.71 2.65628
6.72 2.23461
6.73 1.81819
6.74 1.41607
6.75 1.03777
6.76 0.69076
6.77 0.378356
6.78 0.109268
6.79 -0.120391
6.8 -0.305137
6.81 -0.449636
6.82 -0.555835
6.83 -0.625749
6.84 -0.667289
6.85 -0.681362
6.86 -0.676822
6.87 -0.657084
6.88 -0.627494
6.89 -0.592426
6.9 -0.555239
6.91 -0.518841
6.92 -0.485362
6.93 -0.45581
6.94 -0.430674
6.95 -0.410088
6.96 -0.393088
6.97 -0.37937
6.98 -0.367595
6.99 -0.357105
7 -0.347174
7.01 -0.337438
7.02 -0.327908
7.03 -0.31891
7.04 -0.311274
7.05 -0.305975
7.06 -0.304204
7.07 -0.307652
7.08 -0.316946
7.09 -0.334348
7.1 -0.35963
7.11 -0.393879
7.12 -0.436978
7.13 -0.487965
7.14 -0.546647
7.15 -0.610527
7.16 -0.678252
7.17 -0.747181
7.18 -0.815054
7.19 -0.879072
7.2 -0.937549
7.21 -0.987271
7.22 -1.0278
7.23 -1.05736
7.24 -1.07556
7.25 -1.08319
7.26 -1.07983
7.27 -1.06828
7.28 -1.04944
7.29 -1.02616
7.3 -1.00068
7.31 -0.975581
7.32 -0.952886
7.33 -0.935164
7.34 -0.923177
7.35 -0.918159
7.36 -0.920129
7.37 -0.928098
7.38 -0.941223
7.39 -0.956806
7.4 -0.972371
7.41 -0.98466
7.42 -0.990483
7.43 -0.985646
7.44 -0.968331
7.45 -0.933211
7.46 -0.88032
7.47 -0.806686
7.48 -0.71173
7.49 -0.596833
7.5 -0.460776
7.51 -0.308447
7.52 -0.140868
7.53 0.0369107
7.54 0.22091
7.55 0.406166
7.56 0.588065
7.57 0.760518
7.58 0.920107
7.59 1.06171
7.6 1.18161
7.61 1.27845
7.62 1.34698
7.63 1.38997
7.64 1.40396
7.65 1.39177
7.66 1.35456
7.67 1.29331
7.68 1.21309
7.69 1.11429
7.7 1.00276
7.71 0.88089
7.72 0.752561
7.73 0.621166
7.74 0.489862
7.75 0.361291
7.76 0.23833
7.77 0.12272
7.78 0.0160959
7.79 -0.0795402
7.8 -0.164467
7.81 -0.236127
7.82 -0.295816
7.83 -0.342371
7.84 -0.375889
7.85 -0.397263
7.86 -0.405304
7.87 -0.402316
7.88 -0.387625
7.89 -0.363052
7.9 -0.329601
7.91 -0.288329
7.92 -0.241568
7.93 -0.190527
7.94 -0.137851
7.95 -0.0855842
7.96 -0.0362475
7.97 0.00821248
7.98 0.0445796
7.99 0.0719837
8 0.0874333
8.01 0.0903413
8.02 0.0797604
8.03 0.0544919
8.04 0.0163147
8.05 -0.0359844
8.06 -0.0991707
8.07 -0.172253
8.08 -0.25263
8.09 -0.337501
8.1 -0.424256
8.11 -0.509963
8.12 -0.591733
8.13 -0.667372
8.14 -0.735026
8.15 -0.792659
8.16 -0.840635
8.17 -0.877207
8.18 -0.904363
8.19 -0.922414
8.2 -0.933118
8.21 -0.938618
8.22 -0.940598
8.23 -0.941495
8.24 -0.943088
8.25 -0.94685
8.26 -0.95364
8.27 -0.963872
8.28 -0.976657
8.29 -0.990838
8.3 -1.004
8.31 -1.01318
8.32 -1.01453
8.33 -1.00488
8.34 -0.977966
8.35 -0.932146
8.36 -0.860999
8.37 -0.762884
8.38 -0.635326
8.39 -0.474996
8.4 -0.285278
8.41 -0.062664
8.42 0.186
8.43 0.458894
8.44 0.750175
8.45 1.05304
8.46 1.36074
8.47 1.66516
8.48 1.95745
8.49 2.23001
8.5 2.47552
8.51 2.68451
8.52 2.85549
8.53 2.97691
8.54 3.05189
8.55 3.07522
8.56 3.04715
8.57 2.97211
8.58 2.84734
8.59 2.6838
8.6 2.48225
8.61 2.25207
8.62 1.9996
8.63 1.73168
8.64 1.45658
8.65 1.18099
8.66 0.91142
8.67 0.653827
8.68 0.413296
8.69 0.192173
8.7 -0.00394792
8.71 -0.177022
8.72 -0.323614
8.73 -0.446055
8.74 -0.545405
8.75 -0.62243
8.76 -0.681768
8.77 -0.723613
8.78 -0.753114
8.79 -0.772122
8.8 -0.783669
8.81 -0.790446
8.82 -0.794273
8.83 -0.797224
8.84 -0.800579
8.85 -0.805305
8.86 -0.811953
8.87 -0.820942
8.88 -0.832024
8.89 -0.84533
8.9 -0.860259
8.91 -0.876564
8.92 -0.893812
8.93 -0.911618
8.94 -0.929713
8.95 -0.947847
8.96 -0.965883
8.97 -0.983759
8.98 -1.00147
8.99 -1.01904
9 -1.03653
9.01 -1.05394
9.02 -1.07126
9.03 -1.08841
9.04 -1.1052
9.05 -1.12144
9.06 -1.13665
9.07 -1.15055
9.08 -1.16246
9.09 -1.17191
9.1 -1.17832
9.11 -1.18079
9.12 -1.17918
9.13 -1.17216
9.14 -1.15989
9.15 -1.14152
9.16 -1.11672
9.17 -1.08565
9.18 -1.04737
9.19 -1.00293
9.2 -0.951788
9.21 -0.894812
9.22 -0.832524
9.23 -0.765442
9.24 -0.694936
9.25 -0.621671
9.26 -0.547239
9.27 -0.472867
9.28 -0.400119
9.29 -0.33024
9.3 -0.265324
9.31 -0.206066
9.32 -0.154562
9.33 -0.111518
9.34 -0.0778641
9.35 -0.0549779
9.36 -0.04204
9.37 -0.0407312
9.38 -0.0492718
9.39 -0.0677512
9.4 -0.0950359
9.41 -0.129395
9.42 -0.169977
9.43 -0.214231
9.44 -0.260662
9.45 -0.3071
9.46 -0.3518
9.47 -0.392718
9.48 -0.428914
9.49 -0.458305
9.5 -0.480944
9.51 -0.495956
9.52 -0.503402
9.53 -0.504157
9.54 -0.498267
9.55 -0.487766
9.56 -0.473548
9.57 -0.457544
9.58 -0.44131
9.59 -0.426675
9.6 -0.414846
9.61 -0.407736
9.62 -0.405761
9.63 -0.409943
9.64 -0.420585
9.65 -0.437218
9.66 -0.460176
9.67 -0.487891
9.68 -0.519969
9.69 -0.55494
9.7 -0.591703
9.71 -0.629063
9.72 -0.665981
9.73 -0.701384
9.74 -0.73478
9.75 -0.765602
9.76 -0.793633
9.77 -0.81904
9.78 -0.841613
9.79 -0.861915
9.8 -0.879795
9.81 -0.895384
9.82 -0.908398
9.83 -0.917921
9.84 -0.923322
9.85 -0.922119
9.86 -0.912978
9.87 -0.892757
9.88 -0.858143
9.89 -0.806992
9.9 -0.732966
9.91 -0.635845
9.92 -0.509348
9.93 -0.352468
9.94 -0.163172
9.95 0.0619989
9.96 0.319191
9.97 0.61231
9.98 0.934353
9.99 1.28367
10 1.65457
10.01 2.03988
10.02 2.43304
10.03 2.82502
10.04 3.2066
10.05 3.56896
10.06 3.90379
10.07 4.19987
10.08 4.45456
10.09 4.65404
10.1 4.8002
10.11 4.88598
10.12 4.90976
10.13 4.87574
10.14 4.77826
10.15 4.6297
10.16 4.4291
10.17 4.18678
10.18 3.90975
10.19 3.605
10.2 3.28341
10.21 2.95183
10.22 2.61974
10.23 2.29437
10.24 1.9829
10.25 1.6894
10.26 1.42123
10.27 1.17766
10.28 0.963373
10.29 0.776786
10.3 0.61714
10.31 0.484181
10.32 0.372581
10.33 0.282252
10.34 0.207025
10.35 0.144479
10.36 0.0907592
10.37 0.0423441
10.38 -0.00331424
10.39 -0.0488511
10.4 -0.0960872
10.41 -0.146187
10.42 -0.199761
10.43 -0.257215
10.44 -0.317868
10.45 -0.38155
10.46 -0.44703
10.47 -0.513482
10.48 -0.579786
10.49 -0.645056
10.5 -0.708117
10.51 -0.768548
10.52 -0.825398
10.53 -0.878425
10.54 -0.927337
10.55 -0.971625
10.56 -1.01168
10.57 -1.04671
10.58 -1.07722
10.59 -1.10277
10.6 -1.12314
10.61 -1.13844
10.62 -1.14763
10.63 -1.15125
10.64 -1.14829
10.65 -1.13888
10.66 -1.12288
10.67 -1.09983
10.68 -1.07066
10.69 -1.03483
10.7 -0.993795
10.71 -0.948034
10.72 -0.898752
10.73 -0.847358
10.74 -0.795231
10.75 -0.743966
10.76 -0.6953
10.77 -0.650685
10.78 -0.61144
10.79 -0.579311
10.8 -0.554402
10.81 -0.538627
10.82 -0.531218
10.83 -0.532762
10.84 -0.542912
10.85 -0.560533
10.86 -0.585647
10.87 -0.616151
10.88 -0.651428
10.89 -0.68978
10.9 -0.729961
10.91 -0.770669
10.92 -0.81079
10.93 -0.849133
10.94 -0.885128
10.95 -0.918069
10.96 -0.947581
10.97 -0.97377
10.98 -0.996232
10.99 -1.01569
11 -1.03212
11.01 -1.04614
11.02 -1.05817
11.03 -1.06858
11.04 -1.07793
11.05 -1.08648
11.06 -1.09462
11.07 -1.10255
11.08 -1.11045
11.09 -1.11839
11.1 -1.12642
11.11 -1.1345
11.12 -1.14255
11.13 -1.15046
11.14 -1.15805
11.15 -1.16503
11.16 -1.17117
11.17 -1.17585
11.18 -1.17867
11.19 -1.17879
11.2 -1.17522
11.21 -1.16718
11.22 -1.15256
11.23 -1.13081
11.24 -1.09936
11.25 -1.05694
11.26 -1.00189
11.27 -0.931312
11.28 -0.84546
11.29 -0.740348
11.3 -0.61728
11.31 -0.474507
11.32 -0.312013
11.33 -0.131732
11.34 0.0672664
11.35 0.280303
11.36 0.506136
11.37 0.740167
11.38 0.978434
11.39 1.21589
11.4 1.44793
11.41 1.6678
11.42 1.87161
11.43 2.05337
11.44 2.20791
11.45 2.33343
11.46 2.42201
11.47 2.47657
11.48 2.49163
11.49 2.46944
11.5 2.411
11.51 2.31608
11.52 2.19156
11.53 2.03713
11.54 1.86111
11.55 1.66704
11.56 1.46085
11.57 1.24835
11.58 1.03484
11.59 0.82529
11.6 0.624744
11.61 0.436616
11.62 0.263606
11.63 0.109103
11.64 -0.0279161
11.65 -0.144383
11.66 -0.24335
11.67 -0.324897
11.68 -0.39102
11.69 -0.444853
11.7 -0.48759
11.71 -0.523354
11.72 -0.55395
11.73 -0.582209
11.74 -0.610042
11.75 -0.639222
11.76 -0.670599
11.77 -0.705121
11.78 -0.742387
11.79 -0.782048
11.8 -0.822996
11.81 -0.863868
11.82 -0.902668
11.83 -0.93783
11.84 -0.966839
11.85 -0.987948
11.86 -0.999432
11.87 -0.998707
11.88 -0.985868
11.89 -0.957829
11.9 -0.915752
11.91 -0.858485
11.92 -0.786182
11.93 -0.700433
11.94 -0.600464
11.95 -0.48961
11.96 -0.368305
11.97 -0.239301
11.98 -0.104718
11.99 0.0331161
12 0.171509
12.01 0.30767
12.02 0.439249
12.03 0.563517
12.04 0.677835
12.05 0.780913
12.06 0.868874
12.07 0.942254
12.08 0.99795
12.09 1.03607
12.1 1.05624
12.11 1.05714
12.12 1.04132
12.13 1.00713
12.14 0.958056
12.15 0.894777
12.16 0.819438
12.17 0.734942
12.18 0.642802
12.19 0.546556
12.2 0.448311
12.21 0.350763
12.22 0.255991
12.23 0.166391
12.24 0.0828276
12.25 0.0075328
12.26 -0.0597834
12.27 -0.118406
12.28 -0.16857
12.29 -0.211478
12.3 -0.247276
12.31 -0.278248
12.32 -0.305363
12.33 -0.330537
12.34 -0.35524
12.35 -0.381038
12.36 -0.408888
12.37 -0.440038
12.38 -0.474527
12.39 -0.512541
12.4 -0.553556
12.41 -0.596508
