# xPDFsuite Configuration #
[PDF]
wavelength = 0.1432
dataformat = twotheta
inputfile = 1_1Pd_CeO2_cycle-00304.chi
backgroundfile = background-00000.chi
mode = xray
bgscale = 1.007
composition = CeO2
outputtype = gr
qmaxinst = 28.8974762299
qmin = 0.5
qmax = 27.9
rmax = 50.0
rmin = 0.0
rstep = 0.01
rpoly = 1.8657

[Misc]
inputdir = G:/SankarDec16/1Pd/Chi
savedir = D:/DATA/APS_CeO2/1Pd
backgroundfilefull = G:/SankarDec16/Background/background-00000.chi

#### start data
#S 1
#L r($\AA$)  G($\AA^{-2}$)
0 0
0.01 -0.0053786
0.02 -0.0103525
0.03 -0.0145049
0.04 -0.0175219
0.05 -0.0192287
0.06 -0.0193441
0.07 -0.0180547
0.08 -0.0152697
0.09 -0.0113457
0.1 -0.00652917
0.11 -0.00119758
0.12 0.00423662
0.13 0.00931136
0.14 0.0136982
0.15 0.0169955
0.16 0.0189675
0.17 0.0195194
0.18 0.0184585
0.19 0.0160586
0.2 0.0123292
0.21 0.00768569
0.22 0.00243462
0.23 -0.00300013
0.24 -0.00822989
0.25 -0.0127568
0.26 -0.0163437
0.27 -0.0186234
0.28 -0.0194492
0.29 -0.0188108
0.3 -0.0166134
0.31 -0.0132056
0.32 -0.0086965
0.33 -0.00354158
0.34 0.00190681
0.35 0.00719791
0.36 0.0119851
0.37 0.0157578
0.38 0.0183816
0.39 0.0195409
0.4 0.019185
0.41 0.0173893
0.42 0.0141614
0.43 0.00990864
0.44 0.00483529
0.45 -0.000584296
0.46 -0.00596845
0.47 -0.0108602
0.48 -0.0149715
0.49 -0.0178031
0.5 -0.0193298
0.51 -0.0193026
0.52 -0.0177698
0.53 -0.0148894
0.54 -0.0107715
0.55 -0.00586359
0.56 -0.000455677
0.57 0.00498073
0.58 0.0100526
0.59 0.014318
0.6 0.0175613
0.61 0.0193181
0.62 0.019674
0.63 0.018459
0.64 0.0158186
0.65 0.0119862
0.66 0.00717031
0.67 0.00183748
0.68 -0.00364956
0.69 -0.00884404
0.7 -0.0133602
0.71 -0.0167914
0.72 -0.019005
0.73 -0.0195932
0.74 -0.0187487
0.75 -0.0163881
0.76 -0.0127473
0.77 -0.00812366
0.78 -0.00281341
0.79 0.00272014
0.8 0.00806066
0.81 0.0128078
0.82 0.0166031
0.83 0.0190961
0.84 0.0202443
0.85 0.0197182
0.86 0.0178073
0.87 0.0145198
0.88 0.0101691
0.89 0.00509977
0.9 -0.000321667
0.91 -0.0056631
0.92 -0.0104824
0.93 -0.0144531
0.94 -0.0172722
0.95 -0.0186771
0.96 -0.018725
0.97 -0.0172073
0.98 -0.0144998
0.99 -0.0107246
1 -0.00627002
1.01 -0.00151776
1.02 0.00308928
1.03 0.00718466
1.04 0.010303
1.05 0.0122269
1.06 0.0127313
1.07 0.011672
1.08 0.0092391
1.09 0.0053844
1.1 0.000602538
1.11 -0.00482262
1.12 -0.0103839
1.13 -0.015625
1.14 -0.0199478
1.15 -0.0230368
1.16 -0.0243038
1.17 -0.0236183
1.18 -0.0207695
1.19 -0.0156569
1.2 -0.00861757
1.21 0.000371689
1.22 0.0106196
1.23 0.0217481
1.24 0.033097
1.25 0.0440796
1.26 0.0539337
1.27 0.0622403
1.28 0.068223
1.29 0.0716586
1.3 0.0721972
1.31 0.069572
1.32 0.064103
1.33 0.0554775
1.34 0.0444659
1.35 0.0312468
1.36 0.0164462
1.37 0.000662772
1.38 -0.0154996
1.39 -0.0314068
1.4 -0.0463916
1.41 -0.0599836
1.42 -0.0717105
1.43 -0.0811009
1.44 -0.0881543
1.45 -0.0922853
1.46 -0.0938798
1.47 -0.0927276
1.48 -0.0890441
1.49 -0.0831042
1.5 -0.0749452
1.51 -0.065116
1.52 -0.0537101
1.53 -0.0412004
1.54 -0.0278622
1.55 -0.0140263
1.56 -3.1784e-05
1.57 0.0137778
1.58 0.0271128
1.59 0.039611
1.6 0.0509531
1.61 0.0608966
1.62 0.068943
1.63 0.0750652
1.64 0.0787228
1.65 0.0799184
1.66 0.0784385
1.67 0.074097
1.68 0.0671901
1.69 0.0574022
1.7 0.0453828
1.71 0.0312399
1.72 0.0155068
1.73 -0.00126868
1.74 -0.018514
1.75 -0.0355631
1.76 -0.0516938
1.77 -0.0663413
1.78 -0.0789351
1.79 -0.0888896
1.8 -0.0961785
1.81 -0.100152
1.82 -0.101321
1.83 -0.0996107
1.84 -0.0955139
1.85 -0.0896223
1.86 -0.0825079
1.87 -0.0750448
1.88 -0.0680369
1.89 -0.0622578
1.9 -0.0584186
1.91 -0.0572527
1.92 -0.0588735
1.93 -0.0640139
1.94 -0.0721333
1.95 -0.0832634
1.96 -0.0967813
1.97 -0.111937
1.98 -0.127889
1.99 -0.143572
2 -0.157791
2.01 -0.169544
2.02 -0.177794
2.03 -0.181407
2.04 -0.180205
2.05 -0.17279
2.06 -0.159852
2.07 -0.140892
2.08 -0.116401
2.09 -0.0870971
2.1 -0.0532953
2.11 -0.0164037
2.12 0.0229829
2.13 0.0636351
2.14 0.104718
2.15 0.145354
2.16 0.185012
2.17 0.223016
2.18 0.259389
2.19 0.29397
2.2 0.327006
2.21 0.358871
2.22 0.389932
2.23 0.420735
2.24 0.451698
2.25 0.483136
2.26 0.515192
2.27 0.547789
2.28 0.580558
2.29 0.612795
2.3 0.643673
2.31 0.671922
2.32 0.696167
2.33 0.715253
2.34 0.726938
2.35 0.730873
2.36 0.72472
2.37 0.708429
2.38 0.681231
2.39 0.642579
2.4 0.593963
2.41 0.534661
2.42 0.467576
2.43 0.393705
2.44 0.315514
2.45 0.235347
2.46 0.155825
2.47 0.079193
2.48 0.00830692
2.49 -0.055234
2.5 -0.109706
2.51 -0.153482
2.52 -0.187119
2.53 -0.208873
2.54 -0.221071
2.55 -0.223906
2.56 -0.219333
2.57 -0.209435
2.58 -0.196086
2.59 -0.181839
2.6 -0.168869
2.61 -0.159087
2.62 -0.154097
2.63 -0.155406
2.64 -0.162983
2.65 -0.178063
2.66 -0.199143
2.67 -0.225905
2.68 -0.256779
2.69 -0.2901
2.7 -0.32407
2.71 -0.356853
2.72 -0.386422
2.73 -0.411478
2.74 -0.430798
2.75 -0.443323
2.76 -0.449511
2.77 -0.448561
2.78 -0.442259
2.79 -0.431257
2.8 -0.417315
2.81 -0.402154
2.82 -0.387733
2.83 -0.375642
2.84 -0.367886
2.85 -0.365412
2.86 -0.369157
2.87 -0.379794
2.88 -0.396494
2.89 -0.419541
2.9 -0.446881
2.91 -0.477418
2.92 -0.509122
2.93 -0.540162
2.94 -0.568237
2.95 -0.592039
2.96 -0.60939
2.97 -0.619717
2.98 -0.622293
2.99 -0.616743
3 -0.604351
3.01 -0.585138
3.02 -0.561589
3.03 -0.535123
3.04 -0.508049
3.05 -0.482351
3.06 -0.46052
3.07 -0.443749
3.08 -0.434222
3.09 -0.43226
3.1 -0.438369
3.11 -0.45262
3.12 -0.473452
3.13 -0.500469
3.14 -0.53104
3.15 -0.563513
3.16 -0.595532
3.17 -0.625211
3.18 -0.650157
3.19 -0.669589
3.2 -0.681724
3.21 -0.686802
3.22 -0.684909
3.23 -0.676744
3.24 -0.664259
3.25 -0.64893
3.26 -0.633407
3.27 -0.620027
3.28 -0.61127
3.29 -0.608848
3.3 -0.615377
3.31 -0.630698
3.32 -0.656378
3.33 -0.691091
3.34 -0.733903
3.35 -0.783019
3.36 -0.835526
3.37 -0.888601
3.38 -0.938989
3.39 -0.983313
3.4 -1.01857
3.41 -1.04294
3.42 -1.05327
3.43 -1.05062
3.44 -1.03343
3.45 -1.00423
3.46 -0.964846
3.47 -0.918262
3.48 -0.86857
3.49 -0.819961
3.5 -0.776443
3.51 -0.742319
3.52 -0.720894
3.53 -0.713685
3.54 -0.723454
3.55 -0.747482
3.56 -0.785371
3.57 -0.831868
3.58 -0.881914
3.59 -0.927853
3.6 -0.962768
3.61 -0.974531
3.62 -0.957283
3.63 -0.899506
3.64 -0.793273
3.65 -0.634527
3.66 -0.411544
3.67 -0.130189
3.68 0.217465
3.69 0.622852
3.7 1.08176
3.71 1.58695
3.72 2.1236
3.73 2.68168
3.74 3.24303
3.75 3.79197
3.76 4.31072
3.77 4.78571
3.78 5.19436
3.79 5.5325
3.8 5.77878
3.81 5.9323
3.82 5.98638
3.83 5.93488
3.84 5.79043
3.85 5.54339
3.86 5.21698
3.87 4.81508
3.88 4.35403
3.89 3.8504
3.9 3.31764
3.91 2.77489
3.92 2.23734
3.93 1.7196
3.94 1.23403
3.95 0.793798
3.96 0.401409
3.97 0.0710226
3.98 -0.203747
3.99 -0.418025
4 -0.575955
4.01 -0.684445
4.02 -0.745043
4.03 -0.77117
4.04 -0.766847
4.05 -0.743332
4.06 -0.707839
4.07 -0.668022
4.08 -0.63
4.09 -0.599781
4.1 -0.579746
4.11 -0.57278
4.12 -0.579221
4.13 -0.597767
4.14 -0.62771
4.15 -0.664985
4.16 -0.707111
4.17 -0.749983
4.18 -0.790268
4.19 -0.82418
4.2 -0.849835
4.21 -0.863326
4.22 -0.864929
4.23 -0.85289
4.24 -0.827536
4.25 -0.790128
4.26 -0.740675
4.27 -0.682313
4.28 -0.615825
4.29 -0.543917
4.3 -0.468261
4.31 -0.390574
4.32 -0.312339
4.33 -0.234689
4.34 -0.158248
4.35 -0.0834977
4.36 -0.0105242
4.37 0.0608313
4.38 0.130578
4.39 0.199081
4.4 0.266224
4.41 0.331961
4.42 0.395871
4.43 0.457069
4.44 0.51492
4.45 0.567376
4.46 0.613693
4.47 0.651714
4.48 0.679822
4.49 0.697083
4.5 0.700711
4.51 0.691575
4.52 0.667396
4.53 0.629381
4.54 0.577758
4.55 0.513086
4.56 0.43815
4.57 0.353542
4.58 0.263017
4.59 0.16863
4.6 0.0734172
4.61 -0.0201283
4.62 -0.108949
4.63 -0.191604
4.64 -0.26543
4.65 -0.32986
4.66 -0.384084
4.67 -0.427492
4.68 -0.46159
4.69 -0.485845
4.7 -0.502949
4.71 -0.513838
4.72 -0.520549
4.73 -0.524938
4.74 -0.528707
4.75 -0.533387
4.76 -0.540401
4.77 -0.550473
4.78 -0.564113
4.79 -0.581584
4.8 -0.60222
4.81 -0.625839
4.82 -0.651134
4.83 -0.677207
4.84 -0.702809
4.85 -0.726937
4.86 -0.748255
4.87 -0.766352
4.88 -0.780192
4.89 -0.789819
4.9 -0.795169
4.91 -0.796367
4.92 -0.794346
4.93 -0.789428
4.94 -0.782919
4.95 -0.775632
4.96 -0.76863
4.97 -0.762715
4.98 -0.758886
4.99 -0.757415
5 -0.758996
5.01 -0.763527
5.02 -0.770984
5.03 -0.781202
5.04 -0.793504
5.05 -0.807618
5.06 -0.822678
5.07 -0.838149
5.08 -0.853363
5.09 -0.867827
5.1 -0.880897
5.11 -0.892371
5.12 -0.901677
5.13 -0.908672
5.14 -0.913034
5.15 -0.914257
5.16 -0.91229
5.17 -0.905983
5.18 -0.89525
5.19 -0.878868
5.2 -0.855852
5.21 -0.825502
5.22 -0.785554
5.23 -0.736123
5.24 -0.674756
5.25 -0.601415
5.26 -0.515279
5.27 -0.415421
5.28 -0.303473
5.29 -0.178298
5.3 -0.0431459
5.31 0.100834
5.32 0.25058
5.33 0.402839
5.34 0.553648
5.35 0.699326
5.36 0.834721
5.37 0.95621
5.38 1.05975
5.39 1.14034
5.4 1.19762
5.41 1.22498
5.42 1.22514
5.43 1.19529
5.44 1.13658
5.45 1.05192
5.46 0.941132
5.47 0.810946
5.48 0.663158
5.49 0.504048
5.5 0.338126
5.51 0.170705
5.52 0.006378
5.53 -0.14918
5.54 -0.293231
5.55 -0.421635
5.56 -0.532067
5.57 -0.62409
5.58 -0.694822
5.59 -0.747398
5.6 -0.780583
5.61 -0.79776
5.62 -0.80082
5.63 -0.791945
5.64 -0.774846
5.65 -0.751164
5.66 -0.724229
5.67 -0.695768
5.68 -0.66753
5.69 -0.640467
5.7 -0.615296
5.71 -0.591731
5.72 -0.569457
5.73 -0.547467
5.74 -0.524725
5.75 -0.499847
5.76 -0.472012
5.77 -0.439622
5.78 -0.402649
5.79 -0.360459
5.8 -0.313369
5.81 -0.262271
5.82 -0.208025
5.83 -0.15257
5.84 -0.0977715
5.85 -0.0458143
5.86 0.00117458
5.87 0.0405385
5.88 0.0713261
5.89 0.090287
5.9 0.0979045
5.91 0.0926227
5.92 0.0746086
5.93 0.0450217
5.94 0.00369546
5.95 -0.0463076
5.96 -0.104088
5.97 -0.166743
5.98 -0.232177
5.99 -0.297995
6 -0.362263
6.01 -0.422685
6.02 -0.478402
6.03 -0.528123
6.04 -0.571483
6.05 -0.60888
6.06 -0.640181
6.07 -0.667062
6.08 -0.690181
6.09 -0.71123
6.1 -0.731465
6.11 -0.752267
6.12 -0.774535
6.13 -0.799367
6.14 -0.826783
6.15 -0.856965
6.16 -0.889397
6.17 -0.923232
6.18 -0.957391
6.19 -0.990601
6.2 -1.0213
6.21 -1.04831
6.22 -1.0705
6.23 -1.08664
6.24 -1.0969
6.25 -1.10023
6.26 -1.09792
6.27 -1.09025
6.28 -1.07852
6.29 -1.06418
6.3 -1.04854
6.31 -1.03309
6.32 -1.01903
6.33 -1.00698
6.34 -0.997065
6.35 -0.988722
6.36 -0.98051
6.37 -0.969884
6.38 -0.954066
6.39 -0.928868
6.4 -0.889608
6.41 -0.832659
6.42 -0.750138
6.43 -0.640908
6.44 -0.496953
6.45 -0.317248
6.46 -0.0990554
6.47 0.160873
6.48 0.457673
6.49 0.794988
6.5 1.16333
6.51 1.55965
6.52 1.97554
6.53 2.40193
6.54 2.82871
6.55 3.24558
6.56 3.63964
6.57 4.00108
6.58 4.31964
6.59 4.5824
6.6 4.78793
6.61 4.91952
6.62 4.98285
6.63 4.9703
6.64 4.88319
6.65 4.7279
6.66 4.50143
6.67 4.21981
6.68 3.88475
6.69 3.51061
6.7 3.107
6.71 2.68491
6.72 2.25649
6.73 1.83288
6.74 1.42342
6.75 1.03779
6.76 0.683626
6.77 0.364392
6.78 0.0889789
6.79 -0.146455
6.8 -0.336237
6.81 -0.48498
6.82 -0.594523
6.83 -0.666717
6.84 -0.7095
6.85 -0.723504
6.86 -0.71769
6.87 -0.695329
6.88 -0.661775
6.89 -0.62151
6.9 -0.577848
6.91 -0.534014
6.92 -0.492246
6.93 -0.453908
6.94 -0.4198
6.95 -0.390465
6.96 -0.365277
6.97 -0.344479
6.98 -0.326964
6.99 -0.312503
7 -0.300629
7.01 -0.291017
7.02 -0.284002
7.03 -0.279521
7.04 -0.278461
7.05 -0.281314
7.06 -0.288894
7.07 -0.302392
7.08 -0.321851
7.09 -0.348896
7.1 -0.382801
7.11 -0.424071
7.12 -0.472153
7.13 -0.525923
7.14 -0.58473
7.15 -0.646442
7.16 -0.709588
7.17 -0.77205
7.18 -0.831986
7.19 -0.887162
7.2 -0.936577
7.21 -0.977748
7.22 -1.01083
7.23 -1.0347
7.24 -1.04947
7.25 -1.05613
7.26 -1.05473
7.27 -1.04765
7.28 -1.03586
7.29 -1.0216
7.3 -1.00657
7.31 -0.992667
7.32 -0.981115
7.33 -0.973574
7.34 -0.970161
7.35 -0.971316
7.36 -0.976489
7.37 -0.984524
7.38 -0.993992
7.39 -1.00277
7.4 -1.00828
7.41 -1.00803
7.42 -0.999476
7.43 -0.97924
7.44 -0.946451
7.45 -0.896836
7.46 -0.831206
7.47 -0.747516
7.48 -0.645862
7.49 -0.527844
7.5 -0.392948
7.51 -0.245445
7.52 -0.0865251
7.53 0.0795922
7.54 0.249582
7.55 0.41933
7.56 0.585268
7.57 0.74236
7.58 0.888075
7.59 1.01824
7.6 1.12987
7.61 1.22187
7.62 1.28971
7.63 1.3356
7.64 1.35623
7.65 1.35364
7.66 1.32833
7.67 1.28049
7.68 1.21414
7.69 1.12869
7.7 1.02912
7.71 0.916944
7.72 0.795369
7.73 0.667574
7.74 0.536093
7.75 0.40415
7.76 0.274536
7.77 0.149797
7.78 0.0322181
7.79 -0.0753571
7.8 -0.172275
7.81 -0.254961
7.82 -0.323999
7.83 -0.377405
7.84 -0.414727
7.85 -0.436756
7.86 -0.44182
7.87 -0.432895
7.88 -0.409365
7.89 -0.373917
7.9 -0.328272
7.91 -0.2744
7.92 -0.215516
7.93 -0.153912
7.94 -0.0928258
7.95 -0.0350903
7.96 0.0163198
7.97 0.0594649
7.98 0.0907341
7.99 0.110047
8 0.114563
8.01 0.104639
8.02 0.0801035
8.03 0.0407256
8.04 -0.010848
8.05 -0.0747184
8.06 -0.147123
8.07 -0.226309
8.08 -0.309286
8.09 -0.393326
8.1 -0.475485
8.11 -0.553673
8.12 -0.6252
8.13 -0.688832
8.14 -0.74349
8.15 -0.788092
8.16 -0.823818
8.17 -0.849975
8.18 -0.869002
8.19 -0.881884
8.2 -0.890678
8.21 -0.897398
8.22 -0.903944
8.23 -0.911931
8.24 -0.922859
8.25 -0.937291
8.26 -0.955341
8.27 -0.976524
8.28 -0.999258
8.29 -1.02143
8.3 -1.04032
8.31 -1.05242
8.32 -1.05373
8.33 -1.0413
8.34 -1.00881
8.35 -0.955445
8.36 -0.87515
8.37 -0.767146
8.38 -0.629661
8.39 -0.460204
8.4 -0.262688
8.41 -0.0344456
8.42 0.217565
8.43 0.491161
8.44 0.780528
8.45 1.07921
8.46 1.38064
8.47 1.6775
8.48 1.96149
8.49 2.22582
8.5 2.46386
8.51 2.66692
8.52 2.83387
8.53 2.95391
8.54 3.03003
8.55 3.05719
8.56 3.03541
8.57 2.96858
8.58 2.85352
8.59 2.70032
8.6 2.50898
8.61 2.28805
8.62 2.04316
8.63 1.78029
8.64 1.50756
8.65 1.23086
8.66 0.957094
8.67 0.692123
8.68 0.44148
8.69 0.20821
8.7 -0.00149815
8.71 -0.188571
8.72 -0.348672
8.73 -0.483216
8.74 -0.592477
8.75 -0.676316
8.76 -0.739251
8.77 -0.780644
8.78 -0.806149
8.79 -0.817574
8.8 -0.818493
8.81 -0.812402
8.82 -0.801797
8.83 -0.789884
8.84 -0.778918
8.85 -0.770848
8.86 -0.767051
8.87 -0.768892
8.88 -0.776231
8.89 -0.790053
8.9 -0.809209
8.91 -0.833477
8.92 -0.861847
8.93 -0.893091
8.94 -0.926235
8.95 -0.959865
8.96 -0.992841
8.97 -1.02411
8.98 -1.05282
8.99 -1.07805
9 -1.09975
9.01 -1.11706
9.02 -1.13054
9.03 -1.14006
9.04 -1.14602
9.05 -1.14905
9.06 -1.14937
9.07 -1.14785
9.08 -1.14478
9.09 -1.14069
9.1 -1.13581
9.11 -1.13019
9.12 -1.12382
9.13 -1.11621
9.14 -1.10703
9.15 -1.09548
9.16 -1.08071
9.17 -1.06213
9.18 -1.03819
9.19 -1.00883
9.2 -0.972634
9.21 -0.929526
9.22 -0.879248
9.23 -0.821418
9.24 -0.757233
9.25 -0.686524
9.26 -0.611265
9.27 -0.532546
9.28 -0.452298
9.29 -0.372404
9.3 -0.295345
9.31 -0.222799
9.32 -0.157505
9.33 -0.100996
9.34 -0.0548549
9.35 -0.0211951
9.36 0.000560252
9.37 0.00805394
9.38 0.00324333
9.39 -0.0141378
9.4 -0.0427794
9.41 -0.0805474
9.42 -0.12644
9.43 -0.177222
9.44 -0.231076
9.45 -0.28529
9.46 -0.337727
9.47 -0.385947
9.48 -0.42881
9.49 -0.463931
9.5 -0.4914
9.51 -0.510283
9.52 -0.520732
9.53 -0.523798
9.54 -0.519623
9.55 -0.51049
9.56 -0.497414
9.57 -0.482468
9.58 -0.467277
9.59 -0.453685
9.6 -0.442858
9.61 -0.436585
9.62 -0.435155
9.63 -0.439398
9.64 -0.449419
9.65 -0.464638
9.66 -0.48513
9.67 -0.509398
9.68 -0.536916
9.69 -0.566371
9.7 -0.596805
9.71 -0.627235
9.72 -0.656967
9.73 -0.68528
9.74 -0.712055
9.75 -0.737125
9.76 -0.760655
9.77 -0.783005
9.78 -0.804415
9.79 -0.825306
9.8 -0.845763
9.81 -0.865677
9.82 -0.884575
9.83 -0.901294
9.84 -0.914703
9.85 -0.921953
9.86 -0.92118
9.87 -0.908783
9.88 -0.880979
9.89 -0.835356
9.9 -0.765074
9.91 -0.669992
9.92 -0.543556
9.93 -0.38495
9.94 -0.192294
9.95 0.037679
9.96 0.300646
9.97 0.600236
9.98 0.928945
9.99 1.28476
10 1.66157
10.01 2.052
10.02 2.44911
10.03 2.84393
10.04 3.22708
10.05 3.5899
10.06 3.92422
10.07 4.21903
10.08 4.47202
10.09 4.66963
10.1 4.81406
10.11 4.8985
10.12 4.92157
10.13 4.88751
10.14 4.79082
10.15 4.64371
10.16 4.44518
10.17 4.20528
10.18 3.9308
10.19 3.62839
10.2 3.30871
10.21 2.9782
10.22 2.64624
10.23 2.31983
10.24 2.0061
10.25 1.70921
10.26 1.43651
10.27 1.18764
10.28 0.967498
10.29 0.774906
10.3 0.60947
10.31 0.471386
10.32 0.355581
10.33 0.26245
10.34 0.185867
10.35 0.123621
10.36 0.0718473
10.37 0.0268067
10.38 -0.0141271
10.39 -0.0541039
10.4 -0.0952717
10.41 -0.139319
10.42 -0.187307
10.43 -0.240189
10.44 -0.297541
10.45 -0.35975
10.46 -0.425562
10.47 -0.494341
10.48 -0.564886
10.49 -0.635993
10.5 -0.706319
10.51 -0.774812
10.52 -0.840079
10.53 -0.901256
10.54 -0.95752
10.55 -1.00771
10.56 -1.05197
10.57 -1.08884
10.58 -1.11893
10.59 -1.14158
10.6 -1.15671
10.61 -1.16482
10.62 -1.16506
10.63 -1.15872
10.64 -1.14528
10.65 -1.12559
10.66 -1.10009
10.67 -1.06902
10.68 -1.03362
10.69 -0.99404
10.7 -0.951642
10.71 -0.907129
10.72 -0.861578
10.73 -0.815982
10.74 -0.771531
10.75 -0.729048
10.76 -0.689781
10.77 -0.65447
10.78 -0.623851
10.79 -0.598987
10.8 -0.5797
10.81 -0.567265
10.82 -0.561009
10.83 -0.561354
10.84 -0.568115
10.85 -0.580578
10.86 -0.599023
10.87 -0.622076
10.88 -0.649642
10.89 -0.680687
10.9 -0.714515
10.91 -0.750467
10.92 -0.787621
10.93 -0.825367
10.94 -0.862941
10.95 -0.899718
10.96 -0.935065
10.97 -0.968607
10.98 -0.999566
10.99 -1.02793
11 -1.05307
11.01 -1.07493
11.02 -1.0934
11.03 -1.10817
11.04 -1.1197
11.05 -1.12766
11.06 -1.13275
11.07 -1.13514
11.08 -1.13533
11.09 -1.13398
11.1 -1.13159
11.11 -1.12891
11.12 -1.12656
11.13 -1.12513
11.14 -1.12505
11.15 -1.12673
11.16 -1.13004
11.17 -1.13499
11.18 -1.14084
11.19 -1.14679
11.2 -1.15147
11.21 -1.15351
11.22 -1.15031
11.23 -1.14047
11.24 -1.12067
11.25 -1.0889
11.26 -1.04282
11.27 -0.978803
11.28 -0.896939
11.29 -0.792533
11.3 -0.667207
11.31 -0.519116
11.32 -0.348566
11.33 -0.158092
11.34 0.0528486
11.35 0.278658
11.36 0.517421
11.37 0.763731
11.38 1.01296
11.39 1.25925
11.4 1.49779
11.41 1.72104
11.42 1.92533
11.43 2.10448
11.44 2.25354
11.45 2.37121
11.46 2.4498
11.47 2.49315
11.48 2.49628
11.49 2.46225
11.5 2.39269
11.51 2.28813
11.52 2.15578
11.53 1.99605
11.54 1.81722
11.55 1.62311
11.56 1.41958
11.57 1.21209
11.58 1.00587
11.59 0.805144
11.6 0.614607
11.61 0.437004
11.62 0.274497
11.63 0.129852
11.64 0.00166397
11.65 -0.107619
11.66 -0.201164
11.67 -0.279358
11.68 -0.344288
11.69 -0.39891
11.7 -0.444538
11.71 -0.484777
11.72 -0.521317
11.73 -0.55653
11.74 -0.591975
11.75 -0.629052
11.76 -0.668253
11.77 -0.710167
11.78 -0.75418
11.79 -0.799707
11.8 -0.845489
11.81 -0.89017
11.82 -0.931591
11.83 -0.968392
11.84 -0.998017
11.85 -1.01889
11.86 -1.02942
11.87 -1.02709
11.88 -1.01218
11.89 -0.981666
11.9 -0.936834
11.91 -0.876584
11.92 -0.801123
11.93 -0.712086
11.94 -0.608709
11.95 -0.494367
11.96 -0.369511
11.97 -0.236936
11.98 -0.0988093
11.99 0.0424632
12 0.184121
12.01 0.323233
12.02 0.457372
12.03 0.583672
12.04 0.699365
12.05 0.803119
12.06 0.890868
12.07 0.96323
12.08 1.017
12.09 1.05237
12.1 1.06908
12.11 1.06588
12.12 1.04557
12.13 1.00665
12.14 0.952887
12.15 0.885192
12.16 0.805976
12.17 0.718308
12.18 0.624019
12.19 0.526645
12.2 0.428506
12.21 0.332248
12.22 0.239904
12.23 0.153824
12.24 0.0745872
12.25 0.0042967
12.26 -0.0576961
12.27 -0.110947
12.28 -0.15603
12.29 -0.194402
12.3 -0.226605
12.31 -0.255016
12.32 -0.280904
12.33 -0.306217
12.34 -0.33244
12.35 -0.36118
12.36 -0.39311
12.37 -0.429431
12.38 -0.469783
12.39 -0.514096
12.4 -0.561476
12.41 -0.610539
