# xPDFsuite Configuration #
[PDF]
wavelength = 0.1432
dataformat = twotheta
inputfile = 1_1Pd_CeO2_cycle-00077.chi
backgroundfile = background-00000.chi
mode = xray
bgscale = 1.007
composition = CeO2
outputtype = gr
qmaxinst = 28.8974762299
qmin = 0.5
qmax = 27.9
rmax = 50.0
rmin = 0.0
rstep = 0.01
rpoly = 1.8657

[Misc]
inputdir = G:/SankarDec16/1Pd/Chi
savedir = D:/DATA/APS_CeO2/1Pd
backgroundfilefull = G:/SankarDec16/Background/background-00000.chi

#### start data
#S 1
#L r($\AA$)  G($\AA^{-2}$)
0 0
0.01 -0.00648246
0.02 -0.0124764
0.03 -0.017479
0.04 -0.0211113
0.05 -0.0231626
0.06 -0.0232941
0.07 -0.0217314
0.08 -0.0183658
0.09 -0.013628
0.1 -0.00781622
0.11 -0.00138672
0.12 0.00516289
0.13 0.0112743
0.14 0.0165521
0.15 0.0205121
0.16 0.0228708
0.17 0.0235151
0.18 0.0222142
0.19 0.0193
0.2 0.014786
0.21 0.00917437
0.22 0.00283648
0.23 -0.0037153
0.24 -0.0100126
0.25 -0.015454
0.26 -0.0197557
0.27 -0.0224757
0.28 -0.0234393
0.29 -0.0226368
0.3 -0.0199564
0.31 -0.0158211
0.32 -0.0103655
0.33 -0.00414027
0.34 0.0024282
0.35 0.0087954
0.36 0.0145448
0.37 0.0190604
0.38 0.0221839
0.39 0.0235367
0.4 0.0230616
0.41 0.0208528
0.42 0.0169238
0.43 0.0117682
0.44 0.00563614
0.45 -0.000899685
0.46 -0.00737799
0.47 -0.0132478
0.48 -0.0181647
0.49 -0.0215278
0.5 -0.0233118
0.51 -0.0232205
0.52 -0.0213169
0.53 -0.0177956
0.54 -0.0127949
0.55 -0.00685575
0.56 -0.0003324
0.57 0.00620749
0.58 0.01229
0.59 0.0173838
0.6 0.0212335
0.61 0.0232821
0.62 0.0236395
0.63 0.022106
0.64 0.0188628
0.65 0.0141956
0.66 0.00836186
0.67 0.00192427
0.68 -0.0046759
0.69 -0.0109028
0.7 -0.016293
0.71 -0.0203599
0.72 -0.0229502
0.73 -0.0235777
0.74 -0.0224821
0.75 -0.0195702
0.76 -0.0151328
0.77 -0.0095324
0.78 -0.00313267
0.79 0.00350985
0.8 0.00989001
0.81 0.0155307
0.82 0.0200035
0.83 0.0228929
0.84 0.0241559
0.85 0.0234053
0.86 0.0209987
0.87 0.0169566
0.88 0.0116654
0.89 0.00554589
0.9 -0.000949959
0.91 -0.00730422
0.92 -0.0129766
0.93 -0.0175798
0.94 -0.0207505
0.95 -0.0221772
0.96 -0.0219395
0.97 -0.0197909
0.98 -0.0161978
0.99 -0.0113169
1 -0.00562784
1.01 0.000399457
1.02 0.00621639
1.03 0.0113754
1.04 0.0152978
1.05 0.0177155
1.06 0.0183443
1.07 0.0169942
1.08 0.0138926
1.09 0.00895014
1.1 0.0027696
1.11 -0.00433095
1.12 -0.011747
1.13 -0.0189305
1.14 -0.0251815
1.15 -0.0300966
1.16 -0.0329805
1.17 -0.0336447
1.18 -0.0318158
1.19 -0.0273384
1.2 -0.0205707
1.21 -0.0114257
1.22 -0.000675574
1.23 0.0113059
1.24 0.0238044
1.25 0.03618
1.26 0.0476427
1.27 0.0577049
1.28 0.06557
1.29 0.0709721
1.3 0.0735431
1.31 0.0730025
1.32 0.0696574
1.33 0.0631942
1.34 0.0543699
1.35 0.0433525
1.36 0.0307429
1.37 0.017108
1.38 0.00298985
1.39 -0.011026
1.4 -0.0243795
1.41 -0.0366722
1.42 -0.0475359
1.43 -0.0566275
1.44 -0.0639754
1.45 -0.0691916
1.46 -0.0726024
1.47 -0.0740991
1.48 -0.0738651
1.49 -0.0721004
1.5 -0.0688158
1.51 -0.0643442
1.52 -0.0586603
1.53 -0.051988
1.54 -0.044385
1.55 -0.0359032
1.56 -0.0266971
1.57 -0.0167391
1.58 -0.00625095
1.59 0.00467191
1.6 0.015801
1.61 0.0268935
1.62 0.0375879
1.63 0.047592
1.64 0.0563818
1.65 0.0636318
1.66 0.0689079
1.67 0.0717164
1.68 0.0720222
1.69 0.0691353
1.7 0.0634303
1.71 0.0546638
1.72 0.0431216
1.73 0.029217
1.74 0.0132312
1.75 -0.00401489
1.76 -0.0219763
1.77 -0.0398376
1.78 -0.0569052
1.79 -0.0723835
1.8 -0.0858913
1.81 -0.0965402
1.82 -0.104449
1.83 -0.109229
1.84 -0.111053
1.85 -0.110287
1.86 -0.107166
1.87 -0.102558
1.88 -0.0970122
1.89 -0.0914029
1.9 -0.0864506
1.91 -0.0829629
1.92 -0.0813231
1.93 -0.0823453
1.94 -0.0858566
1.95 -0.0920977
1.96 -0.100737
1.97 -0.111253
1.98 -0.12309
1.99 -0.135291
2 -0.1469
2.01 -0.156933
2.02 -0.16441
2.03 -0.168213
2.04 -0.168008
2.05 -0.162405
2.06 -0.151828
2.07 -0.135656
2.08 -0.114162
2.09 -0.0878756
2.1 -0.0568978
2.11 -0.0224986
2.12 0.0149292
2.13 0.0542256
2.14 0.0946421
2.15 0.135365
2.16 0.175779
2.17 0.215265
2.18 0.253653
2.19 0.290713
2.2 0.32652
2.21 0.361285
2.22 0.395191
2.23 0.428628
2.24 0.461809
2.25 0.494931
2.26 0.52801
2.27 0.560844
2.28 0.593095
2.29 0.623918
2.3 0.652647
2.31 0.678014
2.32 0.698789
2.33 0.713976
2.34 0.72149
2.35 0.721205
2.36 0.711001
2.37 0.691032
2.38 0.660728
2.39 0.61977
2.4 0.569701
2.41 0.510071
2.42 0.443682
2.43 0.371635
2.44 0.296318
2.45 0.219936
2.46 0.145031
2.47 0.0735528
2.48 0.00817672
2.49 -0.0498022
2.5 -0.0989181
2.51 -0.137853
2.52 -0.167337
2.53 -0.185993
2.54 -0.196161
2.55 -0.198243
2.56 -0.194204
2.57 -0.186044
2.58 -0.175652
2.59 -0.165264
2.6 -0.156931
2.61 -0.152209
2.62 -0.152422
2.63 -0.158725
2.64 -0.170829
2.65 -0.189562
2.66 -0.213313
2.67 -0.241502
2.68 -0.272487
2.69 -0.304648
2.7 -0.336129
2.71 -0.365418
2.72 -0.390603
2.73 -0.410769
2.74 -0.425007
2.75 -0.432653
2.76 -0.434468
2.77 -0.43012
2.78 -0.421531
2.79 -0.409663
2.8 -0.396367
2.81 -0.383315
2.82 -0.372534
2.83 -0.365234
2.84 -0.363278
2.85 -0.367151
2.86 -0.377414
2.87 -0.394254
2.88 -0.416479
2.89 -0.443786
2.9 -0.473962
2.91 -0.505519
2.92 -0.536309
2.93 -0.564553
2.94 -0.58785
2.95 -0.605359
2.96 -0.615052
2.97 -0.616922
2.98 -0.610697
2.99 -0.596591
3 -0.576349
3.01 -0.5507
3.02 -0.522362
3.03 -0.493245
3.04 -0.465842
3.05 -0.442106
3.06 -0.424704
3.07 -0.414298
3.08 -0.412953
3.09 -0.420339
3.1 -0.436456
3.11 -0.460715
3.12 -0.49099
3.13 -0.526098
3.14 -0.563076
3.15 -0.599692
3.16 -0.633327
3.17 -0.662078
3.18 -0.683294
3.19 -0.696736
3.2 -0.700684
3.21 -0.696064
3.22 -0.683479
3.23 -0.664308
3.24 -0.641139
3.25 -0.616249
3.26 -0.592709
3.27 -0.573476
3.28 -0.561356
3.29 -0.558128
3.3 -0.566724
3.31 -0.58647
3.32 -0.618926
3.33 -0.662097
3.34 -0.714559
3.35 -0.773869
3.36 -0.836466
3.37 -0.898779
3.38 -0.957098
3.39 -1.00746
3.4 -1.04651
3.41 -1.07239
3.42 -1.0816
3.43 -1.0757
3.44 -1.05316
3.45 -1.0171
3.46 -0.969842
3.47 -0.914969
3.48 -0.85717
3.49 -0.801345
3.5 -0.751894
3.51 -0.713658
3.52 -0.690216
3.53 -0.68312
3.54 -0.69536
3.55 -0.723743
3.56 -0.76779
3.57 -0.821642
3.58 -0.879771
3.59 -0.933918
3.6 -0.976634
3.61 -0.995108
3.62 -0.983177
3.63 -0.928855
3.64 -0.824027
3.65 -0.664673
3.66 -0.438948
3.67 -0.153228
3.68 0.200232
3.69 0.612246
3.7 1.0781
3.71 1.58993
3.72 2.13243
3.73 2.69488
3.74 3.25891
3.75 3.80843
3.76 4.32557
3.77 4.79688
3.78 5.19976
3.79 5.53065
3.8 5.76846
3.81 5.91301
3.82 5.95817
3.83 5.8985
3.84 5.74711
3.85 5.49514
3.86 5.16593
3.87 4.76382
3.88 4.30521
3.89 3.80649
3.9 3.28112
3.91 2.74757
3.92 2.22073
3.93 1.71444
3.94 1.24049
3.95 0.811299
3.96 0.428868
3.97 0.106542
3.98 -0.16223
3.99 -0.373058
4 -0.530183
4.01 -0.640376
4.02 -0.705272
4.03 -0.737649
4.04 -0.741328
4.05 -0.726873
4.06 -0.700981
4.07 -0.670684
4.08 -0.641613
4.09 -0.619126
4.1 -0.605395
4.11 -0.602914
4.12 -0.611915
4.13 -0.631184
4.14 -0.659942
4.15 -0.694598
4.16 -0.732821
4.17 -0.771005
4.18 -0.806183
4.19 -0.834991
4.2 -0.855865
4.21 -0.865283
4.22 -0.863622
4.23 -0.849302
4.24 -0.822634
4.25 -0.784749
4.26 -0.735559
4.27 -0.67788
4.28 -0.612268
4.29 -0.541131
4.3 -0.4659
4.31 -0.388052
4.32 -0.309013
4.33 -0.229754
4.34 -0.151067
4.35 -0.0735187
4.36 0.00254654
4.37 0.077005
4.38 0.149483
4.39 0.220065
4.4 0.288201
4.41 0.353647
4.42 0.415772
4.43 0.473517
4.44 0.526439
4.45 0.572414
4.46 0.611187
4.47 0.640886
4.48 0.660417
4.49 0.669339
4.5 0.665525
4.51 0.650227
4.52 0.621837
4.53 0.581792
4.54 0.530599
4.55 0.469041
4.56 0.39957
4.57 0.322915
4.58 0.242095
4.59 0.158812
4.6 0.075398
4.61 -0.00631426
4.62 -0.0840717
4.63 -0.156974
4.64 -0.223164
4.65 -0.282406
4.66 -0.334242
4.67 -0.378366
4.68 -0.415929
4.69 -0.4466
4.7 -0.472252
4.71 -0.493464
4.72 -0.511511
4.73 -0.527524
4.74 -0.54237
4.75 -0.556963
4.76 -0.571891
4.77 -0.587508
4.78 -0.603949
4.79 -0.62116
4.8 -0.638824
4.81 -0.656562
4.82 -0.673885
4.83 -0.690261
4.84 -0.7052
4.85 -0.718418
4.86 -0.729403
4.87 -0.738336
4.88 -0.744979
4.89 -0.749711
4.9 -0.752794
4.91 -0.754611
4.92 -0.755719
4.93 -0.756555
4.94 -0.757611
4.95 -0.759289
4.96 -0.761892
4.97 -0.76553
4.98 -0.770378
4.99 -0.776203
5 -0.782945
5.01 -0.790263
5.02 -0.797891
5.03 -0.805516
5.04 -0.81291
5.05 -0.819823
5.06 -0.826236
5.07 -0.832118
5.08 -0.837604
5.09 -0.842885
5.1 -0.848201
5.11 -0.853758
5.12 -0.859752
5.13 -0.866172
5.14 -0.872868
5.15 -0.879396
5.16 -0.885149
5.17 -0.888858
5.18 -0.889502
5.19 -0.885265
5.2 -0.874288
5.21 -0.855148
5.22 -0.824618
5.23 -0.782437
5.24 -0.725333
5.25 -0.653175
5.26 -0.564985
5.27 -0.459789
5.28 -0.339839
5.29 -0.204116
5.3 -0.0568738
5.31 0.100127
5.32 0.262917
5.33 0.427495
5.34 0.588923
5.35 0.743117
5.36 0.884103
5.37 1.00814
5.38 1.11102
5.39 1.18769
5.4 1.23836
5.41 1.25653
5.42 1.24588
5.43 1.20419
5.44 1.13345
5.45 1.03732
5.46 0.916501
5.47 0.778154
5.48 0.624839
5.49 0.462963
5.5 0.297207
5.51 0.132968
5.52 -0.0257
5.53 -0.173172
5.54 -0.307595
5.55 -0.425323
5.56 -0.524802
5.57 -0.606246
5.58 -0.667568
5.59 -0.712286
5.6 -0.73984
5.61 -0.753748
5.62 -0.756066
5.63 -0.749071
5.64 -0.736031
5.65 -0.718584
5.66 -0.69932
5.67 -0.679586
5.68 -0.660508
5.69 -0.642508
5.7 -0.625691
5.71 -0.609438
5.72 -0.592921
5.73 -0.575006
5.74 -0.554521
5.75 -0.530001
5.76 -0.500935
5.77 -0.465715
5.78 -0.42483
5.79 -0.377899
5.8 -0.325653
5.81 -0.269337
5.82 -0.210179
5.83 -0.150338
5.84 -0.0919595
5.85 -0.0372929
5.86 0.0114846
5.87 0.0517092
5.88 0.082618
5.89 0.101007
5.9 0.107634
5.91 0.101092
5.92 0.0817456
5.93 0.0508956
5.94 0.00850888
5.95 -0.0423232
5.96 -0.100665
5.97 -0.163683
5.98 -0.229358
5.99 -0.295421
6 -0.360055
6.01 -0.421127
6.02 -0.477845
6.03 -0.529013
6.04 -0.574279
6.05 -0.613985
6.06 -0.647936
6.07 -0.677619
6.08 -0.703503
6.09 -0.727044
6.1 -0.749266
6.11 -0.771258
6.12 -0.793818
6.13 -0.817714
6.14 -0.843044
6.15 -0.869881
6.16 -0.897811
6.17 -0.926195
6.18 -0.954115
6.19 -0.980698
6.2 -1.00471
6.21 -1.02537
6.22 -1.04192
6.23 -1.05355
6.24 -1.0606
6.25 -1.06245
6.26 -1.0603
6.27 -1.05459
6.28 -1.04646
6.29 -1.03709
6.3 -1.02764
6.31 -1.01908
6.32 -1.01226
6.33 -1.00731
6.34 -1.00395
6.35 -1.00115
6.36 -0.99729
6.37 -0.989368
6.38 -0.974715
6.39 -0.949014
6.4 -0.907739
6.41 -0.847547
6.42 -0.760773
6.43 -0.646782
6.44 -0.497942
6.45 -0.313693
6.46 -0.0916884
6.47 0.170883
6.48 0.469033
6.49 0.805994
6.5 1.17245
6.51 1.5653
6.52 1.97634
6.53 2.39685
6.54 2.81698
6.55 3.22696
6.56 3.61429
6.57 3.96961
6.58 4.28304
6.59 4.54208
6.6 4.74535
6.61 4.87653
6.62 4.94108
6.63 4.93138
6.64 4.84851
6.65 4.69853
6.66 4.47813
6.67 4.20289
6.68 3.87413
6.69 3.50583
6.7 3.10732
6.71 2.68927
6.72 2.2638
6.73 1.84185
6.74 1.43297
6.75 1.04692
6.76 0.691608
6.77 0.370771
6.78 0.0936116
6.79 -0.143403
6.8 -0.33429
6.81 -0.483471
6.82 -0.59265
6.83 -0.663583
6.84 -0.704353
6.85 -0.715641
6.86 -0.706739
6.87 -0.681189
6.88 -0.644717
6.89 -0.602116
6.9 -0.557155
6.91 -0.513187
6.92 -0.472804
6.93 -0.437356
6.94 -0.407631
6.95 -0.384086
6.96 -0.365698
6.97 -0.352449
6.98 -0.342671
6.99 -0.335652
7 -0.330359
7.01 -0.326062
7.02 -0.322435
7.03 -0.319358
7.04 -0.317252
7.05 -0.316737
7.06 -0.318705
7.07 -0.324524
7.08 -0.334833
7.09 -0.351617
7.1 -0.374919
7.11 -0.405865
7.12 -0.444615
7.13 -0.490545
7.14 -0.543786
7.15 -0.602261
7.16 -0.665023
7.17 -0.729774
7.18 -0.794551
7.19 -0.856881
7.2 -0.915065
7.21 -0.966182
7.22 -1.00952
7.23 -1.04327
7.24 -1.06678
7.25 -1.0805
7.26 -1.08371
7.27 -1.07877
7.28 -1.06619
7.29 -1.04847
7.3 -1.02753
7.31 -1.00564
7.32 -0.984808
7.33 -0.967301
7.34 -0.954122
7.35 -0.946507
7.36 -0.944703
7.37 -0.948028
7.38 -0.955883
7.39 -0.965974
7.4 -0.976145
7.41 -0.983454
7.42 -0.984963
7.43 -0.976742
7.44 -0.95699
7.45 -0.920584
7.46 -0.867367
7.47 -0.794332
7.48 -0.700692
7.49 -0.587586
7.5 -0.453562
7.51 -0.30323
7.52 -0.137357
7.53 0.039191
7.54 0.222574
7.55 0.407943
7.56 0.5906
7.57 0.764466
7.58 0.925877
7.59 1.06953
7.6 1.19142
7.61 1.28994
7.62 1.35948
7.63 1.40267
7.64 1.41573
7.65 1.40146
7.66 1.36098
7.67 1.29528
7.68 1.20972
7.69 1.10484
7.7 0.98696
7.71 0.858846
7.72 0.724867
7.73 0.588799
7.74 0.454412
7.75 0.324478
7.76 0.202378
7.77 0.0898525
7.78 -0.0114281
7.79 -0.0994739
7.8 -0.175051
7.81 -0.235771
7.82 -0.283663
7.83 -0.318093
7.84 -0.339881
7.85 -0.35051
7.86 -0.349661
7.87 -0.339936
7.88 -0.321418
7.89 -0.296055
7.9 -0.265019
7.91 -0.229521
7.92 -0.191338
7.93 -0.151702
7.94 -0.112336
7.95 -0.074775
7.96 -0.0406975
7.97 -0.0112856
7.98 0.0111937
7.99 0.0264284
8 0.0323234
8.01 0.0286392
8.02 0.0147712
8.03 -0.0101183
8.04 -0.0446917
8.05 -0.089912
8.06 -0.143434
8.07 -0.204635
8.08 -0.271702
8.09 -0.342624
8.1 -0.415633
8.11 -0.488522
8.12 -0.559255
8.13 -0.62614
8.14 -0.68776
8.15 -0.742547
8.16 -0.790602
8.17 -0.830542
8.18 -0.863639
8.19 -0.889976
8.2 -0.910674
8.21 -0.927181
8.22 -0.940514
8.23 -0.952398
8.24 -0.963893
8.25 -0.975963
8.26 -0.989043
8.27 -1.0031
8.28 -1.01739
8.29 -1.03041
8.3 -1.04028
8.31 -1.04421
8.32 -1.03882
8.33 -1.02151
8.34 -0.98653
8.35 -0.932833
8.36 -0.854558
8.37 -0.750478
8.38 -0.618449
8.39 -0.455483
8.4 -0.264848
8.41 -0.0432619
8.42 0.202855
8.43 0.471843
8.44 0.758274
8.45 1.05578
8.46 1.35809
8.47 1.65748
8.48 1.94559
8.49 2.21508
8.5 2.45886
8.51 2.66768
8.52 2.83989
8.53 2.96404
8.54 3.04286
8.55 3.07091
8.56 3.04807
8.57 2.97838
8.58 2.85863
8.59 2.69947
8.6 2.50128
8.61 2.27322
8.62 2.02152
8.63 1.75284
8.64 1.47572
8.65 1.19677
8.66 0.922935
8.67 0.660405
8.68 0.414651
8.69 0.188374
8.7 -0.0124075
8.71 -0.189403
8.72 -0.338807
8.73 -0.462828
8.74 -0.562424
8.75 -0.638273
8.76 -0.69525
8.77 -0.733546
8.78 -0.758716
8.79 -0.77284
8.8 -0.779317
8.81 -0.781157
8.82 -0.780567
8.83 -0.779824
8.84 -0.780533
8.85 -0.783752
8.86 -0.790109
8.87 -0.800087
8.88 -0.813221
8.89 -0.829637
8.9 -0.848381
8.91 -0.869009
8.92 -0.890781
8.93 -0.913049
8.94 -0.935233
8.95 -0.956917
8.96 -0.97771
8.97 -0.997479
8.98 -1.01616
8.99 -1.03373
9 -1.05039
9.01 -1.06616
9.02 -1.08128
9.03 -1.09579
9.04 -1.10971
9.05 -1.12301
9.06 -1.13541
9.07 -1.14674
9.08 -1.15646
9.09 -1.16413
9.1 -1.16921
9.11 -1.17083
9.12 -1.16876
9.13 -1.16169
9.14 -1.14967
9.15 -1.13181
9.16 -1.10771
9.17 -1.0775
9.18 -1.04023
9.19 -0.996924
9.2 -0.947064
9.21 -0.891545
9.22 -0.830913
9.23 -0.765726
9.24 -0.69734
9.25 -0.626448
9.26 -0.554573
9.27 -0.482886
9.28 -0.412838
9.29 -0.345548
9.3 -0.282907
9.31 -0.22548
9.32 -0.175112
9.33 -0.13237
9.34 -0.0980415
9.35 -0.0733158
9.36 -0.057451
9.37 -0.0519643
9.38 -0.0553216
9.39 -0.0676966
9.4 -0.0882169
9.41 -0.115464
9.42 -0.148945
9.43 -0.186471
9.44 -0.227004
9.45 -0.268711
9.46 -0.310163
9.47 -0.349712
9.48 -0.38638
9.49 -0.418468
9.5 -0.445711
9.51 -0.467224
9.52 -0.482772
9.53 -0.492795
9.54 -0.496986
9.55 -0.49678
9.56 -0.492549
9.57 -0.485687
9.58 -0.477291
9.59 -0.468634
9.6 -0.460829
9.61 -0.455238
9.62 -0.452519
9.63 -0.453585
9.64 -0.458961
9.65 -0.468598
9.66 -0.483071
9.67 -0.50149
9.68 -0.523908
9.69 -0.549452
9.7 -0.577504
9.71 -0.607424
9.72 -0.638373
9.73 -0.669801
9.74 -0.701101
9.75 -0.73184
9.76 -0.761659
9.77 -0.790393
9.78 -0.817659
9.79 -0.843449
9.8 -0.867265
9.81 -0.888747
9.82 -0.907233
9.83 -0.921394
9.84 -0.930453
9.85 -0.931595
9.86 -0.92361
9.87 -0.903343
9.88 -0.867675
9.89 -0.814768
9.9 -0.738561
9.91 -0.639244
9.92 -0.510909
9.93 -0.352875
9.94 -0.163366
9.95 0.0608107
9.96 0.315862
9.97 0.605556
9.98 0.923211
9.99 1.26738
10 1.63275
10.01 2.01258
10.02 2.40086
10.03 2.78891
10.04 3.16807
10.05 3.52981
10.06 3.86603
10.07 4.16578
10.08 4.42615
10.09 4.63342
10.1 4.78887
10.11 4.88512
10.12 4.91994
10.13 4.89688
10.14 4.80954
10.15 4.66979
10.16 4.47589
10.17 4.23781
10.18 3.96224
10.19 3.6558
10.2 3.32974
10.21 2.99068
10.22 2.64887
10.23 2.31191
10.24 1.98772
10.25 1.68112
10.26 1.40033
10.27 1.14529
10.28 0.921552
10.29 0.728029
10.3 0.564363
10.31 0.430771
10.32 0.321589
10.33 0.237033
10.34 0.170144
10.35 0.118155
10.36 0.0764554
10.37 0.0407242
10.38 0.00755272
10.39 -0.0264511
10.4 -0.0640001
10.41 -0.106807
10.42 -0.155929
10.43 -0.212279
10.44 -0.274876
10.45 -0.343881
10.46 -0.41729
10.47 -0.493946
10.48 -0.571985
10.49 -0.649716
10.5 -0.725113
10.51 -0.796983
10.52 -0.863484
10.53 -0.923812
10.54 -0.977219
10.55 -1.02267
10.56 -1.06085
10.57 -1.09061
10.58 -1.11321
10.59 -1.12851
10.6 -1.13701
10.61 -1.13961
10.62 -1.13606
10.63 -1.12768
10.64 -1.11427
10.65 -1.09656
10.66 -1.07481
10.67 -1.04908
10.68 -1.02004
10.69 -0.987467
10.7 -0.952133
10.71 -0.914232
10.72 -0.874314
10.73 -0.833067
10.74 -0.791148
10.75 -0.749462
10.76 -0.709004
10.77 -0.670751
10.78 -0.635662
10.79 -0.60509
10.8 -0.5794
10.81 -0.560308
10.82 -0.54769
10.83 -0.542464
10.84 -0.544922
10.85 -0.554577
10.86 -0.572184
10.87 -0.596185
10.88 -0.62666
10.89 -0.662258
10.9 -0.701994
10.91 -0.74484
10.92 -0.789324
10.93 -0.834325
10.94 -0.878562
10.95 -0.920906
10.96 -0.960274
10.97 -0.996114
10.98 -1.0272
10.99 -1.05377
11 -1.07505
11.01 -1.09138
11.02 -1.10296
11.03 -1.10989
11.04 -1.11321
11.05 -1.1131
11.06 -1.11078
11.07 -1.10691
11.08 -1.10245
11.09 -1.0982
11.1 -1.0951
11.11 -1.09362
11.12 -1.09452
11.13 -1.098
11.14 -1.10416
11.15 -1.11303
11.16 -1.12392
11.17 -1.13637
11.18 -1.14914
11.19 -1.16098
11.2 -1.17013
11.21 -1.17508
11.22 -1.17286
11.23 -1.16234
11.24 -1.14013
11.25 -1.10454
11.26 -1.0536
11.27 -0.984014
11.28 -0.896381
11.29 -0.786469
11.3 -0.656301
11.31 -0.504435
11.32 -0.331494
11.33 -0.140091
11.34 0.070027
11.35 0.293553
11.36 0.528563
11.37 0.770024
11.38 1.01364
11.39 1.25396
11.4 1.48662
11.41 1.70458
11.42 1.90451
11.43 2.08063
11.44 2.22826
11.45 2.34613
11.46 2.42686
11.47 2.4739
11.48 2.4823
11.49 2.4547
11.5 2.39239
11.51 2.29544
11.52 2.17062
11.53 2.01782
11.54 1.84494
11.55 1.65538
11.56 1.45469
11.57 1.24826
11.58 1.04098
11.59 0.837393
11.6 0.642136
11.61 0.458319
11.62 0.288418
11.63 0.135561
11.64 -0.00116688
11.65 -0.118871
11.66 -0.220292
11.67 -0.305399
11.68 -0.375905
11.69 -0.434621
11.7 -0.482453
11.71 -0.523199
11.72 -0.558367
11.73 -0.590566
11.74 -0.621546
11.75 -0.652905
11.76 -0.685568
11.77 -0.720379
11.78 -0.757159
11.79 -0.795652
11.8 -0.834954
11.81 -0.873923
11.82 -0.910776
11.83 -0.944148
11.84 -0.971721
11.85 -0.991872
11.86 -1.00295
11.87 -1.00245
11.88 -0.990365
11.89 -0.963616
11.9 -0.923172
11.91 -0.867751
11.92 -0.797309
11.93 -0.713263
11.94 -0.614602
11.95 -0.504559
11.96 -0.383369
11.97 -0.253729
11.98 -0.117725
11.99 0.0223626
12 0.163689
12.01 0.303448
12.02 0.43905
12.03 0.567616
12.04 0.686274
12.05 0.793534
12.06 0.885248
12.07 0.961821
12.08 1.01991
12.09 1.05952
12.1 1.08022
12.11 1.08057
12.12 1.06328
12.13 1.02659
12.14 0.974275
12.15 0.907088
12.16 0.827394
12.17 0.738322
12.18 0.64161
12.19 0.541013
12.2 0.438879
12.21 0.338074
12.22 0.240814
12.23 0.149674
12.24 0.0654709
12.25 -0.00940877
12.26 -0.0754191
12.27 -0.131871
12.28 -0.179137
12.29 -0.21862
12.3 -0.25061
12.31 -0.277649
12.32 -0.300909
12.33 -0.322525
12.34 -0.344141
12.35 -0.367548
12.36 -0.393738
12.37 -0.424172
12.38 -0.458812
12.39 -0.497885
12.4 -0.540802
