# xPDFsuite Configuration #
[PDF]
wavelength = 0.1432
dataformat = twotheta
inputfile = 1_1Pd_CeO2_cycle-00167.chi
backgroundfile = background-00000.chi
mode = xray
bgscale = 1.007
composition = CeO2
outputtype = gr
qmaxinst = 28.8974762299
qmin = 0.5
qmax = 27.9
rmax = 50.0
rmin = 0.0
rstep = 0.01
rpoly = 1.8657

[Misc]
inputdir = G:/SankarDec16/1Pd/Chi
savedir = D:/DATA/APS_CeO2/1Pd
backgroundfilefull = G:/SankarDec16/Background/background-00000.chi

#### start data
#S 1
#L r($\AA$)  G($\AA^{-2}$)
0 0
0.01 -0.00637482
0.02 -0.0122698
0.03 -0.0171909
0.04 -0.0207659
0.05 -0.0227875
0.06 -0.0229226
0.07 -0.0213926
0.08 -0.01809
0.09 -0.0134376
0.1 -0.00772775
0.11 -0.00140833
0.12 0.00503182
0.13 0.0110448
0.14 0.0162413
0.15 0.0201455
0.16 0.0224781
0.17 0.0231271
0.18 0.0218643
0.19 0.019015
0.2 0.0145907
0.21 0.00908402
0.22 0.00285882
0.23 -0.00358231
0.24 -0.00977882
0.25 -0.0151404
0.26 -0.0193867
0.27 -0.0220827
0.28 -0.0230549
0.29 -0.0222921
0.3 -0.0196824
0.31 -0.0156394
0.32 -0.0102933
0.33 -0.00418397
0.34 0.0022707
0.35 0.00853648
0.36 0.014203
0.37 0.0186654
0.38 0.0217654
0.39 0.0231294
0.4 0.0226985
0.41 0.0205627
0.42 0.0167319
0.43 0.0116892
0.44 0.0056775
0.45 -0.000741338
0.46 -0.00711506
0.47 -0.0129026
0.48 -0.0177634
0.49 -0.0211066
0.5 -0.0229037
0.51 -0.0228606
0.52 -0.0210359
0.53 -0.0176172
0.54 -0.0127363
0.55 -0.00692312
0.56 -0.000522065
0.57 0.00590902
0.58 0.011905
0.59 0.0169432
0.6 0.0207694
0.61 0.022835
0.62 0.0232426
0.63 0.0217923
0.64 0.0186577
0.65 0.0141158
0.66 0.00841468
0.67 0.00210637
0.68 -0.00437918
0.69 -0.0105141
0.7 -0.0158424
0.71 -0.0198841
0.72 -0.0224839
0.73 -0.0231604
0.74 -0.0221436
0.75 -0.0193366
0.76 -0.0150198
0.77 -0.00954621
0.78 -0.00326789
0.79 0.00326737
0.8 0.00956573
0.81 0.0151544
0.82 0.0196095
0.83 0.0225169
0.84 0.0238274
0.85 0.0231515
0.86 0.0208332
0.87 0.0168825
0.88 0.0116714
0.89 0.00560833
0.9 -0.000872233
0.91 -0.00725774
0.92 -0.0130232
0.93 -0.0177803
0.94 -0.0211672
0.95 -0.0228685
0.96 -0.0229484
0.97 -0.0211499
0.98 -0.0179142
0.99 -0.0133746
1 -0.0079824
1.01 -0.00218309
1.02 0.00351429
1.03 0.00867347
1.04 0.0127579
1.05 0.0155042
1.06 0.0166457
1.07 0.0160061
1.08 0.013792
1.09 0.0099338
1.1 0.00498671
1.11 -0.000742667
1.12 -0.00669183
1.13 -0.0123552
1.14 -0.0170834
1.15 -0.0205247
1.16 -0.0220531
1.17 -0.0215323
1.18 -0.0187519
1.19 -0.0136312
1.2 -0.00654771
1.21 0.00247038
1.22 0.0126761
1.23 0.0236231
1.24 0.0345925
1.25 0.0449602
1.26 0.0539008
1.27 0.0610219
1.28 0.0655225
1.29 0.0672473
1.3 0.0659024
1.31 0.0613152
1.32 0.0539127
1.33 0.0435308
1.34 0.0310428
1.35 0.016781
1.36 0.00148186
1.37 -0.014192
1.38 -0.0295013
1.39 -0.0438843
1.4 -0.0566005
1.41 -0.0673139
1.42 -0.0756375
1.43 -0.0812467
1.44 -0.084343
1.45 -0.0845514
1.46 -0.0824735
1.47 -0.0781445
1.48 -0.0719921
1.49 -0.0644326
1.5 -0.0557592
1.51 -0.0464677
1.52 -0.0368341
1.53 -0.0271874
1.54 -0.0177421
1.55 -0.00868755
1.56 -7.84507e-05
1.57 0.00794531
1.58 0.0154542
1.59 0.0224005
1.6 0.0288081
1.61 0.0346944
1.62 0.0399708
1.63 0.0446578
1.64 0.048571
1.65 0.0516464
1.66 0.053715
1.67 0.0545555
1.68 0.0541459
1.69 0.0521077
1.7 0.0485844
1.71 0.0433859
1.72 0.0365868
1.73 0.0283413
1.74 0.0186937
1.75 0.00805569
1.76 -0.00338512
1.77 -0.0151987
1.78 -0.0270509
1.79 -0.0385467
1.8 -0.04943
1.81 -0.0592845
1.82 -0.0680732
1.83 -0.0755928
1.84 -0.0818767
1.85 -0.0870606
1.86 -0.0912338
1.87 -0.0947649
1.88 -0.0978849
1.89 -0.10096
1.9 -0.104275
1.91 -0.108125
1.92 -0.112619
1.93 -0.117959
1.94 -0.123981
1.95 -0.130585
1.96 -0.137443
1.97 -0.144176
1.98 -0.150207
1.99 -0.155107
2 -0.158106
2.01 -0.158794
2.02 -0.156633
2.03 -0.151057
2.04 -0.142148
2.05 -0.129164
2.06 -0.112717
2.07 -0.0926374
2.08 -0.0693573
2.09 -0.043398
2.1 -0.0150489
2.11 0.0148622
2.12 0.0459669
2.13 0.0776387
2.14 0.109499
2.15 0.141226
2.16 0.172687
2.17 0.203824
2.18 0.234811
2.19 0.265878
2.2 0.297371
2.21 0.3296
2.22 0.363027
2.23 0.397735
2.24 0.434016
2.25 0.471644
2.26 0.510357
2.27 0.549562
2.28 0.588467
2.29 0.62578
2.3 0.660458
2.31 0.690826
2.32 0.715369
2.33 0.732955
2.34 0.741232
2.35 0.740285
2.36 0.727908
2.37 0.704593
2.38 0.67
2.39 0.624143
2.4 0.568955
2.41 0.504385
2.42 0.433563
2.43 0.357952
2.44 0.28019
2.45 0.202594
2.46 0.127934
2.47 0.0579534
2.48 -0.0046237
2.49 -0.0588292
2.5 -0.103437
2.51 -0.137471
2.52 -0.162029
2.53 -0.176158
2.54 -0.182487
2.55 -0.181785
2.56 -0.176247
2.57 -0.16796
2.58 -0.159029
2.59 -0.15144
2.6 -0.14727
2.61 -0.147702
2.62 -0.153783
2.63 -0.166273
2.64 -0.184483
2.65 -0.208741
2.66 -0.237129
2.67 -0.268637
2.68 -0.30136
2.69 -0.333577
2.7 -0.363159
2.71 -0.388883
2.72 -0.408774
2.73 -0.422341
2.74 -0.42898
2.75 -0.428461
2.76 -0.422031
2.77 -0.409912
2.78 -0.394434
2.79 -0.377075
2.8 -0.360048
2.81 -0.345203
2.82 -0.334966
2.83 -0.330279
2.84 -0.333192
2.85 -0.343769
2.86 -0.362302
2.87 -0.388571
2.88 -0.420825
2.89 -0.458248
2.9 -0.498073
2.91 -0.538256
2.92 -0.576169
2.93 -0.609743
2.94 -0.636053
2.95 -0.654403
2.96 -0.662439
2.97 -0.660474
2.98 -0.648398
2.99 -0.626716
3 -0.597733
3.01 -0.56254
3.02 -0.524496
3.03 -0.486016
3.04 -0.450125
3.05 -0.419146
3.06 -0.396297
3.07 -0.382249
3.08 -0.379459
3.09 -0.387424
3.1 -0.406085
3.11 -0.43469
3.12 -0.470643
3.13 -0.512533
3.14 -0.556796
3.15 -0.600785
3.16 -0.641385
3.17 -0.676323
3.18 -0.702449
3.19 -0.719434
3.2 -0.725188
3.21 -0.720722
3.22 -0.706651
3.23 -0.684459
3.24 -0.657115
3.25 -0.627079
3.26 -0.597941
3.27 -0.57302
3.28 -0.555568
3.29 -0.547696
3.3 -0.552795
3.31 -0.570279
3.32 -0.602048
3.33 -0.646032
3.34 -0.700796
3.35 -0.763793
3.36 -0.831101
3.37 -0.898956
3.38 -0.963156
3.39 -1.01936
3.4 -1.0638
3.41 -1.09424
3.42 -1.10675
3.43 -1.10278
3.44 -1.08044
3.45 -1.04295
3.46 -0.992604
3.47 -0.933104
3.48 -0.869517
3.49 -0.806927
3.5 -0.750274
3.51 -0.704787
3.52 -0.674532
3.53 -0.661438
3.54 -0.669031
3.55 -0.694241
3.56 -0.737027
3.57 -0.791489
3.58 -0.852143
3.59 -0.910686
3.6 -0.959274
3.61 -0.984977
3.62 -0.981035
3.63 -0.935082
3.64 -0.838467
3.65 -0.686734
3.66 -0.467454
3.67 -0.186785
3.68 0.163532
3.69 0.574358
3.7 1.0411
3.71 1.55595
3.72 2.10324
3.73 2.67223
3.74 3.24396
3.75 3.80198
3.76 4.32789
3.77 4.80776
3.78 5.21842
3.79 5.55596
3.8 5.79876
3.81 5.94647
3.82 5.99275
3.83 5.93203
3.84 5.77767
3.85 5.52072
3.86 5.18509
3.87 4.77536
3.88 4.30843
3.89 3.80116
3.9 3.26754
3.91 2.72643
3.92 2.19324
3.93 1.68208
3.94 1.20498
3.95 0.774576
3.96 0.392698
3.97 0.0728804
3.98 -0.191905
3.99 -0.397411
4 -0.548294
4.01 -0.651728
4.02 -0.709761
4.03 -0.735565
4.04 -0.733383
4.05 -0.714031
4.06 -0.684435
4.07 -0.651821
4.08 -0.621706
4.09 -0.599581
4.1 -0.587261
4.11 -0.587101
4.12 -0.598996
4.13 -0.621409
4.14 -0.65321
4.15 -0.690524
4.16 -0.730685
4.17 -0.769937
4.18 -0.805184
4.19 -0.832985
4.2 -0.851948
4.21 -0.858585
4.22 -0.85364
4.23 -0.835792
4.24 -0.805736
4.25 -0.764935
4.26 -0.713759
4.27 -0.655201
4.28 -0.590224
4.29 -0.521272
4.3 -0.449855
4.31 -0.377449
4.32 -0.305148
4.33 -0.233807
4.34 -0.163663
4.35 -0.0948802
4.36 -0.027247
4.37 0.0395768
4.38 0.105889
4.39 0.172007
4.4 0.237992
4.41 0.303667
4.42 0.368554
4.43 0.431675
4.44 0.492152
4.45 0.547853
4.46 0.597764
4.47 0.639586
4.48 0.671519
4.49 0.692499
4.5 0.699595
4.51 0.693624
4.52 0.672205
4.53 0.636538
4.54 0.586829
4.55 0.523616
4.56 0.449737
4.57 0.365736
4.58 0.275451
4.59 0.180925
4.6 0.0852266
4.61 -0.00911327
4.62 -0.0990399
4.63 -0.183038
4.64 -0.258427
4.65 -0.324565
4.66 -0.38058
4.67 -0.425775
4.68 -0.461576
4.69 -0.487321
4.7 -0.505635
4.71 -0.517338
4.72 -0.524387
4.73 -0.528608
4.74 -0.531608
4.75 -0.535
4.76 -0.540183
4.77 -0.548012
4.78 -0.559103
4.79 -0.573875
4.8 -0.591839
4.81 -0.61304
4.82 -0.636327
4.83 -0.661019
4.84 -0.68602
4.85 -0.710394
4.86 -0.732974
4.87 -0.753215
4.88 -0.770128
4.89 -0.783541
4.9 -0.79322
4.91 -0.799043
4.92 -0.801656
4.93 -0.801039
4.94 -0.798243
4.95 -0.793756
4.96 -0.788403
4.97 -0.782884
4.98 -0.777939
4.99 -0.774032
5 -0.771775
5.01 -0.771365
5.02 -0.77301
5.03 -0.776877
5.04 -0.782692
5.05 -0.790629
5.06 -0.800192
5.07 -0.811279
5.08 -0.823559
5.09 -0.836692
5.1 -0.850401
5.11 -0.864258
5.12 -0.877838
5.13 -0.890638
5.14 -0.902076
5.15 -0.911267
5.16 -0.917652
5.17 -0.919577
5.18 -0.916472
5.19 -0.906597
5.2 -0.888534
5.21 -0.861363
5.22 -0.822355
5.23 -0.771834
5.24 -0.707124
5.25 -0.628551
5.26 -0.535542
5.27 -0.427542
5.28 -0.306749
5.29 -0.172512
5.3 -0.0286544
5.31 0.123132
5.32 0.279292
5.33 0.436295
5.34 0.589661
5.35 0.735864
5.36 0.869471
5.37 0.987178
5.38 1.08515
5.39 1.15872
5.4 1.20805
5.41 1.22701
5.42 1.21887
5.43 1.18136
5.44 1.11611
5.45 1.02636
5.46 0.91243
5.47 0.780972
5.48 0.634089
5.49 0.477811
5.5 0.316501
5.51 0.155233
5.52 -0.00190194
5.53 -0.149547
5.54 -0.285526
5.55 -0.406132
5.56 -0.509501
5.57 -0.595499
5.58 -0.661711
5.59 -0.711266
5.6 -0.743241
5.61 -0.76088
5.62 -0.766019
5.63 -0.760729
5.64 -0.748349
5.65 -0.73039
5.66 -0.709732
5.67 -0.687846
5.68 -0.66615
5.69 -0.645354
5.7 -0.625887
5.71 -0.607377
5.72 -0.5893
5.73 -0.570654
5.74 -0.550377
5.75 -0.527067
5.76 -0.500045
5.77 -0.467664
5.78 -0.430078
5.79 -0.386665
5.8 -0.337811
5.81 -0.284472
5.82 -0.227477
5.83 -0.168843
5.84 -0.110384
5.85 -0.0543339
5.86 -0.00283319
5.87 0.0414313
5.88 0.0773972
5.89 0.10173
5.9 0.11473
5.91 0.114652
5.92 0.101421
5.93 0.0759938
5.94 0.037838
5.95 -0.0100804
5.96 -0.0672223
5.97 -0.130736
5.98 -0.198627
5.99 -0.268583
6 -0.338407
6.01 -0.405825
6.02 -0.46949
6.03 -0.527823
6.04 -0.579971
6.05 -0.62588
6.06 -0.664809
6.07 -0.698091
6.08 -0.725771
6.09 -0.749317
6.1 -0.769732
6.11 -0.788154
6.12 -0.80579
6.13 -0.823574
6.14 -0.842197
6.15 -0.86215
6.16 -0.883561
6.17 -0.906214
6.18 -0.929785
6.19 -0.953558
6.2 -0.976764
6.21 -0.998602
6.22 -1.01833
6.23 -1.03509
6.24 -1.04878
6.25 -1.0586
6.26 -1.06509
6.27 -1.06824
6.28 -1.06859
6.29 -1.06684
6.3 -1.06349
6.31 -1.05929
6.32 -1.05455
6.33 -1.04937
6.34 -1.0434
6.35 -1.03559
6.36 -1.02478
6.37 -1.00805
6.38 -0.983435
6.39 -0.947047
6.4 -0.894992
6.41 -0.824462
6.42 -0.728481
6.43 -0.606733
6.44 -0.452196
6.45 -0.264457
6.46 -0.0413464
6.47 0.21979
6.48 0.51433
6.49 0.845413
6.5 1.20437
6.51 1.58839
6.52 1.98983
6.53 2.40045
6.54 2.81098
6.55 3.21206
6.56 3.59172
6.57 3.94085
6.58 4.24982
6.59 4.50633
6.6 4.70883
6.61 4.84118
6.62 4.90838
6.63 4.90268
6.64 4.82477
6.65 4.68034
6.66 4.46574
6.67 4.19616
6.68 3.87259
6.69 3.50877
6.7 3.11386
6.71 2.69835
6.72 2.27444
6.73 1.85299
6.74 1.4438
6.75 1.05673
6.76 0.699934
6.77 0.377394
6.78 0.0985528
6.79 -0.139916
6.8 -0.331808
6.81 -0.481434
6.82 -0.590419
6.83 -0.660464
6.84 -0.699765
6.85 -0.709026
6.86 -0.697768
6.87 -0.669691
6.88 -0.630758
6.89 -0.585959
6.9 -0.539337
6.91 -0.494349
6.92 -0.453824
6.93 -0.419141
6.94 -0.391134
6.95 -0.370281
6.96 -0.355378
6.97 -0.346375
6.98 -0.341307
6.99 -0.339277
7 -0.338973
7.01 -0.339428
7.02 -0.339997
7.03 -0.340417
7.04 -0.340816
7.05 -0.341741
7.06 -0.343991
7.07 -0.348842
7.08 -0.357105
7.09 -0.370699
7.1 -0.38998
7.11 -0.416206
7.12 -0.449807
7.13 -0.490423
7.14 -0.538474
7.15 -0.59212
7.16 -0.650715
7.17 -0.712132
7.18 -0.774571
7.19 -0.835742
7.2 -0.893868
7.21 -0.946202
7.22 -0.991794
7.23 -1.02879
7.24 -1.05634
7.25 -1.07465
7.26 -1.08278
7.27 -1.08279
7.28 -1.07492
7.29 -1.06141
7.3 -1.04395
7.31 -1.02456
7.32 -1.00519
7.33 -0.98783
7.34 -0.973628
7.35 -0.963745
7.36 -0.958541
7.37 -0.957532
7.38 -0.960233
7.39 -0.9647
7.4 -0.969011
7.41 -0.970556
7.42 -0.966687
7.43 -0.953824
7.44 -0.93033
7.45 -0.891484
7.46 -0.837124
7.47 -0.764444
7.48 -0.672671
7.49 -0.562809
7.5 -0.433434
7.51 -0.288768
7.52 -0.129425
7.53 0.0401374
7.54 0.216419
7.55 0.394997
7.56 0.571491
7.57 0.740337
7.58 0.898043
7.59 1.03966
7.6 1.16137
7.61 1.26153
7.62 1.33475
7.63 1.38328
7.64 1.40331
7.65 1.39719
7.66 1.36567
7.67 1.30928
7.68 1.23287
7.69 1.13641
7.7 1.02579
7.71 0.903255
7.72 0.772768
7.73 0.637958
7.74 0.502101
7.75 0.368291
7.76 0.239679
7.77 0.118426
7.78 0.0065017
7.79 -0.0937081
7.8 -0.182314
7.81 -0.256386
7.82 -0.317271
7.83 -0.363687
7.84 -0.395806
7.85 -0.414721
7.86 -0.419342
7.87 -0.412347
7.88 -0.393284
7.89 -0.364306
7.9 -0.326679
7.91 -0.281746
7.92 -0.231962
7.93 -0.178789
7.94 -0.124818
7.95 -0.0721466
7.96 -0.0232072
7.97 0.020221
7.98 0.0550416
7.99 0.0806487
8 0.0942374
8.01 0.0954346
8.02 0.0834539
8.03 0.0572572
8.04 0.0186381
8.05 -0.0335237
8.06 -0.0961217
8.07 -0.168236
8.08 -0.247437
8.09 -0.331109
8.1 -0.416874
8.11 -0.501967
8.12 -0.58373
8.13 -0.660074
8.14 -0.729224
8.15 -0.789208
8.16 -0.840245
8.17 -0.880554
8.18 -0.91183
8.19 -0.934165
8.2 -0.948993
8.21 -0.958179
8.22 -0.962994
8.23 -0.965724
8.24 -0.967781
8.25 -0.970576
8.26 -0.974895
8.27 -0.981102
8.28 -0.9886
8.29 -0.996289
8.3 -1.00224
8.31 -1.00381
8.32 -0.997637
8.33 -0.980968
8.34 -0.948104
8.35 -0.897651
8.36 -0.823701
8.37 -0.724729
8.38 -0.598388
8.39 -0.441468
8.4 -0.256992
8.41 -0.0414597
8.42 0.198897
8.43 0.462617
8.44 0.744433
8.45 1.03806
8.46 1.33743
8.47 1.63478
8.48 1.92187
8.49 2.19133
8.5 2.43603
8.51 2.64671
8.52 2.82154
8.53 2.94908
8.54 3.03179
8.55 3.06412
8.56 3.04575
8.57 2.98053
8.58 2.86502
8.59 2.70975
8.6 2.51483
8.61 2.28934
8.62 2.03939
8.63 1.77151
8.64 1.4943
8.65 1.21427
8.66 0.938555
8.67 0.673379
8.68 0.424393
8.69 0.194498
8.7 -0.0101018
8.71 -0.190884
8.72 -0.343817
8.73 -0.470926
8.74 -0.573013
8.75 -0.650579
8.76 -0.708514
8.77 -0.746868
8.78 -0.771346
8.79 -0.784064
8.8 -0.788579
8.81 -0.788097
8.82 -0.785015
8.83 -0.781842
8.84 -0.780413
8.85 -0.781968
8.86 -0.787285
8.87 -0.797009
8.88 -0.810634
8.89 -0.828395
8.9 -0.849148
8.91 -0.872365
8.92 -0.897093
8.93 -0.922453
8.94 -0.947592
8.95 -0.971865
8.96 -0.99458
8.97 -1.01543
8.98 -1.03421
8.99 -1.05071
9 -1.06526
9.01 -1.07777
9.02 -1.08878
9.03 -1.09847
9.04 -1.10717
9.05 -1.11517
9.06 -1.12254
9.07 -1.12943
9.08 -1.13566
9.09 -1.14104
9.1 -1.14519
9.11 -1.14745
9.12 -1.14743
9.13 -1.14396
9.14 -1.13669
9.15 -1.12455
9.16 -1.10675
9.17 -1.08304
9.18 -1.05199
9.19 -1.01425
9.2 -0.968841
9.21 -0.916375
9.22 -0.857167
9.23 -0.791513
9.24 -0.720951
9.25 -0.646
9.26 -0.568637
9.27 -0.490231
9.28 -0.412678
9.29 -0.337565
9.3 -0.267306
9.31 -0.202912
9.32 -0.146785
9.33 -0.099824
9.34 -0.0631046
9.35 -0.0381451
9.36 -0.0240241
9.37 -0.0225002
9.38 -0.031554
9.39 -0.0511764
9.4 -0.0800339
9.41 -0.116199
9.42 -0.15865
9.43 -0.204682
9.44 -0.252677
9.45 -0.300409
9.46 -0.346119
9.47 -0.387782
9.48 -0.424555
9.49 -0.454444
9.5 -0.477636
9.51 -0.493381
9.52 -0.501861
9.53 -0.504008
9.54 -0.499967
9.55 -0.491704
9.56 -0.480101
9.57 -0.466945
9.58 -0.453645
9.59 -0.441818
9.6 -0.432487
9.61 -0.427264
9.62 -0.426434
9.63 -0.43079
9.64 -0.440502
9.65 -0.455111
9.66 -0.474811
9.67 -0.498289
9.68 -0.525197
9.69 -0.554378
9.7 -0.585003
9.71 -0.61623
9.72 -0.647346
9.73 -0.677723
9.74 -0.707099
9.75 -0.735247
9.76 -0.762166
9.77 -0.788033
9.78 -0.812878
9.79 -0.836938
9.8 -0.860067
9.81 -0.882014
9.82 -0.902185
9.83 -0.919275
9.84 -0.932228
9.85 -0.93809
9.86 -0.935193
9.87 -0.920006
9.88 -0.888928
9.89 -0.839749
9.9 -0.765825
9.91 -0.667224
9.92 -0.537603
9.93 -0.3763
9.94 -0.181561
9.95 0.0497372
9.96 0.313311
9.97 0.612666
9.98 0.94044
9.99 1.29463
10 1.66926
10.01 2.05707
10.02 2.45122
10.03 2.84289
10.04 3.2228
10.05 3.5824
10.06 3.91361
10.07 4.20547
10.08 4.45569
10.09 4.65076
10.1 4.79284
10.11 4.87516
10.12 4.8963
10.13 4.86051
10.14 4.76232
10.15 4.61393
10.16 4.4144
10.17 4.17385
10.18 3.8991
10.19 3.59694
10.2 3.27803
10.21 2.94898
10.22 2.61914
10.23 2.29558
10.24 1.98542
10.25 1.69275
10.26 1.42489
10.27 1.18128
10.28 0.966682
10.29 0.779695
10.3 0.619707
10.31 0.486631
10.32 0.375223
10.33 0.28553
10.34 0.211351
10.35 0.15026
10.36 0.0982998
10.37 0.0517964
10.38 0.0080046
10.39 -0.0359139
10.4 -0.0820445
10.41 -0.131744
10.42 -0.185795
10.43 -0.244806
10.44 -0.308033
10.45 -0.375448
10.46 -0.445569
10.47 -0.517447
10.48 -0.589669
10.49 -0.661016
10.5 -0.729906
10.51 -0.795573
10.52 -0.856602
10.53 -0.912455
10.54 -0.962581
10.55 -1.00615
10.56 -1.0437
10.57 -1.07419
10.58 -1.09855
10.59 -1.11649
10.6 -1.12822
10.61 -1.13434
10.62 -1.13434
10.63 -1.12928
10.64 -1.11874
10.65 -1.1033
10.66 -1.08318
10.67 -1.05833
10.68 -1.02958
10.69 -0.996699
10.7 -0.960672
10.71 -0.921819
10.72 -0.880864
10.73 -0.838635
10.74 -0.795936
10.75 -0.753724
10.76 -0.713059
10.77 -0.674884
10.78 -0.640099
10.79 -0.609958
10.8 -0.584692
10.81 -0.565853
10.82 -0.553192
10.83 -0.547484
10.84 -0.548916
10.85 -0.556993
10.86 -0.572397
10.87 -0.593717
10.88 -0.621095
10.89 -0.653387
10.9 -0.689807
10.91 -0.729588
10.92 -0.771455
10.93 -0.814614
10.94 -0.857892
10.95 -0.900364
10.96 -0.941041
10.97 -0.979306
10.98 -1.01401
10.99 -1.04509
11 -1.07166
11.01 -1.09372
11.02 -1.11117
11.03 -1.12374
11.04 -1.1322
11.05 -1.1363
11.06 -1.1371
11.07 -1.13502
11.08 -1.13088
11.09 -1.12555
11.1 -1.11985
11.11 -1.11463
11.12 -1.11072
11.13 -1.10871
11.14 -1.10901
11.15 -1.11203
11.16 -1.11739
11.17 -1.12502
11.18 -1.13386
11.19 -1.1429
11.2 -1.15049
11.21 -1.15508
11.22 -1.15378
11.23 -1.14511
11.24 -1.12559
11.25 -1.09322
11.26 -1.04571
11.27 -0.979485
11.28 -0.894883
11.29 -0.787368
11.3 -0.658867
11.31 -0.507801
11.32 -0.334777
11.33 -0.142529
11.34 0.0691361
11.35 0.294614
11.36 0.531768
11.37 0.775264
11.38 1.02055
11.39 1.26186
11.4 1.49474
11.41 1.71186
11.42 1.90998
11.43 2.08328
11.44 2.22722
11.45 2.3408
11.46 2.41685
11.47 2.45921
11.48 2.46328
11.49 2.43205
11.5 2.36709
11.51 2.26887
11.52 2.14415
11.53 1.99312
11.54 1.82348
11.55 1.63857
11.56 1.44367
11.57 1.24381
11.58 1.04351
11.59 0.846829
11.6 0.657905
11.61 0.479424
11.62 0.313504
11.63 0.162834
11.64 0.0265195
11.65 -0.0929047
11.66 -0.197858
11.67 -0.288238
11.68 -0.365413
11.69 -0.431717
11.7 -0.487613
11.71 -0.536308
11.72 -0.578732
11.73 -0.616988
11.74 -0.652413
11.75 -0.686095
11.76 -0.718994
11.77 -0.751537
11.78 -0.783922
11.79 -0.815972
11.8 -0.847173
11.81 -0.876928
11.82 -0.903936
11.83 -0.927505
11.84 -0.94595
11.85 -0.958216
11.86 -0.963116
11.87 -0.958709
11.88 -0.944977
11.89 -0.919309
11.9 -0.882291
11.91 -0.832589
11.92 -0.769778
11.93 -0.694717
11.94 -0.605945
11.95 -0.505982
11.96 -0.394459
11.97 -0.273487
11.98 -0.144683
11.99 -0.00977547
12 0.128407
12.01 0.267509
12.02 0.404602
12.03 0.536758
12.04 0.660761
12.05 0.774604
12.06 0.873729
12.07 0.957895
12.08 1.02321
12.09 1.06917
12.1 1.09494
12.11 1.09861
12.12 1.08291
12.13 1.04574
12.14 0.991208
12.15 0.920174
12.16 0.835365
12.17 0.740386
12.18 0.637424
12.19 0.530774
12.2 0.42331
12.21 0.318318
12.22 0.218334
12.23 0.126311
12.24 0.0429542
12.25 -0.0291086
12.26 -0.0907367
12.27 -0.141422
12.28 -0.181961
12.29 -0.214247
12.3 -0.239083
12.31 -0.259499
12.32 -0.277215
12.33 -0.294732
12.34 -0.313974
12.35 -0.337069
12.36 -0.364827
12.37 -0.398914
12.38 -0.438826
