# xPDFsuite Configuration #
[PDF]
wavelength = 0.1432
dataformat = twotheta
inputfile = 1_1Pd_CeO2_cycle-00294.chi
backgroundfile = background-00000.chi
mode = xray
bgscale = 1.007
composition = CeO2
outputtype = gr
qmaxinst = 28.8974762299
qmin = 0.5
qmax = 27.9
rmax = 50.0
rmin = 0.0
rstep = 0.01
rpoly = 1.8657

[Misc]
inputdir = G:/SankarDec16/1Pd/Chi
savedir = D:/DATA/APS_CeO2/1Pd
backgroundfilefull = G:/SankarDec16/Background/background-00000.chi

#### start data
#S 1
#L r($\AA$)  G($\AA^{-2}$)
0 0
0.01 -0.00616339
0.02 -0.0118636
0.03 -0.0166238
0.04 -0.0200843
0.05 -0.0220449
0.06 -0.0221834
0.07 -0.0207131
0.08 -0.0175292
0.09 -0.0130393
0.1 -0.00752491
0.11 -0.00141755
0.12 0.00481066
0.13 0.0106315
0.14 0.015668
0.15 0.0194603
0.16 0.0217373
0.17 0.0223893
0.18 0.021194
0.19 0.0184637
0.2 0.014207
0.21 0.00889843
0.22 0.00288761
0.23 -0.00334127
0.24 -0.00934268
0.25 -0.0145475
0.26 -0.0186821
0.27 -0.0213251
0.28 -0.022306
0.29 -0.021611
0.3 -0.0191281
0.31 -0.0152545
0.32 -0.0101119
0.33 -0.00422017
0.34 0.00201878
0.35 0.00808997
0.36 0.0135951
0.37 0.0179501
0.38 0.0209975
0.39 0.0223736
0.4 0.0220168
0.41 0.0200099
0.42 0.0163568
0.43 0.0115216
0.44 0.00573356
0.45 -0.000465293
0.46 -0.00663953
0.47 -0.0122665
0.48 -0.0170138
0.49 -0.0203095
0.5 -0.0221191
0.51 -0.0221543
0.52 -0.0204652
0.53 -0.0172278
0.54 -0.0125624
0.55 -0.00697868
0.56 -0.00080348
0.57 0.00542369
0.58 0.011254
0.59 0.0161809
0.6 0.0199534
0.61 0.0220381
0.62 0.0225258
0.63 0.0212169
0.64 0.0182713
0.65 0.0139508
0.66 0.00848682
0.67 0.00241171
0.68 -0.00386516
0.69 -0.00983124
0.7 -0.015045
0.71 -0.019039
0.72 -0.0216555
0.73 -0.0224238
0.74 -0.0215561
0.75 -0.0189501
0.76 -0.014868
0.77 -0.0096446
0.78 -0.00361075
0.79 0.00270382
0.8 0.00882826
0.81 0.0143014
0.82 0.0187114
0.83 0.0216534
0.84 0.0230708
0.85 0.0225805
0.86 0.0205043
0.87 0.0168431
0.88 0.0119475
0.89 0.00620614
0.9 3.05744e-05
0.91 -0.00608327
0.92 -0.0116338
0.93 -0.0162416
0.94 -0.0195559
0.95 -0.0212693
0.96 -0.0214373
0.97 -0.019811
0.98 -0.0168103
0.99 -0.0125644
1 -0.00750871
1.01 -0.00207547
1.02 0.00323679
1.03 0.00800356
1.04 0.0116948
1.05 0.0140515
1.06 0.0148079
1.07 0.0137864
1.08 0.0111903
1.09 0.00694648
1.1 0.00160834
1.11 -0.00451741
1.12 -0.0108629
1.13 -0.0169133
1.14 -0.0219994
1.15 -0.0257517
1.16 -0.0275062
1.17 -0.0270989
1.18 -0.0242803
1.19 -0.0189214
1.2 -0.0113867
1.21 -0.00163034
1.22 0.00958019
1.23 0.0218363
1.24 0.0344056
1.25 0.0466339
1.26 0.0576784
1.27 0.0670605
1.28 0.0739193
1.29 0.0779948
1.3 0.0788932
1.31 0.0763124
1.32 0.0705995
1.33 0.0614063
1.34 0.0495808
1.35 0.0353203
1.36 0.0193162
1.37 0.00223014
1.38 -0.0152713
1.39 -0.0324899
1.4 -0.0486934
1.41 -0.0633693
1.42 -0.0760063
1.43 -0.0860994
1.44 -0.0936591
1.45 -0.0980677
1.46 -0.0997589
1.47 -0.0985268
1.48 -0.0946231
1.49 -0.0883577
1.5 -0.0797925
1.51 -0.0695135
1.52 -0.0576319
1.53 -0.0446381
1.54 -0.030813
1.55 -0.0164839
1.56 -0.00198135
1.57 0.0123726
1.58 0.0263027
1.59 0.0394716
1.6 0.0515769
1.61 0.0623832
1.62 0.0714057
1.63 0.0785951
1.64 0.0834017
1.65 0.0857858
1.66 0.0854918
1.67 0.0822713
1.68 0.0763701
1.69 0.0673743
1.7 0.0558981
1.71 0.0419631
1.72 0.0260542
1.73 0.00869763
1.74 -0.00960409
1.75 -0.0281268
1.76 -0.0461858
1.77 -0.0631328
1.78 -0.078348
1.79 -0.0911667
1.8 -0.101451
1.81 -0.108445
1.82 -0.112542
1.83 -0.113538
1.84 -0.111811
1.85 -0.107869
1.86 -0.102135
1.87 -0.0954884
1.88 -0.0886034
1.89 -0.0822905
1.9 -0.0772443
1.91 -0.0742029
1.92 -0.0733926
1.93 -0.075535
1.94 -0.0802654
1.95 -0.087684
1.96 -0.0973053
1.97 -0.108502
1.98 -0.120572
1.99 -0.132557
2 -0.143414
2.01 -0.152223
2.02 -0.158046
2.03 -0.159854
2.04 -0.157461
2.05 -0.149618
2.06 -0.136922
2.07 -0.118934
2.08 -0.096098
2.09 -0.0690638
2.1 -0.0381381
2.11 -0.00457233
2.12 0.0310828
2.13 0.0677515
2.14 0.104709
2.15 0.14122
2.16 0.176873
2.17 0.211168
2.18 0.244214
2.19 0.276002
2.2 0.306878
2.21 0.337268
2.22 0.367685
2.23 0.398601
2.24 0.430544
2.25 0.463723
2.26 0.498245
2.27 0.533965
2.28 0.57034
2.29 0.606589
2.3 0.641664
2.31 0.674142
2.32 0.702457
2.33 0.725296
2.34 0.740196
2.35 0.74674
2.36 0.742382
2.37 0.727051
2.38 0.699913
2.39 0.660377
2.4 0.610057
2.41 0.548173
2.42 0.477867
2.43 0.400215
2.44 0.31788
2.45 0.233388
2.46 0.149561
2.47 0.0688213
2.48 -0.00575886
2.49 -0.0724515
2.5 -0.129395
2.51 -0.174826
2.52 -0.209329
2.53 -0.231
2.54 -0.242322
2.55 -0.243466
2.56 -0.236503
2.57 -0.223652
2.58 -0.206875
2.59 -0.188928
2.6 -0.172107
2.61 -0.158491
2.62 -0.149816
2.63 -0.147727
2.64 -0.152258
2.65 -0.164794
2.66 -0.183812
2.67 -0.209071
2.68 -0.238995
2.69 -0.271885
2.7 -0.305969
2.71 -0.339304
2.72 -0.369873
2.73 -0.396286
2.74 -0.417278
2.75 -0.431748
2.76 -0.44008
2.77 -0.441457
2.78 -0.437591
2.79 -0.429104
2.8 -0.417703
2.81 -0.405062
2.82 -0.393078
2.83 -0.383293
2.84 -0.377625
2.85 -0.376963
2.86 -0.382169
2.87 -0.393815
2.88 -0.411056
2.89 -0.434024
2.9 -0.460708
2.91 -0.489932
2.92 -0.519682
2.93 -0.548178
2.94 -0.573125
2.95 -0.593377
2.96 -0.60683
2.97 -0.613099
2.98 -0.611616
2.99 -0.602215
3 -0.586329
3.01 -0.564251
3.02 -0.53854
3.03 -0.510812
3.04 -0.483463
3.05 -0.458477
3.06 -0.438453
3.07 -0.424388
3.08 -0.418463
3.09 -0.420752
3.1 -0.431578
3.11 -0.450759
3.12 -0.476477
3.13 -0.508022
3.14 -0.542558
3.15 -0.578153
3.16 -0.612269
3.17 -0.642942
3.18 -0.667572
3.19 -0.685548
3.2 -0.695009
3.21 -0.696445
3.22 -0.690115
3.23 -0.676967
3.24 -0.659271
3.25 -0.638817
3.26 -0.618554
3.27 -0.60114
3.28 -0.589312
3.29 -0.584921
3.3 -0.590859
3.31 -0.606838
3.32 -0.634567
3.33 -0.672483
3.34 -0.719505
3.35 -0.773601
3.36 -0.831507
3.37 -0.890091
3.38 -0.945737
3.39 -0.994715
3.4 -1.0337
3.41 -1.0607
3.42 -1.0722
3.43 -1.06935
3.44 -1.05039
3.45 -1.01806
3.46 -0.974299
3.47 -0.922296
3.48 -0.866521
3.49 -0.811447
3.5 -0.761508
3.51 -0.721381
3.52 -0.694748
3.53 -0.68338
3.54 -0.690458
3.55 -0.713244
3.56 -0.751643
3.57 -0.800258
3.58 -0.853989
3.59 -0.905058
3.6 -0.946177
3.61 -0.965057
3.62 -0.955358
3.63 -0.905243
3.64 -0.806383
3.65 -0.654417
3.66 -0.437207
3.67 -0.160516
3.68 0.183914
3.69 0.587491
3.7 1.04604
3.71 1.5523
3.72 2.09116
3.73 2.65254
3.74 3.21787
3.75 3.77122
3.76 4.29447
3.77 4.77375
3.78 5.18616
3.79 5.52735
3.8 5.77569
3.81 5.93024
3.82 5.98425
3.83 5.93158
3.84 5.78504
3.85 5.53504
3.86 5.20513
3.87 4.79939
3.88 4.33449
3.89 3.82725
3.9 3.29145
3.91 2.74641
3.92 2.20763
3.93 1.68978
3.94 1.20535
3.95 0.767555
3.96 0.378748
3.97 0.0531462
3.98 -0.215984
3.99 -0.423911
4 -0.57508
4.01 -0.676686
4.02 -0.730608
4.03 -0.750521
4.04 -0.740802
4.05 -0.712892
4.06 -0.674214
4.07 -0.632632
4.08 -0.594193
4.09 -0.565145
4.1 -0.547589
4.11 -0.544409
4.12 -0.555721
4.13 -0.57996
4.14 -0.616203
4.15 -0.660021
4.16 -0.708639
4.17 -0.75763
4.18 -0.803377
4.19 -0.841772
4.2 -0.870834
4.21 -0.886287
4.22 -0.888514
4.23 -0.875613
4.24 -0.84799
4.25 -0.80708
4.26 -0.752962
4.27 -0.689155
4.28 -0.616648
4.29 -0.53854
4.3 -0.456827
4.31 -0.373623
4.32 -0.290658
4.33 -0.209534
4.34 -0.130947
4.35 -0.0556696
4.36 0.0161375
4.37 0.0847017
4.38 0.149932
4.39 0.21258
4.4 0.272619
4.41 0.330445
4.42 0.385986
4.43 0.438811
4.44 0.488684
4.45 0.53412
4.46 0.574645
4.47 0.608554
4.48 0.634494
4.49 0.651604
4.5 0.657422
4.51 0.652469
4.52 0.634571
4.53 0.604484
4.54 0.562124
4.55 0.507615
4.56 0.443195
4.57 0.368906
4.58 0.287998
4.59 0.201967
4.6 0.11339
4.61 0.0245102
4.62 -0.0621402
4.63 -0.144916
4.64 -0.221459
4.65 -0.290847
4.66 -0.352059
4.67 -0.404158
4.68 -0.448044
4.69 -0.482751
4.7 -0.510301
4.71 -0.531059
4.72 -0.54648
4.73 -0.558031
4.74 -0.566781
4.75 -0.574286
4.76 -0.58153
4.77 -0.589449
4.78 -0.598642
4.79 -0.609566
4.8 -0.622124
4.81 -0.636421
4.82 -0.651865
4.83 -0.668069
4.84 -0.684394
4.85 -0.700285
4.86 -0.715044
4.87 -0.72837
4.88 -0.739705
4.89 -0.749007
4.9 -0.756209
4.91 -0.761347
4.92 -0.764869
4.93 -0.766923
4.94 -0.768151
4.95 -0.768941
4.96 -0.769795
4.97 -0.771085
4.98 -0.773246
4.99 -0.776385
5 -0.780769
5.01 -0.786323
5.02 -0.793002
5.03 -0.800704
5.04 -0.809151
5.05 -0.818223
5.06 -0.827621
5.07 -0.837184
5.08 -0.846729
5.09 -0.856133
5.1 -0.865244
5.11 -0.873987
5.12 -0.88215
5.13 -0.889545
5.14 -0.895843
5.15 -0.900453
5.16 -0.902956
5.17 -0.902018
5.18 -0.897054
5.19 -0.886484
5.2 -0.868883
5.21 -0.843236
5.22 -0.806828
5.23 -0.759707
5.24 -0.699104
5.25 -0.625065
5.26 -0.536806
5.27 -0.43351
5.28 -0.317171
5.29 -0.186848
5.3 -0.0462506
5.31 0.103134
5.32 0.257853
5.33 0.414383
5.34 0.568373
5.35 0.716115
5.36 0.85221
5.37 0.973147
5.38 1.07496
5.39 1.15279
5.4 1.20661
5.41 1.23006
5.42 1.22624
5.43 1.19266
5.44 1.13079
5.45 1.04377
5.46 0.931721
5.47 0.801341
5.48 0.65459
5.49 0.497579
5.5 0.334689
5.51 0.171029
5.52 0.0108614
5.53 -0.140432
5.54 -0.280452
5.55 -0.405384
5.56 -0.51319
5.57 -0.603587
5.58 -0.673977
5.59 -0.72738
5.6 -0.762681
5.61 -0.78304
5.62 -0.790183
5.63 -0.786052
5.64 -0.774021
5.65 -0.755425
5.66 -0.733277
5.67 -0.708999
5.68 -0.684088
5.69 -0.659376
5.7 -0.635347
5.71 -0.611854
5.72 -0.588506
5.73 -0.564525
5.74 -0.539046
5.75 -0.510916
5.76 -0.479608
5.77 -0.44379
5.78 -0.403675
5.79 -0.35886
5.8 -0.309821
5.81 -0.257495
5.82 -0.202849
5.83 -0.147659
5.84 -0.0937485
5.85 -0.0430703
5.86 0.00244336
5.87 0.0403828
5.88 0.0699957
5.89 0.0883016
5.9 0.095867
5.91 0.0912789
5.92 0.0747172
5.93 0.0472536
5.94 0.00865734
5.95 -0.0382754
5.96 -0.0928595
5.97 -0.152497
5.98 -0.215365
5.99 -0.279403
6 -0.34281
6.01 -0.403647
6.02 -0.460977
6.03 -0.513616
6.04 -0.561079
6.05 -0.603533
6.06 -0.640647
6.07 -0.673668
6.08 -0.702883
6.09 -0.729552
6.1 -0.754546
6.11 -0.778786
6.12 -0.80304
6.13 -0.827926
6.14 -0.853633
6.15 -0.880221
6.16 -0.907366
6.17 -0.934556
6.18 -0.960972
6.19 -0.98592
6.2 -1.0083
6.21 -1.02749
6.22 -1.04282
6.23 -1.05363
6.24 -1.06025
6.25 -1.06218
6.26 -1.06052
6.27 -1.05568
6.28 -1.04873
6.29 -1.04071
6.3 -1.03265
6.31 -1.02535
6.32 -1.01948
6.33 -1.01505
6.34 -1.01165
6.35 -1.0081
6.36 -1.00279
6.37 -0.992587
6.38 -0.974947
6.39 -0.945571
6.4 -0.900074
6.41 -0.835291
6.42 -0.743742
6.43 -0.625037
6.44 -0.471808
6.45 -0.283732
6.46 -0.0586946
6.47 0.205831
6.48 0.504808
6.49 0.841136
6.5 1.20563
6.51 1.59506
6.52 2.00133
6.53 2.41589
6.54 2.82901
6.55 3.23129
6.56 3.61047
6.57 3.95759
6.58 4.26309
6.59 4.5149
6.6 4.71186
6.61 4.83817
6.62 4.89931
6.63 4.88799
6.64 4.80535
6.65 4.65735
6.66 4.44083
6.67 4.17093
6.68 3.84892
6.69 3.48833
6.7 3.09815
6.71 2.68865
6.72 2.27155
6.73 1.8573
6.74 1.45519
6.75 1.07458
6.76 0.723136
6.77 0.404554
6.78 0.127757
6.79 -0.110498
6.8 -0.304304
6.81 -0.457732
6.82 -0.572231
6.83 -0.649241
6.84 -0.696426
6.85 -0.714095
6.86 -0.711182
6.87 -0.690877
6.88 -0.658624
6.89 -0.619092
6.9 -0.575773
6.91 -0.532189
6.92 -0.490839
6.93 -0.453324
6.94 -0.420626
6.95 -0.393454
6.96 -0.371129
6.97 -0.353938
6.98 -0.340517
6.99 -0.330438
7 -0.322899
7.01 -0.317257
7.02 -0.313385
7.03 -0.311004
7.04 -0.31056
7.05 -0.312432
7.06 -0.317309
7.07 -0.326291
7.08 -0.339734
7.09 -0.359298
7.1 -0.384814
7.11 -0.417159
7.12 -0.456337
7.13 -0.501713
7.14 -0.553302
7.15 -0.609263
7.16 -0.668715
7.17 -0.729667
7.18 -0.790418
7.19 -0.848832
7.2 -0.903482
7.21 -0.951841
7.22 -0.993342
7.23 -1.02642
7.24 -1.05052
7.25 -1.06602
7.26 -1.07223
7.27 -1.07118
7.28 -1.0632
7.29 -1.05038
7.3 -1.03428
7.31 -1.01674
7.32 -0.999447
7.33 -0.984169
7.34 -0.971813
7.35 -0.963332
7.36 -0.958925
7.37 -0.95806
7.38 -0.960145
7.39 -0.963384
7.4 -0.965897
7.41 -0.965296
7.42 -0.959131
7.43 -0.944082
7.44 -0.918718
7.45 -0.878628
7.46 -0.823755
7.47 -0.751481
7.48 -0.661101
7.49 -0.553559
7.5 -0.42746
7.51 -0.286753
7.52 -0.131924
7.53 0.0328789
7.54 0.204415
7.55 0.378583
7.56 0.551211
7.57 0.717089
7.58 0.87278
7.59 1.01352
7.6 1.13551
7.61 1.23699
7.62 1.31258
7.63 1.3642
7.64 1.38789
7.65 1.38566
7.66 1.35801
7.67 1.30518
7.68 1.23185
7.69 1.13769
7.7 1.0286
7.71 0.906719
7.72 0.776092
7.73 0.640502
7.74 0.503364
7.75 0.368071
7.76 0.238031
7.77 0.115688
7.78 0.00325524
7.79 -0.0966112
7.8 -0.183981
7.81 -0.255705
7.82 -0.313309
7.83 -0.355558
7.84 -0.382871
7.85 -0.396647
7.86 -0.396164
7.87 -0.384476
7.88 -0.3616
7.89 -0.330027
7.9 -0.29134
7.91 -0.247245
7.92 -0.200123
7.93 -0.151759
7.94 -0.104349
7.95 -0.0598909
7.96 -0.0204076
7.97 0.0128166
7.98 0.0372116
7.99 0.0527628
8 0.0573321
8.01 0.0510631
8.02 0.0336457
8.03 0.00459972
8.04 -0.0343234
8.05 -0.0837052
8.06 -0.140902
8.07 -0.205009
8.08 -0.274033
8.09 -0.345951
8.1 -0.418895
8.11 -0.490907
8.12 -0.56005
8.13 -0.624942
8.14 -0.684428
8.15 -0.737262
8.16 -0.783773
8.17 -0.822907
8.18 -0.856009
8.19 -0.88331
8.2 -0.905921
8.21 -0.925155
8.22 -0.941935
8.23 -0.957653
8.24 -0.973104
8.25 -0.988897
8.26 -1.00515
8.27 -1.02146
8.28 -1.03693
8.29 -1.04968
8.3 -1.05791
8.31 -1.0587
8.32 -1.04883
8.33 -1.02593
8.34 -0.984438
8.35 -0.923768
8.36 -0.838418
8.37 -0.727608
8.38 -0.589578
8.39 -0.421802
8.4 -0.227701
8.41 -0.00446858
8.42 0.241588
8.43 0.508664
8.44 0.791443
8.45 1.08384
8.46 1.37971
8.47 1.67186
8.48 1.95223
8.49 2.21396
8.5 2.45033
8.51 2.65252
8.52 2.81909
8.53 2.939
8.54 3.01493
8.55 3.04158
8.56 3.01876
8.57 2.95028
8.58 2.83283
8.59 2.67668
8.6 2.48193
8.61 2.25743
8.62 2.0091
8.63 1.74334
8.64 1.46853
8.65 1.19109
8.66 0.918018
8.67 0.65549
8.68 0.409112
8.69 0.181787
8.7 -0.0202655
8.71 -0.19849
8.72 -0.348816
8.73 -0.473239
8.74 -0.572545
8.75 -0.647236
8.76 -0.702236
8.77 -0.737646
8.78 -0.759253
8.79 -0.76927
8.8 -0.77137
8.81 -0.768846
8.82 -0.764265
8.83 -0.760148
8.84 -0.758469
8.85 -0.760457
8.86 -0.766894
8.87 -0.778422
8.88 -0.794395
8.89 -0.815018
8.9 -0.838946
8.91 -0.865532
8.92 -0.893651
8.93 -0.922282
8.94 -0.950397
8.95 -0.977279
8.96 -1.0021
8.97 -1.02453
8.98 -1.04434
8.99 -1.06132
9 -1.07591
9.01 -1.08802
9.02 -1.09834
9.03 -1.10714
9.04 -1.11487
9.05 -1.1219
9.06 -1.12842
9.07 -1.13459
9.08 -1.14032
9.09 -1.14539
9.1 -1.14941
9.11 -1.15169
9.12 -1.15179
9.13 -1.14847
9.14 -1.14131
9.15 -1.12921
9.16 -1.11133
9.17 -1.0874
9.18 -1.05597
9.19 -1.01775
9.2 -0.971779
9.21 -0.918737
9.22 -0.859001
9.23 -0.792945
9.24 -0.722147
9.25 -0.6472
9.26 -0.570067
9.27 -0.492126
9.28 -0.415223
9.29 -0.340866
9.3 -0.271368
9.31 -0.207619
9.32 -0.151864
9.33 -0.104879
9.34 -0.0676212
9.35 -0.0414657
9.36 -0.0255076
9.37 -0.0213877
9.38 -0.0272269
9.39 -0.04307
9.4 -0.0677601
9.41 -0.0995846
9.42 -0.137789
9.43 -0.179923
9.44 -0.224709
9.45 -0.270166
9.46 -0.314765
9.47 -0.356771
9.48 -0.395292
9.49 -0.428606
9.5 -0.456632
9.51 -0.478577
9.52 -0.494356
9.53 -0.504537
9.54 -0.508924
9.55 -0.509014
9.56 -0.505215
9.57 -0.498893
9.58 -0.491081
9.59 -0.482935
9.6 -0.475456
9.61 -0.469808
9.62 -0.466551
9.63 -0.466442
9.64 -0.469909
9.65 -0.476912
9.66 -0.487952
9.67 -0.502332
9.68 -0.520189
9.69 -0.540909
9.7 -0.564121
9.71 -0.589518
9.72 -0.616506
9.73 -0.644964
9.74 -0.674424
9.75 -0.704736
9.76 -0.735677
9.77 -0.767021
9.78 -0.798513
9.79 -0.829762
9.8 -0.860146
9.81 -0.888858
9.82 -0.914845
9.83 -0.93627
9.84 -0.951948
9.85 -0.958448
9.86 -0.954308
9.87 -0.935946
9.88 -0.900011
9.89 -0.844714
9.9 -0.763751
9.91 -0.65781
9.92 -0.521077
9.93 -0.353441
9.94 -0.153612
9.95 0.0809878
9.96 0.345996
9.97 0.644432
9.98 0.969212
9.99 1.31832
10 1.68609
10.01 2.06575
10.02 2.45086
10.03 2.83331
10.04 3.20439
10.05 3.55618
10.06 3.8811
10.07 4.16879
10.08 4.41706
10.09 4.61292
10.1 4.75824
10.11 4.84625
10.12 4.87522
10.13 4.84883
10.14 4.7612
10.15 4.62376
10.16 4.43491
10.17 4.20408
10.18 3.93752
10.19 3.64129
10.2 3.32595
10.21 2.99742
10.22 2.66534
10.23 2.33667
10.24 2.01881
10.25 1.71637
10.26 1.43701
10.27 1.18101
10.28 0.953739
10.29 0.75455
10.3 0.583462
10.31 0.441147
10.32 0.322619
10.33 0.22868
10.34 0.152995
10.35 0.0933866
10.36 0.0457738
10.37 0.00606412
10.38 -0.0286043
10.39 -0.061879
10.4 -0.0962572
10.41 -0.133826
10.42 -0.175956
10.43 -0.223941
10.44 -0.277424
10.45 -0.337078
10.46 -0.401499
10.47 -0.470076
10.48 -0.54146
10.49 -0.614211
10.5 -0.686843
10.51 -0.757985
10.52 -0.826048
10.53 -0.889939
10.54 -0.948675
10.55 -1.00094
10.56 -1.04686
10.57 -1.0849
10.58 -1.11575
10.59 -1.13882
10.6 -1.15412
10.61 -1.1623
10.62 -1.16263
10.63 -1.15649
10.64 -1.14347
10.65 -1.12444
10.66 -1.09985
10.67 -1.06993
10.68 -1.03579
10.69 -0.997494
10.7 -0.95627
10.71 -0.912674
10.72 -0.86764
10.73 -0.822085
10.74 -0.777041
10.75 -0.733388
10.76 -0.692317
10.77 -0.654686
10.78 -0.621341
10.79 -0.593503
10.8 -0.571202
10.81 -0.555947
10.82 -0.547262
10.83 -0.545792
10.84 -0.551537
10.85 -0.563844
10.86 -0.583188
10.87 -0.608044
10.88 -0.638358
10.89 -0.672889
10.9 -0.710759
10.91 -0.751071
10.92 -0.792621
10.93 -0.834486
10.94 -0.875662
10.95 -0.915251
10.96 -0.952406
10.97 -0.986697
10.98 -1.01713
10.99 -1.04388
11 -1.06629
11.01 -1.08456
11.02 -1.09877
11.03 -1.1089
11.04 -1.11571
11.05 -1.11919
11.06 -1.1203
11.07 -1.11946
11.08 -1.1174
11.09 -1.1148
11.1 -1.11233
11.11 -1.11057
11.12 -1.11013
11.13 -1.11132
11.14 -1.11436
11.15 -1.11939
11.16 -1.126
11.17 -1.13388
11.18 -1.14211
11.19 -1.14965
11.2 -1.155
11.21 -1.15682
11.22 -1.15241
11.23 -1.14061
11.24 -1.1182
11.25 -1.08345
11.26 -1.03429
11.27 -0.96739
11.28 -0.883082
11.29 -0.777017
11.3 -0.650925
11.31 -0.503148
11.32 -0.334055
11.33 -0.14608
11.34 0.061303
11.35 0.282825
11.36 0.516741
11.37 0.757995
11.38 1.00226
11.39 1.24405
11.4 1.47877
11.41 1.69928
11.42 1.90197
11.43 2.08083
11.44 2.23094
11.45 2.35085
11.46 2.43287
11.47 2.48042
11.48 2.48835
11.49 2.45932
11.5 2.39466
11.51 2.2945
11.52 2.16586
11.53 2.00875
11.54 1.83144
11.55 1.63757
11.56 1.43304
11.57 1.22347
11.58 1.01414
11.59 0.809653
11.6 0.614932
11.61 0.433075
11.62 0.266534
11.63 0.118416
11.64 -0.0125256
11.65 -0.123534
11.66 -0.217804
11.67 -0.295643
11.68 -0.359213
11.69 -0.41167
11.7 -0.454459
11.71 -0.491525
11.72 -0.524806
11.73 -0.556972
11.74 -0.589819
11.75 -0.625013
11.76 -0.663096
11.77 -0.70485
11.78 -0.749527
11.79 -0.796496
11.8 -0.844307
11.81 -0.891347
11.82 -0.935188
11.83 -0.974174
11.84 -1.00543
11.85 -1.02716
11.86 -1.03757
11.87 -1.03399
11.88 -1.0168
11.89 -0.982904
11.9 -0.93391
11.91 -0.868933
11.92 -0.788554
11.93 -0.694776
11.94 -0.587331
11.95 -0.469879
11.96 -0.343344
11.97 -0.210716
11.98 -0.0743114
11.99 0.0632932
12 0.199642
12.01 0.331802
12.02 0.457904
12.03 0.575462
12.04 0.682303
12.05 0.777634
12.06 0.858135
12.07 0.924797
12.08 0.975087
12.09 1.00945
12.1 1.02779
12.11 1.02912
12.12 1.01576
12.13 0.986247
12.14 0.943558
12.15 0.888097
12.16 0.821484
12.17 0.746049
12.18 0.662654
12.19 0.574302
12.2 0.48242
12.21 0.389289
12.22 0.296659
12.23 0.206511
12.24 0.119958
12.25 0.038969
12.26 -0.0361423
12.27 -0.104382
12.28 -0.165385
12.29 -0.219687
12.3 -0.266709
12.31 -0.308082
12.32 -0.343996
12.33 -0.375853
12.34 -0.404712
12.35 -0.431623
12.36 -0.457773
12.37 -0.484048
12.38 -0.511122
12.39 -0.539429
12.4 -0.569061
