# xPDFsuite Configuration #
[PDF]
wavelength = 0.1432
dataformat = twotheta
inputfile = 1_1Pd_CeO2_cycle-00157.chi
backgroundfile = background-00000.chi
mode = xray
bgscale = 1.007
composition = CeO2
outputtype = gr
qmaxinst = 28.8974762299
qmin = 0.5
qmax = 27.9
rmax = 50.0
rmin = 0.0
rstep = 0.01
rpoly = 1.8657

[Misc]
inputdir = G:/SankarDec16/1Pd/Chi
savedir = D:/DATA/APS_CeO2/1Pd
backgroundfilefull = G:/SankarDec16/Background/background-00000.chi

#### start data
#S 1
#L r($\AA$)  G($\AA^{-2}$)
0 0
0.01 -0.00797854
0.02 -0.0153576
0.03 -0.0215196
0.04 -0.0259994
0.05 -0.0285377
0.06 -0.0287173
0.07 -0.0268143
0.08 -0.0226932
0.09 -0.0168815
0.1 -0.00974352
0.11 -0.00183798
0.12 0.00622399
0.13 0.0137585
0.14 0.0202777
0.15 0.0251862
0.16 0.0281329
0.17 0.0289757
0.18 0.027427
0.19 0.023891
0.2 0.0183787
0.21 0.0115044
0.22 0.0037211
0.23 -0.00434448
0.24 -0.0121154
0.25 -0.0188547
0.26 -0.0242081
0.27 -0.0276297
0.28 -0.0288989
0.29 -0.0279975
0.3 -0.0247807
0.31 -0.0197628
0.32 -0.0131013
0.33 -0.00546979
0.34 0.00261123
0.35 0.0104746
0.36 0.0176044
0.37 0.0232438
0.38 0.0271888
0.39 0.0289683
0.4 0.0285022
0.41 0.0258978
0.42 0.0211604
0.43 0.0148913
0.44 0.00738754
0.45 -0.000648141
0.46 -0.00865137
0.47 -0.0159446
0.48 -0.0220969
0.49 -0.0263666
0.5 -0.0287092
0.51 -0.0287507
0.52 -0.026556
0.53 -0.0223535
0.54 -0.0162992
0.55 -0.00905435
0.56 -0.00104287
0.57 0.00703531
0.58 0.0145978
0.59 0.0209873
0.6 0.0258782
0.61 0.028578
0.62 0.029205
0.63 0.0275
0.64 0.0236706
0.65 0.0180568
0.66 0.0109595
0.67 0.00306971
0.68 -0.00508049
0.69 -0.0128255
0.7 -0.0195917
0.71 -0.024772
0.72 -0.0281616
0.73 -0.0291492
0.74 -0.0280109
0.75 -0.0246145
0.76 -0.0193017
0.77 -0.0125084
0.78 -0.00466632
0.79 0.00353511
0.8 0.0114814
0.81 0.0185721
0.82 0.0242701
0.83 0.0280471
0.84 0.0298296
0.85 0.029117
0.86 0.0263299
0.87 0.0214693
0.88 0.0149937
0.89 0.00741204
0.9 -0.000736298
0.91 -0.00880053
0.92 -0.0161201
0.93 -0.0221941
0.94 -0.0265569
0.95 -0.028796
0.96 -0.0289784
0.97 -0.0267597
0.98 -0.0226862
0.99 -0.0169097
1 -0.00999123
1.01 -0.00249147
1.02 0.00495312
1.03 0.0117759
1.04 0.0172935
1.05 0.021149
1.06 0.0229838
1.07 0.0225445
1.08 0.0200676
1.09 0.0154209
1.1 0.00929035
1.11 0.00202627
1.12 -0.00567947
1.13 -0.0131957
1.14 -0.0197284
1.15 -0.0248067
1.16 -0.0276521
1.17 -0.0280554
1.18 -0.0257287
1.19 -0.0205354
1.2 -0.0129071
1.21 -0.0028348
1.22 0.00878432
1.23 0.0214379
1.24 0.0342634
1.25 0.0465052
1.26 0.0571806
1.27 0.0657909
1.28 0.0713794
1.29 0.0737363
1.3 0.0725016
1.31 0.0674619
1.32 0.059115
1.33 0.0472726
1.34 0.0329694
1.35 0.0166117
1.36 -0.000917166
1.37 -0.0188234
1.38 -0.0362118
1.39 -0.0524207
1.4 -0.0665579
1.41 -0.078236
1.42 -0.0870015
1.43 -0.092482
1.44 -0.0949395
1.45 -0.0939477
1.46 -0.0902478
1.47 -0.0839064
1.48 -0.0754552
1.49 -0.0654045
1.5 -0.0541282
1.51 -0.0422126
1.52 -0.0300049
1.53 -0.0178873
1.54 -0.0061162
1.55 0.00508153
1.56 0.0156524
1.57 0.0254091
1.58 0.0344429
1.59 0.0426677
1.6 0.0500854
1.61 0.0566882
1.62 0.0622958
1.63 0.0669163
1.64 0.0702293
1.65 0.072136
1.66 0.0723782
1.67 0.0706365
1.68 0.0669242
1.69 0.0607208
1.7 0.0523239
1.71 0.0415451
1.72 0.0286126
1.73 0.0138631
1.74 -0.00244317
1.75 -0.0196235
1.76 -0.0371575
1.77 -0.0543306
1.78 -0.0704931
1.79 -0.0848861
1.8 -0.0971694
1.81 -0.106445
1.82 -0.112857
1.83 -0.116003
1.84 -0.116052
1.85 -0.11338
1.86 -0.108215
1.87 -0.101465
1.88 -0.0936982
1.89 -0.0858493
1.9 -0.0786958
1.91 -0.0731267
1.92 -0.069583
1.93 -0.0689989
1.94 -0.0712292
1.95 -0.0766058
1.96 -0.0848318
1.97 -0.0953878
1.98 -0.107762
1.99 -0.120908
2 -0.133867
2.01 -0.14554
2.02 -0.154866
2.03 -0.160619
2.04 -0.162358
2.05 -0.158575
2.06 -0.149619
2.07 -0.134781
2.08 -0.114289
2.09 -0.0886709
2.1 -0.0580005
2.11 -0.0236316
2.12 0.0140132
2.13 0.0536652
2.14 0.0944892
2.15 0.135563
2.16 0.176196
2.17 0.215653
2.18 0.253747
2.19 0.290196
2.2 0.325093
2.21 0.358698
2.22 0.391251
2.23 0.42326
2.24 0.455059
2.25 0.486981
2.26 0.519171
2.27 0.551574
2.28 0.583896
2.29 0.615453
2.3 0.645506
2.31 0.672823
2.32 0.69608
2.33 0.714152
2.34 0.724819
2.35 0.727741
2.36 0.720585
2.37 0.703296
2.38 0.675103
2.39 0.635464
2.4 0.585879
2.41 0.525658
2.42 0.457735
2.43 0.383165
2.44 0.304481
2.45 0.224081
2.46 0.144693
2.47 0.0685759
2.48 -0.00131036
2.49 -0.0633809
2.5 -0.115901
2.51 -0.157262
2.52 -0.18813
2.53 -0.20682
2.54 -0.215838
2.55 -0.215527
2.56 -0.208036
2.57 -0.195607
2.58 -0.180362
2.59 -0.164924
2.6 -0.151694
2.61 -0.142589
2.62 -0.139262
2.63 -0.143223
2.64 -0.154262
2.65 -0.173579
2.66 -0.199358
2.67 -0.231086
2.68 -0.266895
2.69 -0.304867
2.7 -0.342859
2.71 -0.378885
2.72 -0.410597
2.73 -0.43664
2.74 -0.455695
2.75 -0.466647
2.76 -0.470154
2.77 -0.465397
2.78 -0.454536
2.79 -0.43841
2.8 -0.419112
2.81 -0.398657
2.82 -0.379355
2.83 -0.362997
2.84 -0.351913
2.85 -0.347135
2.86 -0.349707
2.87 -0.360357
2.88 -0.378072
2.89 -0.403142
2.9 -0.433161
2.91 -0.466845
2.92 -0.50185
2.93 -0.536078
2.94 -0.566911
2.95 -0.592879
2.96 -0.611545
2.97 -0.622302
2.98 -0.624383
2.99 -0.617441
3 -0.602971
3.01 -0.581109
3.02 -0.554676
3.03 -0.525348
3.04 -0.495753
3.05 -0.468112
3.06 -0.445254
3.07 -0.428424
3.08 -0.420042
3.09 -0.42034
3.1 -0.429775
3.11 -0.448272
3.12 -0.473955
3.13 -0.506169
3.14 -0.541878
3.15 -0.579052
3.16 -0.614952
3.17 -0.647425
3.18 -0.673651
3.19 -0.692872
3.2 -0.703021
3.21 -0.704521
3.22 -0.69756
3.23 -0.683053
3.24 -0.663388
3.25 -0.640374
3.26 -0.617191
3.27 -0.596645
3.28 -0.581699
3.29 -0.574395
3.3 -0.577877
3.31 -0.591966
3.32 -0.618594
3.33 -0.656231
3.34 -0.703851
3.35 -0.759447
3.36 -0.819602
3.37 -0.881183
3.38 -0.94031
3.39 -0.993122
3.4 -1.03607
3.41 -1.06698
3.42 -1.08209
3.43 -1.08245
3.44 -1.06611
3.45 -1.03574
3.46 -0.993223
3.47 -0.941714
3.48 -0.885779
3.49 -0.829854
3.5 -0.77856
3.51 -0.73663
3.52 -0.707874
3.53 -0.694178
3.54 -0.698806
3.55 -0.719111
3.56 -0.755049
3.57 -0.801257
3.58 -0.852644
3.59 -0.901431
3.6 -0.940311
3.61 -0.956981
3.62 -0.945089
3.63 -0.892802
3.64 -0.79182
3.65 -0.637826
3.66 -0.418781
3.67 -0.140522
3.68 0.20504
3.69 0.609207
3.7 1.06766
3.71 1.57296
3.72 2.11001
3.73 2.66849
3.74 3.22996
3.75 3.77845
3.76 4.296
3.77 4.76892
3.78 5.1745
3.79 5.50873
3.8 5.75032
3.81 5.89867
3.82 5.94739
3.83 5.89073
3.84 5.74165
3.85 5.49106
3.86 5.16238
3.87 4.75988
3.88 4.30011
3.89 3.79967
3.9 3.27219
3.91 2.73645
3.92 2.20759
3.93 1.69972
3.94 1.22485
3.95 0.795597
3.96 0.414
3.97 0.0935934
3.98 -0.172367
3.99 -0.379513
4 -0.532294
4.01 -0.637714
4.02 -0.697657
4.03 -0.725184
4.04 -0.724418
4.05 -0.706145
4.06 -0.677269
4.07 -0.645025
4.08 -0.615013
4.09 -0.592776
4.1 -0.580255
4.11 -0.579909
4.12 -0.591751
4.13 -0.614332
4.14 -0.646645
4.15 -0.684828
4.16 -0.726296
4.17 -0.767254
4.18 -0.804578
4.19 -0.834763
4.2 -0.856295
4.21 -0.86557
4.22 -0.863175
4.23 -0.84763
4.24 -0.819468
4.25 -0.780038
4.26 -0.72951
4.27 -0.670882
4.28 -0.604964
4.29 -0.53426
4.3 -0.460299
4.31 -0.384616
4.32 -0.308497
4.33 -0.2329
4.34 -0.158327
4.35 -0.0851513
4.36 -0.0134144
4.37 0.0570237
4.38 0.126155
4.39 0.194228
4.4 0.261037
4.41 0.326408
4.42 0.389817
4.43 0.450278
4.44 0.507132
4.45 0.558278
4.46 0.603059
4.47 0.639387
4.48 0.665797
4.49 0.681508
4.5 0.68397
4.51 0.674183
4.52 0.650124
4.53 0.61308
4.54 0.563381
4.55 0.501654
4.56 0.430529
4.57 0.350598
4.58 0.265289
4.59 0.176438
4.6 0.0867299
4.61 -0.001658
4.62 -0.0861109
4.63 -0.165394
4.64 -0.23727
4.65 -0.301269
4.66 -0.356714
4.67 -0.403078
4.68 -0.441592
4.69 -0.471721
4.7 -0.495634
4.71 -0.513956
4.72 -0.528216
4.73 -0.53982
4.74 -0.549881
4.75 -0.559637
4.76 -0.569961
4.77 -0.581449
4.78 -0.594442
4.79 -0.609101
4.8 -0.625107
4.81 -0.642278
4.82 -0.659951
4.83 -0.677602
4.84 -0.694585
4.85 -0.710428
4.86 -0.72447
4.87 -0.736639
4.88 -0.746507
4.89 -0.754251
4.9 -0.759971
4.91 -0.763881
4.92 -0.766505
4.93 -0.768122
4.94 -0.769319
4.95 -0.770472
4.96 -0.771974
4.97 -0.774057
4.98 -0.776985
4.99 -0.780708
5 -0.785292
5.01 -0.79055
5.02 -0.796339
5.03 -0.802478
5.04 -0.808778
5.05 -0.815116
5.06 -0.821423
5.07 -0.827702
5.08 -0.834032
5.09 -0.840523
5.1 -0.847359
5.11 -0.854603
5.12 -0.862352
5.13 -0.870465
5.14 -0.878684
5.15 -0.886434
5.16 -0.893058
5.17 -0.897145
5.18 -0.897695
5.19 -0.89283
5.2 -0.880706
5.21 -0.859958
5.22 -0.827376
5.23 -0.782835
5.24 -0.723137
5.25 -0.648297
5.26 -0.557461
5.27 -0.449809
5.28 -0.327696
5.29 -0.190294
5.3 -0.0418992
5.31 0.115598
5.32 0.278179
5.33 0.441852
5.34 0.60161
5.35 0.753514
5.36 0.891599
5.37 1.0123
5.38 1.11154
5.39 1.18444
5.4 1.23141
5.41 1.24617
5.42 1.23255
5.43 1.18855
5.44 1.11631
5.45 1.01954
5.46 0.899154
5.47 0.762173
5.48 0.611245
5.49 0.452602
5.5 0.290801
5.51 0.131058
5.52 -0.022839
5.53 -0.165518
5.54 -0.295403
5.55 -0.409139
5.56 -0.505441
5.57 -0.584685
5.58 -0.645105
5.59 -0.690156
5.6 -0.71949
5.61 -0.736477
5.62 -0.743094
5.63 -0.741477
5.64 -0.73456
5.65 -0.723763
5.66 -0.711268
5.67 -0.698081
5.68 -0.684945
5.69 -0.672005
5.7 -0.658923
5.71 -0.645032
5.72 -0.629154
5.73 -0.610213
5.74 -0.587026
5.75 -0.558163
5.76 -0.523461
5.77 -0.481397
5.78 -0.43296
5.79 -0.37807
5.8 -0.317892
5.81 -0.254025
5.82 -0.188162
5.83 -0.122653
5.84 -0.0600462
5.85 -0.00265924
5.86 0.0472276
5.87 0.0868745
5.88 0.115782
5.89 0.13071
5.9 0.132861
5.91 0.121035
5.92 0.0959657
5.93 0.0592851
5.94 0.0113207
5.95 -0.0445923
5.96 -0.107201
5.97 -0.173554
5.98 -0.241526
5.99 -0.308769
6 -0.373633
6.01 -0.433969
6.02 -0.489297
6.03 -0.538581
6.04 -0.581741
6.05 -0.61935
6.06 -0.651473
6.07 -0.679739
6.08 -0.704813
6.09 -0.72818
6.1 -0.750876
6.11 -0.773956
6.12 -0.798039
6.13 -0.823765
6.14 -0.850979
6.15 -0.879532
6.16 -0.908764
6.17 -0.937871
6.18 -0.965672
6.19 -0.991306
6.2 -1.01339
6.21 -1.03126
6.22 -1.04425
6.23 -1.05172
6.24 -1.05429
6.25 -1.05163
6.26 -1.04524
6.27 -1.03588
6.28 -1.02501
6.29 -1.01397
6.3 -1.00426
6.31 -0.99672
6.32 -0.992375
6.33 -0.991126
6.34 -0.99252
6.35 -0.995259
6.36 -0.997313
6.37 -0.995288
6.38 -0.986095
6.39 -0.96498
6.4 -0.927027
6.41 -0.868684
6.42 -0.781862
6.43 -0.666088
6.44 -0.513526
6.45 -0.323925
6.46 -0.095172
6.47 0.175194
6.48 0.481651
6.49 0.826926
6.5 1.20115
6.51 1.60065
6.52 2.01672
6.53 2.44032
6.54 2.86104
6.55 3.26927
6.56 3.65218
6.57 4.00076
6.58 4.30537
6.59 4.55384
6.6 4.74549
6.61 4.86449
6.62 4.91703
6.63 4.89618
6.64 4.80368
6.65 4.646
6.66 4.42062
6.67 4.14304
6.68 3.81509
6.69 3.45049
6.7 3.05845
6.71 2.64941
6.72 2.23479
6.73 1.8252
6.74 1.42931
6.75 1.05627
6.76 0.713254
6.77 0.403467
6.78 0.135323
6.79 -0.0948454
6.8 -0.281642
6.81 -0.429424
6.82 -0.539905
6.83 -0.614797
6.84 -0.661618
6.85 -0.68092
6.86 -0.681222
6.87 -0.665622
6.88 -0.639219
6.89 -0.606302
6.9 -0.570029
6.91 -0.533501
6.92 -0.498839
6.93 -0.467331
6.94 -0.439696
6.95 -0.416363
6.96 -0.396665
6.97 -0.380631
6.98 -0.367119
6.99 -0.355694
7 -0.345737
7.01 -0.33685
7.02 -0.329071
7.03 -0.322446
7.04 -0.317638
7.05 -0.315278
7.06 -0.316247
7.07 -0.321849
7.08 -0.332488
7.09 -0.349998
7.1 -0.374129
7.11 -0.405783
7.12 -0.444885
7.13 -0.490675
7.14 -0.543094
7.15 -0.600123
7.16 -0.660781
7.17 -0.722945
7.18 -0.784826
7.19 -0.844205
7.2 -0.899638
7.21 -0.948561
7.22 -0.990456
7.23 -1.0238
7.24 -1.04809
7.25 -1.06381
7.26 -1.07035
7.27 -1.06979
7.28 -1.06255
7.29 -1.05074
7.3 -1.03595
7.31 -1.01999
7.32 -1.00449
7.33 -0.991147
7.34 -0.98075
7.35 -0.974128
7.36 -0.971339
7.37 -0.971739
7.38 -0.974547
7.39 -0.97794
7.4 -0.979884
7.41 -0.978005
7.42 -0.969847
7.43 -0.952101
7.44 -0.923497
7.45 -0.879682
7.46 -0.820832
7.47 -0.744501
7.48 -0.650209
7.49 -0.539085
7.5 -0.41001
7.51 -0.267019
7.52 -0.110836
7.53 0.0543585
7.54 0.225275
7.55 0.397773
7.56 0.567861
7.57 0.730332
7.58 0.882048
7.59 1.01842
7.6 1.13591
7.61 1.23303
7.62 1.30469
7.63 1.35299
7.64 1.37425
7.65 1.37061
7.66 1.34265
7.67 1.2907
7.68 1.21928
7.69 1.12811
7.7 1.02276
7.71 0.905224
7.72 0.779215
7.73 0.648238
7.74 0.51535
7.75 0.383709
7.76 0.256368
7.77 0.135611
7.78 0.0234968
7.79 -0.0774832
7.8 -0.167243
7.81 -0.242746
7.82 -0.305167
7.83 -0.353115
7.84 -0.386673
7.85 -0.406894
7.86 -0.412657
7.87 -0.406686
7.88 -0.388567
7.89 -0.360534
7.9 -0.32393
7.91 -0.280187
7.92 -0.231802
7.93 -0.180314
7.94 -0.128282
7.95 -0.0777944
7.96 -0.0312045
7.97 0.00981312
7.98 0.0423093
7.99 0.0658143
8 0.077722
8.01 0.077794
8.02 0.0653773
8.03 0.0395913
8.04 0.00219331
8.05 -0.0477965
8.06 -0.107448
8.07 -0.175889
8.08 -0.250877
8.09 -0.33002
8.1 -0.411182
8.11 -0.491861
8.12 -0.569704
8.13 -0.642846
8.14 -0.709724
8.15 -0.768603
8.16 -0.819668
8.17 -0.861358
8.18 -0.895142
8.19 -0.921075
8.2 -0.940368
8.21 -0.954606
8.22 -0.964793
8.23 -0.972864
8.24 -0.979885
8.25 -0.986972
8.26 -0.994653
8.27 -1.003
8.28 -1.01141
8.29 -1.01852
8.3 -1.02262
8.31 -1.02108
8.32 -1.01076
8.33 -0.989193
8.34 -0.950938
8.35 -0.894991
8.36 -0.815788
8.37 -0.712133
8.38 -0.581957
8.39 -0.422366
8.4 -0.236408
8.41 -0.0208672
8.42 0.218221
8.43 0.47939
8.44 0.757575
8.45 1.04678
8.46 1.34116
8.47 1.63335
8.48 1.91546
8.49 2.18043
8.5 2.42142
8.51 2.62949
8.52 2.80285
8.53 2.93032
8.54 3.01421
8.55 3.04897
8.56 3.03408
8.57 2.97312
8.58 2.86243
8.59 2.71214
8.6 2.52203
8.61 2.30085
8.62 2.05442
8.63 1.78895
8.64 1.51298
8.65 1.23272
8.66 0.955474
8.67 0.687447
8.68 0.43446
8.69 0.199692
8.7 -0.0104379
8.71 -0.197
8.72 -0.355628
8.73 -0.48798
8.74 -0.594543
8.75 -0.675445
8.76 -0.73549
8.77 -0.774344
8.78 -0.797848
8.79 -0.808016
8.8 -0.808524
8.81 -0.802829
8.82 -0.793457
8.83 -0.783359
8.84 -0.774648
8.85 -0.768976
8.86 -0.767464
8.87 -0.771166
8.88 -0.779769
8.89 -0.793951
8.9 -0.812564
8.91 -0.835287
8.92 -0.861183
8.93 -0.889216
8.94 -0.918577
8.95 -0.948213
8.96 -0.977305
8.97 -1.00516
8.98 -1.03125
8.99 -1.05503
9 -1.07653
9.01 -1.09526
9.02 -1.1116
9.03 -1.12546
9.04 -1.13702
9.05 -1.14658
9.06 -1.15403
9.07 -1.15977
9.08 -1.16359
9.09 -1.16557
9.1 -1.16552
9.11 -1.16301
9.12 -1.15795
9.13 -1.14939
9.14 -1.13725
9.15 -1.1207
9.16 -1.09914
9.17 -1.07238
9.18 -1.03922
9.19 -1.00023
9.2 -0.954484
9.21 -0.902489
9.22 -0.844458
9.23 -0.780573
9.24 -0.712158
9.25 -0.639594
9.26 -0.564646
9.27 -0.488522
9.28 -0.412954
9.29 -0.339436
9.3 -0.270234
9.31 -0.206386
9.32 -0.150227
9.33 -0.102736
9.34 -0.0650522
9.35 -0.0387849
9.36 -0.0231654
9.37 -0.0200777
9.38 -0.0276532
9.39 -0.0460187
9.4 -0.0739651
9.41 -0.109623
9.42 -0.15209
9.43 -0.198602
9.44 -0.247575
9.45 -0.296683
9.46 -0.344074
9.47 -0.387602
9.48 -0.426269
9.49 -0.457912
9.5 -0.482584
9.51 -0.49938
9.52 -0.508365
9.53 -0.510436
9.54 -0.505622
9.55 -0.496001
9.56 -0.482451
9.57 -0.466916
9.58 -0.45095
9.59 -0.436361
9.6 -0.424371
9.61 -0.416851
9.62 -0.414246
9.63 -0.417567
9.64 -0.427137
9.65 -0.442527
9.66 -0.464097
9.67 -0.490355
9.68 -0.520963
9.69 -0.554529
9.7 -0.59002
9.71 -0.626325
9.72 -0.662433
9.73 -0.697356
9.74 -0.730582
9.75 -0.761564
9.76 -0.790054
9.77 -0.816157
9.78 -0.839614
9.79 -0.860881
9.8 -0.879724
9.81 -0.896172
9.82 -0.909864
9.83 -0.919791
9.84 -0.925306
9.85 -0.923858
9.86 -0.914164
9.87 -0.8931
9.88 -0.857426
9.89 -0.805097
9.9 -0.729881
9.91 -0.631671
9.92 -0.504318
9.93 -0.346905
9.94 -0.157474
9.95 0.0673534
9.96 0.323767
9.97 0.615634
9.98 0.936083
9.99 1.28355
10 1.65246
10.01 2.03584
10.02 2.4273
10.03 2.81793
10.04 3.19869
10.05 3.56087
10.06 3.89619
10.07 4.19348
10.08 4.45001
10.09 4.6519
10.1 4.80082
10.11 4.88953
10.12 4.91617
10.13 4.88468
10.14 4.78908
10.15 4.6416
10.16 4.44101
10.17 4.19754
10.18 3.91815
10.19 3.60977
10.2 3.28353
10.21 2.94632
10.22 2.60802
10.23 2.27615
10.24 1.95831
10.25 1.65891
10.26 1.38585
10.27 1.1386
10.28 0.922319
10.29 0.735553
10.3 0.577665
10.31 0.448547
10.32 0.342547
10.33 0.259613
10.34 0.193021
10.35 0.140033
10.36 0.0962562
10.37 0.0576688
10.38 0.0210886
10.39 -0.0165075
10.4 -0.0575511
10.41 -0.103481
10.42 -0.155152
10.43 -0.213266
10.44 -0.276851
10.45 -0.345937
10.46 -0.418704
10.47 -0.494069
10.48 -0.570377
10.49 -0.646165
10.5 -0.719658
10.51 -0.789884
10.52 -0.855259
10.53 -0.915126
10.54 -0.968848
10.55 -1.01551
10.56 -1.05566
10.57 -1.08818
10.58 -1.11409
10.59 -1.13305
10.6 -1.14532
10.61 -1.15152
10.62 -1.15109
10.63 -1.14516
10.64 -1.13326
10.65 -1.11599
10.66 -1.09357
10.67 -1.06595
10.68 -1.03403
10.69 -0.997614
10.7 -0.957808
10.71 -0.915042
10.72 -0.870211
10.73 -0.824303
10.74 -0.778375
10.75 -0.733518
10.76 -0.691063
10.77 -0.65208
10.78 -0.617593
10.79 -0.589024
10.8 -0.566478
10.81 -0.55163
10.82 -0.543941
10.83 -0.544052
10.84 -0.55185
10.85 -0.566504
10.86 -0.588296
10.87 -0.615469
10.88 -0.647706
10.89 -0.683556
10.9 -0.72196
10.91 -0.761806
10.92 -0.801925
10.93 -0.841232
10.94 -0.878931
10.95 -0.914203
10.96 -0.946435
10.97 -0.975482
10.98 -1.00066
10.99 -1.02247
11 -1.04063
11.01 -1.0556
11.02 -1.06773
11.03 -1.07727
11.04 -1.08494
11.05 -1.09098
11.06 -1.09606
11.07 -1.10058
11.08 -1.10497
11.09 -1.10958
11.1 -1.11479
11.11 -1.12072
11.12 -1.12758
11.13 -1.13532
11.14 -1.14385
11.15 -1.15292
11.16 -1.16209
11.17 -1.17071
11.18 -1.17804
11.19 -1.18301
11.2 -1.1843
11.21 -1.18086
11.22 -1.17017
11.23 -1.15154
11.24 -1.12206
11.25 -1.08037
11.26 -1.02475
11.27 -0.952231
11.28 -0.863294
11.29 -0.753956
11.3 -0.625901
11.31 -0.4776
11.32 -0.309389
11.33 -0.123513
11.34 0.080565
11.35 0.297952
11.36 0.527055
11.37 0.763147
11.38 1.00216
11.39 1.2389
11.4 1.46898
11.41 1.68558
11.42 1.88516
11.43 2.06192
11.44 2.211
11.45 2.33092
11.46 2.41412
11.47 2.46379
11.48 2.4748
11.49 2.44959
11.5 2.38933
11.51 2.29399
11.52 2.17033
11.53 2.01819
11.54 1.84561
11.55 1.65603
11.56 1.45513
11.57 1.24843
11.58 1.04097
11.59 0.837369
11.6 0.642373
11.61 0.459127
11.62 0.290108
11.63 0.138423
11.64 0.00305117
11.65 -0.11321
11.66 -0.213254
11.67 -0.2972
11.68 -0.36693
11.69 -0.425353
11.7 -0.47357
11.71 -0.515352
11.72 -0.552305
11.73 -0.586958
11.74 -0.620975
11.75 -0.655834
11.76 -0.692237
11.77 -0.730819
11.78 -0.771151
11.79 -0.812726
11.8 -0.854387
11.81 -0.894861
11.82 -0.932063
11.83 -0.9647
11.84 -0.990299
11.85 -1.00736
11.86 -1.01435
11.87 -1.00891
11.88 -0.991367
11.89 -0.958862
11.9 -0.912728
11.91 -0.851999
11.92 -0.776967
11.93 -0.689245
11.94 -0.588206
11.95 -0.477042
11.96 -0.356214
11.97 -0.228312
11.98 -0.0953191
11.99 0.0405961
12 0.176949
12.01 0.311144
12.02 0.441006
12.03 0.563979
12.04 0.677566
12.05 0.780516
12.06 0.869085
12.07 0.943692
12.08 1.00124
12.09 1.04166
12.1 1.06446
12.11 1.06808
12.12 1.0549
12.13 1.02297
12.14 0.975631
12.15 0.913327
12.16 0.838041
12.17 0.752652
12.18 0.658488
12.19 0.559277
12.2 0.45711
12.21 0.354913
12.22 0.254973
12.23 0.159949
12.24 0.0710053
12.25 -0.00927625
12.26 -0.0809284
12.27 -0.142931
12.28 -0.195266
12.29 -0.239074
12.3 -0.274211
12.31 -0.303181
12.32 -0.326871
12.33 -0.347463
12.34 -0.366657
12.35 -0.386299
12.36 -0.40774
12.37 -0.432607
12.38 -0.4613
12.39 -0.494374
12.4 -0.531642
12.41 -0.572167
