# xPDFsuite Configuration #
[PDF]
wavelength = 0.1432
dataformat = twotheta
inputfile = 1_1Pd_CeO2_cycle-00348.chi
backgroundfile = background-00000.chi
mode = xray
bgscale = 1.007
composition = CeO2
outputtype = gr
qmaxinst = 28.8974762299
qmin = 0.5
qmax = 27.9
rmax = 50.0
rmin = 0.0
rstep = 0.01
rpoly = 1.8657

[Misc]
inputdir = G:/SankarDec16/1Pd/Chi
savedir = D:/DATA/APS_CeO2/1Pd
backgroundfilefull = G:/SankarDec16/Background/background-00000.chi

#### start data
#S 1
#L r($\AA$)  G($\AA^{-2}$)
0 0
0.01 -0.00454011
0.02 -0.00873924
0.03 -0.0122462
0.04 -0.0147964
0.05 -0.0162421
0.06 -0.016346
0.07 -0.015265
0.08 -0.0129216
0.09 -0.00961582
0.1 -0.0055546
0.11 -0.00105543
0.12 0.00353404
0.13 0.00782508
0.14 0.0115398
0.15 0.0143396
0.16 0.0160242
0.17 0.0165123
0.18 0.0156399
0.19 0.0136361
0.2 0.0105064
0.21 0.00660002
0.22 0.00217379
0.23 -0.00241611
0.24 -0.00684138
0.25 -0.0106832
0.26 -0.0137392
0.27 -0.0156986
0.28 -0.0164349
0.29 -0.0159369
0.3 -0.0141209
0.31 -0.0112786
0.32 -0.00749807
0.33 -0.00316191
0.34 0.00143464
0.35 0.00591268
0.36 0.00997825
0.37 0.0132014
0.38 0.0154645
0.39 0.0164989
0.4 0.0162576
0.41 0.0147999
0.42 0.0121271
0.43 0.00857974
0.44 0.0043249
0.45 -0.000238586
0.46 -0.00479065
0.47 -0.00894657
0.48 -0.0124603
0.49 -0.0149103
0.5 -0.016269
0.51 -0.0163226
0.52 -0.0151056
0.53 -0.0127457
0.54 -0.00932916
0.55 -0.00523031
0.56 -0.00068758
0.57 0.00390165
0.58 0.00820718
0.59 0.0118557
0.6 0.0146604
0.61 0.0162276
0.62 0.0166213
0.63 0.0156921
0.64 0.0135551
0.65 0.0104007
0.66 0.00639657
0.67 0.00193401
0.68 -0.00268778
0.69 -0.00709063
0.7 -0.0109492
0.71 -0.0139181
0.72 -0.0158785
0.73 -0.0164817
0.74 -0.0158803
0.75 -0.0139956
0.76 -0.0110176
0.77 -0.0071901
0.78 -0.00275335
0.79 0.00190246
0.8 0.00643291
0.81 0.0104964
0.82 0.0137887
0.83 0.0160088
0.84 0.0171107
0.85 0.0168081
0.86 0.0153327
0.87 0.0126793
0.88 0.00910073
0.89 0.00487924
0.9 0.000310759
0.91 -0.00423917
0.92 -0.0084072
0.93 -0.0119117
0.94 -0.0144945
0.95 -0.0159277
0.96 -0.0162459
0.97 -0.0152634
0.98 -0.0132799
0.99 -0.0103836
1 -0.00688558
1.01 -0.00309547
1.02 0.000632708
1.03 0.0039927
1.04 0.00661013
1.05 0.00830032
1.06 0.00887874
1.07 0.00822712
1.08 0.00649496
1.09 0.00365027
1.1 9.10574e-05
1.11 -0.00394398
1.12 -0.00803843
1.13 -0.0118183
1.14 -0.0147858
1.15 -0.0166896
1.16 -0.0170426
1.17 -0.0157485
1.18 -0.0126421
1.19 -0.00765533
1.2 -0.00108444
1.21 0.00706195
1.22 0.0161911
1.23 0.0259546
1.24 0.0357738
1.25 0.0451376
1.26 0.053361
1.27 0.0600949
1.28 0.0646397
1.29 0.0668149
1.3 0.0663126
1.31 0.0629008
1.32 0.0568826
1.33 0.047981
1.34 0.0369091
1.35 0.0238413
1.36 0.00936273
1.37 -0.00596663
1.38 -0.0215687
1.39 -0.0368535
1.4 -0.0511746
1.41 -0.0640887
1.42 -0.075139
1.43 -0.0838676
1.44 -0.09028
1.45 -0.0938021
1.46 -0.094822
1.47 -0.0931414
1.48 -0.0889878
1.49 -0.0826489
1.5 -0.0741932
1.51 -0.0641793
1.52 -0.0527434
1.53 -0.0403696
1.54 -0.0273565
1.55 -0.014055
1.56 -0.000783438
1.57 0.0120982
1.58 0.0243618
1.59 0.0356794
1.6 0.0458064
1.61 0.054576
1.62 0.0615997
1.63 0.0669238
1.64 0.0701426
1.65 0.0713183
1.66 0.0703176
1.67 0.067027
1.68 0.0617016
1.69 0.0540973
1.7 0.044717
1.71 0.0336181
1.72 0.0211778
1.73 0.00778253
1.74 -0.0062013
1.75 -0.0202822
1.76 -0.0339931
1.77 -0.0469136
1.78 -0.0586432
1.79 -0.0687599
1.8 -0.0771942
1.81 -0.0834723
1.82 -0.0878704
1.83 -0.0902757
1.84 -0.0909465
1.85 -0.090219
1.86 -0.0883728
1.87 -0.085966
1.88 -0.0834236
1.89 -0.0812452
1.9 -0.0798526
1.91 -0.079684
1.92 -0.0808595
1.93 -0.0837846
1.94 -0.0882105
1.95 -0.0941524
1.96 -0.101273
1.97 -0.109159
1.98 -0.117313
1.99 -0.12515
2 -0.131959
2.01 -0.13718
2.02 -0.140203
2.03 -0.140357
2.04 -0.137544
2.05 -0.130898
2.06 -0.120816
2.07 -0.106934
2.08 -0.0894695
2.09 -0.06877
2.1 -0.0448395
2.11 -0.0184466
2.12 0.0103225
2.13 0.0408496
2.14 0.072848
2.15 0.106055
2.16 0.140166
2.17 0.175206
2.18 0.211012
2.19 0.247703
2.2 0.285348
2.21 0.323992
2.22 0.363815
2.23 0.404645
2.24 0.446475
2.25 0.488905
2.26 0.531493
2.27 0.573485
2.28 0.614151
2.29 0.652031
2.3 0.686327
2.31 0.715396
2.32 0.737925
2.33 0.752991
2.34 0.758427
2.35 0.754557
2.36 0.739366
2.37 0.7135
2.38 0.67674
2.39 0.629187
2.4 0.572744
2.41 0.507389
2.42 0.436103
2.43 0.360262
2.44 0.282342
2.45 0.204521
2.46 0.1294
2.47 0.0586425
2.48 -0.00515424
2.49 -0.0610125
2.5 -0.107691
2.51 -0.144135
2.52 -0.171284
2.53 -0.188003
2.54 -0.196705
2.55 -0.197908
2.56 -0.193575
2.57 -0.185638
2.58 -0.175931
2.59 -0.166499
2.6 -0.159262
2.61 -0.155591
2.62 -0.156663
2.63 -0.163483
2.64 -0.175718
2.65 -0.19408
2.66 -0.217048
2.67 -0.244066
2.68 -0.273623
2.69 -0.304246
2.7 -0.334264
2.71 -0.362321
2.72 -0.386716
2.73 -0.406642
2.74 -0.421296
2.75 -0.43009
2.76 -0.433698
2.77 -0.431814
2.78 -0.426124
2.79 -0.417446
2.8 -0.407381
2.81 -0.397377
2.82 -0.389153
2.83 -0.383767
2.84 -0.382791
2.85 -0.386649
2.86 -0.395812
2.87 -0.410429
2.88 -0.429498
2.89 -0.452742
2.9 -0.478304
2.91 -0.504921
2.92 -0.53079
2.93 -0.554427
2.94 -0.573823
2.95 -0.588305
2.96 -0.5962
2.97 -0.597545
2.98 -0.59216
2.99 -0.580281
3 -0.563408
3.01 -0.542237
3.02 -0.519057
3.03 -0.495527
3.04 -0.473755
3.05 -0.45537
3.06 -0.442633
3.07 -0.436028
3.08 -0.437271
3.09 -0.445999
3.1 -0.462139
3.11 -0.4851
3.12 -0.513015
3.13 -0.544761
3.14 -0.577795
3.15 -0.610138
3.16 -0.639536
3.17 -0.664374
3.18 -0.682362
3.19 -0.693388
3.2 -0.696004
3.21 -0.691113
3.22 -0.679325
3.23 -0.661945
3.24 -0.641296
3.25 -0.619501
3.26 -0.599268
3.27 -0.583281
3.28 -0.574035
3.29 -0.573094
3.3 -0.583098
3.31 -0.603373
3.32 -0.635322
3.33 -0.677094
3.34 -0.727382
3.35 -0.783953
3.36 -0.843553
3.37 -0.902928
3.38 -0.958682
3.39 -1.00718
3.4 -1.04536
3.41 -1.07145
3.42 -1.08222
3.43 -1.07903
3.44 -1.06038
3.45 -1.02908
3.46 -0.987123
3.47 -0.937702
3.48 -0.885082
3.49 -0.833584
3.5 -0.78729
3.51 -0.750547
3.52 -0.726642
3.53 -0.717042
3.54 -0.724437
3.55 -0.746029
3.56 -0.781328
3.57 -0.825039
3.58 -0.872078
3.59 -0.91481
3.6 -0.946405
3.61 -0.954868
3.62 -0.934515
3.63 -0.874063
3.64 -0.765839
3.65 -0.605985
3.66 -0.383152
3.67 -0.103231
3.68 0.241373
3.69 0.642158
3.7 1.0949
3.71 1.5924
3.72 2.12019
3.73 2.6684
3.74 3.21941
3.75 3.75793
3.76 4.26673
3.77 4.7327
3.78 5.13393
3.79 5.46647
3.8 5.70961
3.81 5.86252
3.82 5.91874
3.83 5.87224
3.84 5.73527
3.85 5.49829
3.86 5.18377
3.87 4.79526
3.88 4.34844
3.89 3.85928
3.9 3.34049
3.91 2.81071
3.92 2.28437
3.93 1.77574
3.94 1.29681
3.95 0.860341
3.96 0.469084
3.97 0.136811
3.98 -0.142229
3.99 -0.363055
4 -0.529286
4.01 -0.647281
4.02 -0.718088
4.03 -0.754497
4.04 -0.759964
4.05 -0.745275
4.06 -0.717241
4.07 -0.683108
4.08 -0.649008
4.09 -0.620563
4.1 -0.600512
4.11 -0.591734
4.12 -0.594879
4.13 -0.609012
4.14 -0.633719
4.15 -0.665413
4.16 -0.701973
4.17 -0.739656
4.18 -0.775418
4.19 -0.805756
4.2 -0.828825
4.21 -0.840958
4.22 -0.842244
4.23 -0.830936
4.24 -0.807182
4.25 -0.772034
4.26 -0.725341
4.27 -0.669975
4.28 -0.606549
4.29 -0.537602
4.3 -0.464695
4.31 -0.389469
4.32 -0.313429
4.33 -0.237712
4.34 -0.163067
4.35 -0.0900726
4.36 -0.0189533
4.37 0.0503425
4.38 0.117685
4.39 0.183425
4.4 0.247386
4.41 0.309606
4.42 0.369761
4.43 0.427144
4.44 0.481324
4.45 0.530573
4.46 0.57436
4.47 0.61086
4.48 0.63871
4.49 0.657104
4.5 0.66358
4.51 0.658833
4.52 0.640746
4.53 0.610232
4.54 0.567318
4.55 0.512241
4.56 0.44732
4.57 0.372683
4.58 0.291596
4.59 0.205581
4.6 0.117196
4.61 0.0286433
4.62 -0.0575883
4.63 -0.139924
4.64 -0.216071
4.65 -0.285169
4.66 -0.346249
4.67 -0.398427
4.68 -0.442604
4.69 -0.477859
4.7 -0.506165
4.71 -0.52788
4.72 -0.54441
4.73 -0.557168
4.74 -0.567169
4.75 -0.575906
4.76 -0.584303
4.77 -0.593252
4.78 -0.603313
4.79 -0.614906
4.8 -0.627944
4.81 -0.642502
4.82 -0.658033
4.83 -0.674161
4.84 -0.690285
4.85 -0.705894
4.86 -0.720327
4.87 -0.733326
4.88 -0.74437
4.89 -0.753443
4.9 -0.760497
4.91 -0.765582
4.92 -0.769135
4.93 -0.771305
4.94 -0.772705
4.95 -0.7737
4.96 -0.774759
4.97 -0.776227
4.98 -0.778497
4.99 -0.781662
5 -0.785954
5.01 -0.791292
5.02 -0.797625
5.03 -0.804845
5.04 -0.812699
5.05 -0.821071
5.06 -0.829701
5.07 -0.838452
5.08 -0.847177
5.09 -0.855783
5.1 -0.864157
5.11 -0.872239
5.12 -0.879853
5.13 -0.886814
5.14 -0.892804
5.15 -0.897235
5.16 -0.899668
5.17 -0.898768
5.18 -0.893916
5.19 -0.883513
5.2 -0.866108
5.21 -0.840659
5.22 -0.804429
5.23 -0.757452
5.24 -0.696945
5.25 -0.622956
5.26 -0.53471
5.27 -0.431406
5.28 -0.315064
5.29 -0.184781
5.3 -0.0443002
5.31 0.104845
5.32 0.25916
5.33 0.415098
5.34 0.568248
5.35 0.71492
5.36 0.849679
5.37 0.969051
5.38 1.06909
5.39 1.145
5.4 1.19681
5.41 1.21825
5.42 1.21252
5.43 1.17725
5.44 1.11404
5.45 1.0261
5.46 0.91372
5.47 0.783614
5.48 0.63789
5.49 0.482638
5.5 0.322258
5.51 0.161866
5.52 0.00558276
5.53 -0.141222
5.54 -0.276375
5.55 -0.396189
5.56 -0.498843
5.57 -0.584243
5.58 -0.650054
5.59 -0.699436
5.6 -0.731548
5.61 -0.749652
5.62 -0.755605
5.63 -0.751492
5.64 -0.740583
5.65 -0.724367
5.66 -0.705602
5.67 -0.685662
5.68 -0.665831
5.69 -0.646703
5.7 -0.628539
5.71 -0.61091
5.72 -0.593152
5.73 -0.574255
5.74 -0.553143
5.75 -0.528433
5.76 -0.499586
5.77 -0.465037
5.78 -0.425162
5.79 -0.379527
5.8 -0.328754
5.81 -0.273983
5.82 -0.21633
5.83 -0.15787
5.84 -0.100652
5.85 -0.0468834
5.86 0.00129148
5.87 0.0412314
5.88 0.072126
5.89 0.0907777
5.9 0.0978589
5.91 0.091926
5.92 0.0732816
5.93 0.0431759
5.94 0.00153571
5.95 -0.0485729
5.96 -0.106229
5.97 -0.168592
5.98 -0.233627
5.99 -0.299038
6 -0.362979
6.01 -0.423278
6.02 -0.479129
6.03 -0.529313
6.04 -0.573482
6.05 -0.611998
6.06 -0.644697
6.07 -0.67312
6.08 -0.697807
6.09 -0.720284
6.1 -0.741653
6.11 -0.763096
6.12 -0.785439
6.13 -0.809563
6.14 -0.835535
6.15 -0.863467
6.16 -0.892915
6.17 -0.923174
6.18 -0.953283
6.19 -0.98224
6.2 -1.00872
6.21 -1.0318
6.22 -1.0506
6.23 -1.06419
6.24 -1.07283
6.25 -1.07574
6.26 -1.07412
6.27 -1.06832
6.28 -1.05949
6.29 -1.04884
6.3 -1.03749
6.31 -1.02656
6.32 -1.01689
6.33 -1.00875
6.34 -1.00195
6.35 -0.995542
6.36 -0.988015
6.37 -0.976469
6.38 -0.958326
6.39 -0.929371
6.4 -0.885176
6.41 -0.822462
6.42 -0.733723
6.43 -0.618339
6.44 -0.468852
6.45 -0.284743
6.46 -0.0637604
6.47 0.196773
6.48 0.491918
6.49 0.824705
6.5 1.18598
6.51 1.57257
6.52 1.97642
6.53 2.38895
6.54 2.80049
6.55 3.20157
6.56 3.58
6.57 3.92679
6.58 4.23245
6.59 4.48495
6.6 4.68317
6.61 4.81145
6.62 4.87527
6.63 4.86744
6.64 4.78915
6.65 4.64633
6.66 4.43588
6.67 4.17277
6.68 3.85823
6.69 3.50556
6.7 3.12354
6.71 2.72213
6.72 2.31279
6.73 1.90557
6.74 1.50951
6.75 1.13361
6.76 0.78527
6.77 0.468083
6.78 0.190614
6.79 -0.0501378
6.8 -0.248437
6.81 -0.408033
6.82 -0.530157
6.83 -0.615941
6.84 -0.672557
6.85 -0.69991
6.86 -0.706422
6.87 -0.694809
6.88 -0.67006
6.89 -0.636577
6.9 -0.597359
6.91 -0.556033
6.92 -0.514813
6.93 -0.475549
6.94 -0.439395
6.95 -0.407317
6.96 -0.379158
6.97 -0.355581
6.98 -0.335796
6.99 -0.319864
7 -0.307476
7.01 -0.298293
7.02 -0.29269
7.03 -0.29031
7.04 -0.291861
7.05 -0.297466
7.06 -0.307608
7.07 -0.32307
7.08 -0.343664
7.09 -0.370567
7.1 -0.403032
7.11 -0.44137
7.12 -0.485058
7.13 -0.533169
7.14 -0.585157
7.15 -0.639358
7.16 -0.694622
7.17 -0.749323
7.18 -0.802051
7.19 -0.851099
7.2 -0.89571
7.21 -0.933989
7.22 -0.966058
7.23 -0.991061
7.24 -1.00908
7.25 -1.02085
7.26 -1.0264
7.27 -1.0275
7.28 -1.02485
7.29 -1.02011
7.3 -1.01452
7.31 -1.00939
7.32 -1.00562
7.33 -1.00426
7.34 -1.00536
7.35 -1.00902
7.36 -1.01464
7.37 -1.02124
7.38 -1.02734
7.39 -1.03132
7.4 -1.0308
7.41 -1.02383
7.42 -1.00823
7.43 -0.981139
7.44 -0.942038
7.45 -0.887164
7.46 -0.817485
7.47 -0.731252
7.48 -0.628664
7.49 -0.511235
7.5 -0.37854
7.51 -0.234457
7.52 -0.0800656
7.53 0.0808226
7.54 0.245198
7.55 0.409322
7.56 0.569933
7.57 0.722391
7.58 0.864324
7.59 0.991815
7.6 1.10198
7.61 1.19371
7.62 1.26257
7.63 1.31051
7.64 1.33419
7.65 1.33537
7.66 1.31436
7.67 1.27112
7.68 1.20946
7.69 1.12855
7.7 1.03325
7.71 0.924916
7.72 0.806683
7.73 0.681719
7.74 0.552494
7.75 0.422337
7.76 0.294037
7.77 0.17024
7.78 0.0532904
7.79 -0.0539232
7.8 -0.150681
7.81 -0.233424
7.82 -0.302711
7.83 -0.356607
7.84 -0.394713
7.85 -0.417859
7.86 -0.424499
7.87 -0.417606
7.88 -0.396671
7.89 -0.364364
7.9 -0.322398
7.91 -0.272716
7.92 -0.21839
7.93 -0.161617
7.94 -0.105423
7.95 -0.0524447
7.96 -0.00541539
7.97 0.0339114
7.98 0.0622489
7.99 0.0795803
8 0.0833457
8.01 0.0739164
8.02 0.0511639
8.03 0.0148957
8.04 -0.0324794
8.05 -0.0910783
8.06 -0.157513
8.07 -0.230253
8.08 -0.306654
8.09 -0.384295
8.1 -0.460631
8.11 -0.533782
8.12 -0.601427
8.13 -0.662457
8.14 -0.71592
8.15 -0.760864
8.16 -0.798268
8.17 -0.827517
8.18 -0.85066
8.19 -0.868504
8.2 -0.882754
8.21 -0.895081
8.22 -0.907001
8.23 -0.919831
8.24 -0.93469
8.25 -0.95194
8.26 -0.971513
8.27 -0.992734
8.28 -1.01417
8.29 -1.03356
8.3 -1.04853
8.31 -1.05574
8.32 -1.05149
8.33 -1.0332
8.34 -0.994895
8.35 -0.936116
8.36 -0.851226
8.37 -0.73971
8.38 -0.600046
8.39 -0.430029
8.4 -0.233497
8.41 -0.00806264
8.42 0.239617
8.43 0.507382
8.44 0.789666
8.45 1.08034
8.46 1.37309
8.47 1.66104
8.48 1.93624
8.49 2.19227
8.5 2.42283
8.51 2.61964
8.52 2.78166
8.53 2.89854
8.54 2.97317
8.55 3.00072
8.56 2.98117
8.57 2.91826
8.58 2.80887
8.59 2.66266
8.6 2.47959
8.61 2.2678
8.62 2.03268
8.63 1.77989
8.64 1.51724
8.65 1.25026
8.66 0.985613
8.67 0.72886
8.68 0.485286
8.69 0.257827
8.7 0.0523331
8.71 -0.132002
8.72 -0.291081
8.73 -0.426198
8.74 -0.537584
8.75 -0.625076
8.76 -0.692886
8.77 -0.740352
8.78 -0.772737
8.79 -0.791654
8.8 -0.800363
8.81 -0.802074
8.82 -0.798949
8.83 -0.793971
8.84 -0.789067
8.85 -0.786019
8.86 -0.78604
8.87 -0.790298
8.88 -0.798757
8.89 -0.81221
8.9 -0.82978
8.91 -0.851292
8.92 -0.875958
8.93 -0.902828
8.94 -0.931158
8.95 -0.959875
8.96 -0.988135
8.97 -1.01516
8.98 -1.04036
8.99 -1.06307
9 -1.08326
9.01 -1.10035
9.02 -1.11472
9.03 -1.12627
9.04 -1.13525
9.05 -1.14205
9.06 -1.1467
9.07 -1.14973
9.08 -1.15115
9.09 -1.15116
9.1 -1.14974
9.11 -1.14665
9.12 -1.14179
9.13 -1.13439
9.14 -1.12425
9.15 -1.11053
9.16 -1.09252
9.17 -1.06985
9.18 -1.04116
9.19 -1.00676
9.2 -0.965545
9.21 -0.91778
9.22 -0.863504
9.23 -0.802691
9.24 -0.736634
9.25 -0.66552
9.26 -0.591214
9.27 -0.514899
9.28 -0.438397
9.29 -0.363351
9.3 -0.29211
9.31 -0.225931
9.32 -0.167272
9.33 -0.117276
9.34 -0.0771964
9.35 -0.0487539
9.36 -0.0312083
9.37 -0.0265079
9.38 -0.0327301
9.39 -0.0499787
9.4 -0.0769729
9.41 -0.111764
9.42 -0.15337
9.43 -0.198964
9.44 -0.246902
9.45 -0.294846
9.46 -0.340953
9.47 -0.383122
9.48 -0.420432
9.49 -0.450838
9.5 -0.4745
9.51 -0.490656
9.52 -0.499503
9.53 -0.502001
9.54 -0.498341
9.55 -0.49053
9.56 -0.479508
9.57 -0.467097
9.58 -0.454733
9.59 -0.444059
9.6 -0.436066
9.61 -0.432366
9.62 -0.433171
9.63 -0.439222
9.64 -0.450598
9.65 -0.466766
9.66 -0.487802
9.67 -0.512342
9.68 -0.539925
9.69 -0.569355
9.7 -0.599763
9.71 -0.630256
9.72 -0.660179
9.73 -0.688862
9.74 -0.716155
9.75 -0.741865
9.76 -0.766084
9.77 -0.78909
9.78 -0.811001
9.79 -0.832158
9.8 -0.852517
9.81 -0.871912
9.82 -0.889819
9.83 -0.905027
9.84 -0.916484
9.85 -0.921344
9.86 -0.917904
9.87 -0.902682
9.88 -0.872083
9.89 -0.823862
9.9 -0.751434
9.91 -0.654776
9.92 -0.527582
9.93 -0.369128
9.94 -0.177628
9.95 0.0500628
9.96 0.309752
9.97 0.604973
9.98 0.928475
9.99 1.27834
10 1.64869
10.01 2.03239
10.02 2.42276
10.03 2.81107
10.04 3.18822
10.05 3.54579
10.06 3.87579
10.07 4.16743
10.08 4.41842
10.09 4.61544
10.1 4.76054
10.11 4.84699
10.12 4.87333
10.13 4.84364
10.14 4.75242
10.15 4.61159
10.16 4.42006
10.17 4.18768
10.18 3.92107
10.19 3.62672
10.2 3.31511
10.21 2.99254
10.22 2.66824
10.23 2.34908
10.24 2.04203
10.25 1.7512
10.26 1.48371
10.27 1.23923
10.28 1.02245
10.29 0.832178
10.3 0.667948
10.31 0.52983
10.32 0.412867
10.33 0.317277
10.34 0.237136
10.35 0.170231
10.36 0.112828
10.37 0.0613913
10.38 0.0134146
10.39 -0.0339431
10.4 -0.0826106
10.41 -0.133986
10.42 -0.188877
10.43 -0.247914
10.44 -0.31054
10.45 -0.37678
10.46 -0.445382
10.47 -0.515541
10.48 -0.586032
10.49 -0.65579
10.5 -0.723425
10.51 -0.788246
10.52 -0.848982
10.53 -0.905116
10.54 -0.956107
10.55 -1.00113
10.56 -1.04058
10.57 -1.07337
10.58 -1.10023
10.59 -1.12071
10.6 -1.13484
10.61 -1.14306
10.62 -1.1446
10.63 -1.14046
10.64 -1.13004
10.65 -1.11389
10.66 -1.09221
10.67 -1.06496
10.68 -1.03313
10.69 -0.996596
10.7 -0.956606
10.71 -0.913711
10.72 -0.868944
10.73 -0.823382
10.74 -0.778228
10.75 -0.734568
10.76 -0.693813
10.77 -0.656982
10.78 -0.625051
10.79 -0.599368
10.8 -0.579894
10.81 -0.568176
10.82 -0.563512
10.83 -0.566387
10.84 -0.576522
10.85 -0.592994
10.86 -0.615887
10.87 -0.643467
10.88 -0.67529
10.89 -0.709953
10.9 -0.74643
10.91 -0.783641
10.92 -0.820591
10.93 -0.856257
10.94 -0.890056
10.95 -0.921312
10.96 -0.949595
10.97 -0.974907
10.98 -0.996769
10.99 -1.01576
11 -1.03174
11.01 -1.04525
11.02 -1.05665
11.03 -1.06626
11.04 -1.07469
11.05 -1.0822
11.06 -1.08931
11.07 -1.0963
11.08 -1.10348
11.09 -1.11102
11.1 -1.11913
11.11 -1.12778
11.12 -1.13698
11.13 -1.14659
11.14 -1.15636
11.15 -1.16594
11.16 -1.17491
11.17 -1.18248
11.18 -1.18805
11.19 -1.19056
11.2 -1.18881
11.21 -1.18193
11.22 -1.16753
11.23 -1.14517
11.24 -1.11215
11.25 -1.06734
11.26 -1.0092
11.27 -0.935053
11.28 -0.845411
11.29 -0.736586
11.3 -0.610185
11.31 -0.464777
11.32 -0.300645
11.33 -0.119863
11.34 0.078159
11.35 0.288875
11.36 0.510893
11.37 0.739829
11.38 0.971914
11.39 1.20234
11.4 1.42694
11.41 1.63933
11.42 1.83607
11.43 2.01158
11.44 2.16117
11.45 2.28322
11.46 2.37037
11.47 2.42542
11.48 2.44319
11.49 2.42576
11.5 2.37399
11.51 2.28749
11.52 2.17266
11.53 2.02891
11.54 1.864
11.55 1.68104
11.56 1.48546
11.57 1.28272
11.58 1.07756
11.59 0.874847
11.6 0.679228
11.61 0.494109
11.62 0.322175
11.63 0.166759
11.64 0.0272037
11.65 -0.0934239
11.66 -0.197696
11.67 -0.285462
11.68 -0.358357
11.69 -0.419185
11.7 -0.46882
11.71 -0.511143
11.72 -0.547697
11.73 -0.58118
11.74 -0.613408
11.75 -0.646047
11.76 -0.680058
11.77 -0.716313
11.78 -0.75461
11.79 -0.794656
11.8 -0.835473
11.81 -0.875843
11.82 -0.913849
11.83 -0.948061
11.84 -0.976026
11.85 -0.99607
11.86 -1.0065
11.87 -1.00477
11.88 -0.990966
11.89 -0.962023
11.9 -0.919096
11.91 -0.861042
11.92 -0.788028
11.93 -0.701657
11.94 -0.601204
11.95 -0.490023
11.96 -0.368612
11.97 -0.239757
11.98 -0.105613
11.99 0.0314422
12 0.168744
12.01 0.303467
12.02 0.433342
12.03 0.555687
12.04 0.667961
12.05 0.768986
12.06 0.855035
12.07 0.926759
12.08 0.98123
12.09 1.01866
12.1 1.03879
12.11 1.04042
12.12 1.02607
12.13 0.994173
12.14 0.948095
12.15 0.888454
12.16 0.817253
12.17 0.737209
12.18 0.649651
12.19 0.557896
12.2 0.46382
12.21 0.369927
12.22 0.278129
12.23 0.190613
12.24 0.108251
12.25 0.0330828
12.26 -0.0350506
12.27 -0.0954394
12.28 -0.148207
12.29 -0.194365
12.3 -0.233945
12.31 -0.268966
12.32 -0.300214
12.33 -0.329387
12.34 -0.357781
12.35 -0.386762
12.36 -0.41723
12.37 -0.450254
12.38 -0.48592
12.39 -0.524376
