# xPDFsuite Configuration #
[PDF]
wavelength = 0.1432
dataformat = twotheta
inputfile = 1_1Pd_CeO2_cycle-00249.chi
backgroundfile = background-00000.chi
mode = xray
bgscale = 1.007
composition = CeO2
outputtype = gr
qmaxinst = 28.8974762299
qmin = 0.5
qmax = 27.9
rmax = 50.0
rmin = 0.0
rstep = 0.01
rpoly = 1.8657

[Misc]
inputdir = G:/SankarDec16/1Pd/Chi
savedir = D:/DATA/APS_CeO2/1Pd
backgroundfilefull = G:/SankarDec16/Background/background-00000.chi

#### start data
#S 1
#L r($\AA$)  G($\AA^{-2}$)
0 0
0.01 -0.00738981
0.02 -0.0142234
0.03 -0.019928
0.04 -0.0240722
0.05 -0.0264157
0.06 -0.0265722
0.07 -0.0247985
0.08 -0.0209698
0.09 -0.0155763
0.1 -0.00895683
0.11 -0.00163053
0.12 0.00583586
0.13 0.0128071
0.14 0.018832
0.15 0.0233588
0.16 0.0260636
0.17 0.0268164
0.18 0.0253527
0.19 0.0220493
0.2 0.0169196
0.21 0.0105346
0.22 0.00331608
0.23 -0.00415327
0.24 -0.0113394
0.25 -0.017558
0.26 -0.0224836
0.27 -0.0256119
0.28 -0.0267415
0.29 -0.0258591
0.3 -0.0228347
0.31 -0.018148
0.32 -0.0119497
0.33 -0.00486566
0.34 0.00261954
0.35 0.00988638
0.36 0.0164588
0.37 0.0216353
0.38 0.025232
0.39 0.0268156
0.4 0.0263172
0.41 0.0238411
0.42 0.0193986
0.43 0.0135498
0.44 0.0065763
0.45 -0.00087023
0.46 -0.00826515
0.47 -0.0149807
0.48 -0.0206217
0.49 -0.0245024
0.5 -0.0265894
0.51 -0.0265413
0.52 -0.0244256
0.53 -0.02046
0.54 -0.0147968
0.55 -0.00805123
0.56 -0.000622468
0.57 0.00684192
0.58 0.0138021
0.59 0.0196511
0.6 0.0240939
0.61 0.0264931
0.62 0.0269677
0.63 0.0252852
0.64 0.0216468
0.65 0.016374
0.66 0.00975437
0.67 0.00242906
0.68 -0.00510282
0.69 -0.0122281
0.7 -0.0184172
0.71 -0.0231121
0.72 -0.0261322
0.73 -0.0269182
0.74 -0.0257367
0.75 -0.0224748
0.76 -0.0174583
0.77 -0.0110971
0.78 -0.00380033
0.79 0.0037952
0.8 0.0111152
0.81 0.0176097
0.82 0.0227853
0.83 0.0261597
0.84 0.0276752
0.85 0.0268774
0.86 0.0241661
0.87 0.019552
0.88 0.013467
0.89 0.00638625
0.9 -0.00118532
0.91 -0.00865039
0.92 -0.0153978
0.93 -0.0209737
0.94 -0.0249555
0.95 -0.0269732
0.96 -0.0270991
0.97 -0.0250293
0.98 -0.021275
0.99 -0.0159864
1 -0.00968486
1.01 -0.00288638
1.02 0.00382281
1.03 0.00993372
1.04 0.0148277
1.05 0.018196
1.06 0.0197288
1.07 0.0192199
1.08 0.0169038
1.09 0.0126983
1.1 0.00723917
1.11 0.00087659
1.12 -0.00574577
1.13 -0.0120498
1.14 -0.017296
1.15 -0.0210842
1.16 -0.0227066
1.17 -0.0220146
1.18 -0.018779
1.19 -0.012924
1.2 -0.00488941
1.21 0.00526258
1.22 0.0166761
1.23 0.0288167
1.24 0.0408533
1.25 0.0520705
1.26 0.061508
1.27 0.0687406
1.28 0.0728478
1.29 0.0736845
1.3 0.0709381
1.31 0.0644481
1.32 0.0547432
1.33 0.0416903
1.34 0.0263282
1.35 0.00909691
1.36 -0.00911357
1.37 -0.0275119
1.38 -0.0451826
1.39 -0.0614946
1.4 -0.0755379
1.41 -0.0869529
1.42 -0.0952914
1.43 -0.100189
1.44 -0.101937
1.45 -0.100107
1.46 -0.0954781
1.47 -0.0881334
1.48 -0.078638
1.49 -0.067535
1.5 -0.0552414
1.51 -0.0423793
1.52 -0.0293541
1.53 -0.0165833
1.54 -0.00436884
1.55 0.00701287
1.56 0.0175085
1.57 0.0268669
1.58 0.035227
1.59 0.0424925
1.6 0.0487138
1.61 0.0539444
1.62 0.0580714
1.63 0.0612036
1.64 0.0631305
1.65 0.0638591
1.66 0.0632423
1.67 0.0610884
1.68 0.0574464
1.69 0.0519578
1.7 0.0448625
1.71 0.0360344
1.72 0.0256471
1.73 0.0139477
1.74 0.00112531
1.75 -0.0123289
1.76 -0.0260446
1.77 -0.0395138
1.78 -0.0522794
1.79 -0.0638126
1.8 -0.0738824
1.81 -0.0818795
1.82 -0.0879215
1.83 -0.0917578
1.84 -0.0935391
1.85 -0.0935509
1.86 -0.0920005
1.87 -0.0895175
1.88 -0.0865344
1.89 -0.0836764
1.9 -0.0814666
1.91 -0.0804778
1.92 -0.0809429
1.93 -0.0834143
1.94 -0.0876893
1.95 -0.0938607
1.96 -0.101588
1.97 -0.110408
1.98 -0.119769
1.99 -0.12894
2 -0.137073
2.01 -0.143443
2.02 -0.147288
2.03 -0.147764
2.04 -0.144722
2.05 -0.137121
2.06 -0.125451
2.07 -0.109329
2.08 -0.0891008
2.09 -0.0652814
2.1 -0.0380691
2.11 -0.00847681
2.12 0.0231294
2.13 0.0559066
2.14 0.0893405
2.15 0.122937
2.16 0.156386
2.17 0.189479
2.18 0.222276
2.19 0.254911
2.2 0.287693
2.21 0.320946
2.22 0.355153
2.23 0.390506
2.24 0.427395
2.25 0.465729
2.26 0.50537
2.27 0.545869
2.28 0.586485
2.29 0.626071
2.3 0.663519
2.31 0.697172
2.32 0.725408
2.33 0.746958
2.34 0.759292
2.35 0.76228
2.36 0.753449
2.37 0.73307
2.38 0.700567
2.39 0.655691
2.4 0.600342
2.41 0.534147
2.42 0.460419
2.43 0.380536
2.44 0.297299
2.45 0.213255
2.46 0.131366
2.47 0.0537736
2.48 -0.0164695
2.49 -0.0780003
2.5 -0.12923
2.51 -0.168763
2.52 -0.197535
2.53 -0.214091
2.54 -0.22116
2.55 -0.219278
2.56 -0.210715
2.57 -0.197747
2.58 -0.182541
2.59 -0.167567
2.6 -0.155136
2.61 -0.146935
2.62 -0.144412
2.63 -0.148818
2.64 -0.159783
2.65 -0.178209
2.66 -0.202274
2.67 -0.231337
2.68 -0.263588
2.69 -0.297253
2.7 -0.330343
2.71 -0.361217
2.72 -0.387858
2.73 -0.409305
2.74 -0.424624
2.75 -0.433165
2.76 -0.435753
2.77 -0.432129
2.78 -0.424314
2.79 -0.413377
2.8 -0.401263
2.81 -0.389704
2.82 -0.380807
2.83 -0.375735
2.84 -0.376354
2.85 -0.383027
2.86 -0.396194
2.87 -0.415858
2.88 -0.440659
2.89 -0.470009
2.9 -0.501567
2.91 -0.533594
2.92 -0.563801
2.93 -0.590358
2.94 -0.610694
2.95 -0.624161
2.96 -0.628699
2.97 -0.624583
2.98 -0.611757
2.99 -0.590747
3 -0.563636
3.01 -0.531577
3.02 -0.497577
3.03 -0.463945
3.04 -0.433453
3.05 -0.408189
3.06 -0.391144
3.07 -0.382766
3.08 -0.385273
3.09 -0.397999
3.1 -0.420724
3.11 -0.452528
3.12 -0.490825
3.13 -0.534006
3.14 -0.578654
3.15 -0.622076
3.16 -0.661263
3.17 -0.694084
3.18 -0.717473
3.19 -0.731339
3.2 -0.733737
3.21 -0.725896
3.22 -0.70861
3.23 -0.683567
3.24 -0.653839
3.25 -0.622109
3.26 -0.591957
3.27 -0.566808
3.28 -0.549892
3.29 -0.543245
3.3 -0.550223
3.31 -0.570031
3.32 -0.604446
3.33 -0.651171
3.34 -0.708578
3.35 -0.773883
3.36 -0.843027
3.37 -0.911971
3.38 -0.976491
3.39 -1.0321
3.4 -1.07501
3.41 -1.10307
3.42 -1.11235
3.43 -1.10454
3.44 -1.07789
3.45 -1.03589
3.46 -0.98108
3.47 -0.917452
3.48 -0.850267
3.49 -0.784964
3.5 -0.726542
3.51 -0.680447
3.52 -0.650789
3.53 -0.639441
3.54 -0.649969
3.55 -0.679009
3.56 -0.726419
3.57 -0.785958
3.58 -0.851874
3.59 -0.915523
3.6 -0.968802
3.61 -0.998384
3.62 -0.997389
3.63 -0.953186
3.64 -0.85704
3.65 -0.704527
3.66 -0.483145
3.67 -0.199357
3.68 0.155005
3.69 0.570439
3.7 1.04207
3.71 1.5617
3.72 2.11339
3.73 2.68598
3.74 3.26033
3.75 3.81973
3.76 4.34566
3.77 4.82423
3.78 5.23217
3.79 5.56591
3.8 5.80393
3.81 5.94626
3.82 5.98688
3.83 5.92062
3.84 5.76117
3.85 5.50003
3.86 5.1613
3.87 4.74986
3.88 4.28275
3.89 3.77679
3.9 3.24609
3.91 2.70916
3.92 2.18133
3.93 1.67627
3.94 1.2057
3.95 0.781831
3.96 0.406145
3.97 0.0916944
3.98 -0.16875
3.99 -0.371279
4 -0.520695
4.01 -0.624164
4.02 -0.683871
4.03 -0.712647
4.04 -0.714681
4.05 -0.700384
4.06 -0.676375
4.07 -0.649496
4.08 -0.624916
4.09 -0.6077
4.1 -0.599457
4.11 -0.602248
4.12 -0.615835
4.13 -0.638694
4.14 -0.669596
4.15 -0.704969
4.16 -0.742228
4.17 -0.777979
4.18 -0.809404
4.19 -0.833413
4.2 -0.848894
4.21 -0.852733
4.22 -0.845802
4.23 -0.827002
4.24 -0.79708
4.25 -0.757427
4.26 -0.70841
4.27 -0.652707
4.28 -0.591108
4.29 -0.525702
4.3 -0.457699
4.31 -0.388217
4.32 -0.318137
4.33 -0.247925
4.34 -0.177809
4.35 -0.107778
4.36 -0.0376636
4.37 0.0327153
4.38 0.103552
4.39 0.174775
4.4 0.246169
4.41 0.317148
4.42 0.386877
4.43 0.45396
4.44 0.517329
4.45 0.5744
4.46 0.624224
4.47 0.664325
4.48 0.693004
4.49 0.709418
4.5 0.710783
4.51 0.698392
4.52 0.67019
4.53 0.627848
4.54 0.571976
4.55 0.503574
4.56 0.425684
4.57 0.339336
4.58 0.248284
4.59 0.154746
4.6 0.0616669
4.61 -0.0286745
4.62 -0.113397
4.63 -0.191499
4.64 -0.260659
4.65 -0.320735
4.66 -0.371274
4.67 -0.412064
4.68 -0.444725
4.69 -0.469092
4.7 -0.487675
4.71 -0.501452
4.72 -0.512226
4.73 -0.521535
4.74 -0.53077
4.75 -0.541003
4.76 -0.553224
4.77 -0.56777
4.78 -0.584807
4.79 -0.60424
4.8 -0.625399
4.81 -0.647791
4.82 -0.670416
4.83 -0.692426
4.84 -0.712898
4.85 -0.731208
4.86 -0.746409
4.87 -0.758539
4.88 -0.767023
4.89 -0.772242
4.9 -0.774428
4.91 -0.77399
4.92 -0.77178
4.93 -0.768328
4.94 -0.764559
4.95 -0.761148
4.96 -0.758768
4.97 -0.757825
4.98 -0.758879
4.99 -0.761822
5 -0.766898
5.01 -0.773772
5.02 -0.782211
5.03 -0.791893
5.04 -0.802329
5.05 -0.813203
5.06 -0.824108
5.07 -0.834777
5.08 -0.845004
5.09 -0.854711
5.1 -0.863781
5.11 -0.872285
5.12 -0.880121
5.13 -0.887247
5.14 -0.893453
5.15 -0.898266
5.16 -0.901293
5.17 -0.901275
5.18 -0.89754
5.19 -0.888454
5.2 -0.872457
5.21 -0.848382
5.22 -0.813313
5.23 -0.767155
5.24 -0.706917
5.25 -0.63255
5.26 -0.543172
5.27 -0.437889
5.28 -0.318809
5.29 -0.184972
5.3 -0.0403537
5.31 0.113394
5.32 0.272536
5.33 0.433287
5.34 0.59094
5.35 0.7416
5.36 0.879518
5.37 1.00108
5.38 1.10217
5.39 1.17786
5.4 1.22829
5.41 1.24704
5.42 1.23762
5.43 1.19773
5.44 1.12922
5.45 1.03558
5.46 0.917344
5.47 0.781505
5.48 0.630443
5.49 0.470441
5.5 0.306067
5.51 0.142599
5.52 -0.0158864
5.53 -0.163876
5.54 -0.299394
5.55 -0.418789
5.56 -0.5204
5.57 -0.60432
5.58 -0.668356
5.59 -0.715869
5.6 -0.746165
5.61 -0.762631
5.62 -0.767213
5.63 -0.762063
5.64 -0.750426
5.65 -0.73381
5.66 -0.714866
5.67 -0.694902
5.68 -0.675092
5.69 -0.655931
5.7 -0.637561
5.71 -0.619498
5.72 -0.600981
5.73 -0.580994
5.74 -0.558455
5.75 -0.531997
5.76 -0.501165
5.77 -0.464443
5.78 -0.422327
5.79 -0.374474
5.8 -0.321611
5.81 -0.26495
5.82 -0.205712
5.83 -0.145977
5.84 -0.0878563
5.85 -0.0335242
5.86 0.0148959
5.87 0.0547987
5.88 0.085458
5.89 0.103718
5.9 0.110337
5.91 0.103918
5.92 0.0848088
5.93 0.054276
5.94 0.0122489
5.95 -0.0382354
5.96 -0.0963008
5.97 -0.159166
5.98 -0.224861
5.99 -0.291169
6 -0.356273
6.01 -0.418088
6.02 -0.475772
6.03 -0.528113
6.04 -0.5747
6.05 -0.6158
6.06 -0.651127
6.07 -0.682076
6.08 -0.708998
6.09 -0.733261
6.1 -0.755802
6.11 -0.777609
6.12 -0.799487
6.13 -0.822097
6.14 -0.845633
6.15 -0.87017
6.16 -0.895388
6.17 -0.920771
6.18 -0.945527
6.19 -0.968957
6.2 -0.990013
6.21 -1.00808
6.22 -1.02257
6.23 -1.03286
6.24 -1.03934
6.25 -1.04162
6.26 -1.0408
6.27 -1.03738
6.28 -1.03243
6.29 -1.027
6.3 -1.02216
6.31 -1.01858
6.32 -1.01694
6.33 -1.01708
6.34 -1.01849
6.35 -1.01984
6.36 -1.01935
6.37 -1.01368
6.38 -1.00015
6.39 -0.97427
6.4 -0.931491
6.41 -0.868571
6.42 -0.777808
6.43 -0.658891
6.44 -0.504293
6.45 -0.313792
6.46 -0.0853077
6.47 0.183639
6.48 0.487792
6.49 0.829998
6.5 1.20079
6.51 1.59679
6.52 2.00966
6.53 2.43066
6.54 2.8498
6.55 3.25754
6.56 3.64138
6.57 3.99224
6.58 4.30048
6.59 4.55384
6.6 4.75128
6.61 4.87678
6.62 4.93605
6.63 4.92177
6.64 4.8352
6.65 4.6825
6.66 4.46058
6.67 4.18485
6.68 3.85673
6.69 3.48998
6.7 3.09379
6.71 2.67864
6.72 2.25637
6.73 1.8377
6.74 1.43193
6.75 1.04859
6.76 0.695383
6.77 0.375978
6.78 0.0993928
6.79 -0.137805
6.8 -0.329688
6.81 -0.48051
6.82 -0.591843
6.83 -0.665263
6.84 -0.708623
6.85 -0.72237
6.86 -0.715601
6.87 -0.691638
6.88 -0.656048
6.89 -0.613557
6.9 -0.567775
6.91 -0.522185
6.92 -0.479344
6.93 -0.440791
6.94 -0.407471
6.95 -0.380045
6.96 -0.357735
6.97 -0.340791
6.98 -0.32775
6.99 -0.31814
7 -0.311113
7.01 -0.306
7.02 -0.302673
7.03 -0.300861
7.04 -0.301044
7.05 -0.303641
7.06 -0.309383
7.07 -0.319433
7.08 -0.334158
7.09 -0.355282
7.1 -0.382606
7.11 -0.417004
7.12 -0.458431
7.13 -0.506173
7.14 -0.560151
7.15 -0.618409
7.16 -0.679919
7.17 -0.742567
7.18 -0.804526
7.19 -0.863507
7.2 -0.918069
7.21 -0.965517
7.22 -1.00538
7.23 -1.03607
7.24 -1.05712
7.25 -1.06906
7.26 -1.07134
7.27 -1.06621
7.28 -1.05422
7.29 -1.03771
7.3 -1.01845
7.31 -0.998505
7.32 -0.979669
7.33 -0.963967
7.34 -0.952225
7.35 -0.945477
7.36 -0.943841
7.37 -0.946611
7.38 -0.95309
7.39 -0.96116
7.4 -0.96872
7.41 -0.973073
7.42 -0.971505
7.43 -0.960383
7.44 -0.938148
7.45 -0.900061
7.46 -0.846106
7.47 -0.773548
7.48 -0.681732
7.49 -0.571768
7.5 -0.442336
7.51 -0.297726
7.52 -0.138625
7.53 0.0304921
7.54 0.206118
7.55 0.383844
7.56 0.55935
7.57 0.727121
7.58 0.88375
7.59 1.02437
7.6 1.14524
7.61 1.24478
7.62 1.3177
7.63 1.36626
7.64 1.38672
7.65 1.38141
7.66 1.35109
7.67 1.29629
7.68 1.2218
7.69 1.12759
7.7 1.01947
7.71 0.899656
7.72 0.772059
7.73 0.640259
7.74 0.507498
7.75 0.376821
7.76 0.251344
7.77 0.133187
7.78 0.0242803
7.79 -0.0730464
7.8 -0.158937
7.81 -0.230559
7.82 -0.289296
7.83 -0.333964
7.84 -0.364823
7.85 -0.383017
7.86 -0.387623
7.87 -0.381296
7.88 -0.363736
7.89 -0.337079
7.9 -0.302612
7.91 -0.261704
7.92 -0.216666
7.93 -0.168973
7.94 -0.120983
7.95 -0.0746675
7.96 -0.0322321
7.97 0.00475933
7.98 0.0334994
7.99 0.0535706
8 0.0624871
8.01 0.060042
8.02 0.0456293
8.03 0.018436
8.04 -0.019824
8.05 -0.0700263
8.06 -0.129322
8.07 -0.196798
8.08 -0.270233
8.09 -0.347291
8.1 -0.42581
8.11 -0.503415
8.12 -0.577765
8.13 -0.647121
8.14 -0.710011
8.15 -0.764828
8.16 -0.811889
8.17 -0.849806
8.18 -0.88017
8.19 -0.90321
8.2 -0.920281
8.21 -0.933037
8.22 -0.942683
8.23 -0.951076
8.24 -0.95941
8.25 -0.96869
8.26 -0.979375
8.27 -0.991436
8.28 -1.00404
8.29 -1.01568
8.3 -1.02435
8.31 -1.0272
8.32 -1.02081
8.33 -1.00254
8.34 -0.966645
8.35 -0.912095
8.36 -0.833102
8.37 -0.728519
8.38 -0.596301
8.39 -0.433603
8.4 -0.24374
8.41 -0.0236192
8.42 0.220368
8.43 0.486486
8.44 0.769335
8.45 1.06266
8.46 1.36023
8.47 1.65458
8.48 1.93751
8.49 2.20194
8.5 2.44102
8.51 2.64579
8.52 2.81472
8.53 2.93673
8.54 3.0145
8.55 3.04278
8.56 3.02143
8.57 2.95434
8.58 2.8383
8.59 2.68361
8.6 2.49045
8.61 2.26767
8.62 2.02118
8.63 1.75732
8.64 1.48439
8.65 1.20865
8.66 0.93699
8.67 0.675416
8.68 0.429387
8.69 0.201731
8.7 -0.00152047
8.71 -0.181731
8.72 -0.334917
8.73 -0.46294
8.74 -0.566468
8.75 -0.64584
8.76 -0.705732
8.77 -0.745995
8.78 -0.772159
8.79 -0.786169
8.8 -0.79145
8.81 -0.791172
8.82 -0.787627
8.83 -0.783439
8.84 -0.780452
8.85 -0.780068
8.86 -0.783206
8.87 -0.790691
8.88 -0.802192
8.89 -0.81816
8.9 -0.837569
8.91 -0.860046
8.92 -0.884729
8.93 -0.910726
8.94 -0.937258
8.95 -0.96351
8.96 -0.988746
8.97 -1.01246
8.98 -1.03426
8.99 -1.05375
9 -1.07107
9.01 -1.08588
9.02 -1.09864
9.03 -1.10936
9.04 -1.11833
9.05 -1.12585
9.06 -1.13199
9.07 -1.13708
9.08 -1.14104
9.09 -1.14389
9.1 -1.14548
9.11 -1.14537
9.12 -1.14336
9.13 -1.13851
9.14 -1.13056
9.15 -1.11855
9.16 -1.10173
9.17 -1.07972
9.18 -1.05108
9.19 -1.01621
9.2 -0.973916
9.21 -0.924544
9.22 -0.868145
9.23 -0.804698
9.24 -0.735584
9.25 -0.660979
9.26 -0.582867
9.27 -0.502487
9.28 -0.421774
9.29 -0.342497
9.3 -0.267172
9.31 -0.197202
9.32 -0.135276
9.33 -0.0827074
9.34 -0.0409358
9.35 -0.0119376
9.36 0.00501381
9.37 0.00766238
9.38 -0.00193502
9.39 -0.0239625
9.4 -0.0570309
9.41 -0.0989542
9.42 -0.148604
9.43 -0.202716
9.44 -0.25931
9.45 -0.315591
9.46 -0.369302
9.47 -0.417803
9.48 -0.459951
9.49 -0.493078
9.5 -0.517364
9.51 -0.531762
9.52 -0.536464
9.53 -0.532691
9.54 -0.520642
9.55 -0.502986
9.56 -0.480991
9.57 -0.457162
9.58 -0.433522
9.59 -0.412447
9.6 -0.395399
9.61 -0.384826
9.62 -0.381119
9.63 -0.385496
9.64 -0.398202
9.65 -0.4185
9.66 -0.44663
9.67 -0.480471
9.68 -0.51931
9.69 -0.561149
9.7 -0.604452
9.71 -0.647499
9.72 -0.688986
9.73 -0.727301
9.74 -0.761937
9.75 -0.792096
9.76 -0.817571
9.77 -0.838757
9.78 -0.855477
9.79 -0.868831
9.8 -0.878945
9.81 -0.886475
9.82 -0.891581
9.83 -0.893884
9.84 -0.893072
9.85 -0.887248
9.86 -0.875168
9.87 -0.853998
9.88 -0.820503
9.89 -0.772376
9.9 -0.703363
9.91 -0.612721
9.92 -0.493994
9.93 -0.34565
9.94 -0.165224
9.95 0.0512594
9.96 0.300356
9.97 0.586549
9.98 0.903057
9.99 1.24861
10 1.61769
10.01 2.00308
10.02 2.39844
10.03 2.79429
10.04 3.18135
10.05 3.55037
10.06 3.89264
10.07 4.1965
10.08 4.45888
10.09 4.66544
10.1 4.81775
10.11 4.90837
10.12 4.93542
10.13 4.90305
10.14 4.80533
10.15 4.65495
10.16 4.45093
10.17 4.20394
10.18 3.92129
10.19 3.61032
10.2 3.28233
10.21 2.94458
10.22 2.6069
10.23 2.27687
10.24 1.96195
10.25 1.66629
10.26 1.39751
10.27 1.15467
10.28 0.942497
10.29 0.759125
10.3 0.603553
10.31 0.475234
10.32 0.368468
10.33 0.28281
10.34 0.21178
10.35 0.152647
10.36 0.101304
10.37 0.0541554
10.38 0.00841767
10.39 -0.0383413
10.4 -0.0879768
10.41 -0.141383
10.42 -0.198939
10.43 -0.26076
10.44 -0.325823
10.45 -0.393599
10.46 -0.46258
10.47 -0.531639
10.48 -0.599424
10.49 -0.664999
10.5 -0.726964
10.51 -0.785129
10.52 -0.838528
10.53 -0.887208
10.54 -0.93113
10.55 -0.970101
10.56 -1.00486
10.57 -1.03501
10.58 -1.06134
10.59 -1.08372
10.6 -1.10217
10.61 -1.11685
10.62 -1.12697
10.63 -1.13279
10.64 -1.13332
10.65 -1.12838
10.66 -1.11756
10.67 -1.10004
10.68 -1.07638
10.69 -1.0456
10.7 -1.00884
10.71 -0.96623
10.72 -0.918692
10.73 -0.867574
10.74 -0.813966
10.75 -0.759738
10.76 -0.706575
10.77 -0.656269
10.78 -0.610429
10.79 -0.571157
10.8 -0.538999
10.81 -0.516334
10.82 -0.502772
10.83 -0.499325
10.84 -0.505998
10.85 -0.52178
10.86 -0.547096
10.87 -0.579602
10.88 -0.61884
10.89 -0.662811
10.9 -0.710027
10.91 -0.758898
10.92 -0.807823
10.93 -0.855232
10.94 -0.900073
10.95 -0.941212
10.96 -0.977848
10.97 -1.00986
10.98 -1.03637
10.99 -1.05819
11 -1.07502
11.01 -1.08764
11.02 -1.09657
11.03 -1.10231
11.04 -1.10585
11.05 -1.10761
11.06 -1.10848
11.07 -1.10895
11.08 -1.1096
11.09 -1.11079
11.1 -1.11295
11.11 -1.11613
11.12 -1.12054
11.13 -1.12608
11.14 -1.13258
11.15 -1.13979
11.16 -1.14725
11.17 -1.15431
11.18 -1.16028
11.19 -1.16416
11.2 -1.1647
11.21 -1.16095
11.22 -1.15054
11.23 -1.13279
11.24 -1.10493
11.25 -1.06559
11.26 -1.01303
11.27 -0.944267
11.28 -0.859605
11.29 -0.754959
11.3 -0.63175
11.31 -0.488229
11.32 -0.324439
11.33 -0.14241
11.34 0.0587734
11.35 0.274298
11.36 0.50288
11.37 0.739821
11.38 0.981081
11.39 1.22152
11.4 1.45645
11.41 1.679
11.42 1.88522
11.43 2.06898
11.44 2.22504
11.45 2.35153
11.46 2.4404
11.47 2.4946
11.48 2.50855
11.49 2.48455
11.5 2.42365
11.51 2.32564
11.52 2.19759
11.53 2.03927
11.54 1.85922
11.55 1.66117
11.56 1.45127
11.57 1.2355
11.58 1.01946
11.59 0.808167
11.6 0.6069
11.61 0.419098
11.62 0.247478
11.63 0.0954592
11.64 -0.0382014
11.65 -0.150481
11.66 -0.244758
11.67 -0.321337
11.68 -0.382537
11.69 -0.431769
11.7 -0.470621
11.71 -0.503381
11.72 -0.532199
11.73 -0.56001
11.74 -0.588806
11.75 -0.620474
11.76 -0.65562
11.77 -0.695211
11.78 -0.738444
11.79 -0.784727
11.8 -0.832561
11.81 -0.880212
11.82 -0.925218
11.83 -0.965732
11.84 -0.998797
11.85 -1.02247
11.86 -1.03485
11.87 -1.03316
11.88 -1.0177
11.89 -0.985267
11.9 -0.937456
11.91 -0.873325
11.92 -0.793425
11.93 -0.699775
11.94 -0.592055
11.95 -0.473992
11.96 -0.346487
11.97 -0.212583
11.98 -0.0746305
11.99 0.0647548
12 0.203035
12.01 0.337215
12.02 0.465328
12.03 0.584789
12.04 0.693306
12.05 0.789997
12.06 0.871368
12.07 0.938374
12.08 0.988326
12.09 1.02164
12.1 1.03819
12.11 1.03692
12.12 1.0203
12.13 0.986862
12.14 0.939799
12.15 0.879664
12.16 0.808314
12.17 0.728305
12.18 0.640822
12.19 0.549051
12.2 0.454745
12.21 0.360346
12.22 0.267743
12.23 0.179116
12.24 0.0954265
12.25 0.0187844
12.26 -0.0508228
12.27 -0.112546
12.28 -0.16634
12.29 -0.213107
12.3 -0.252672
12.31 -0.287046
12.32 -0.316882
12.33 -0.343911
12.34 -0.369471
12.35 -0.394979
12.36 -0.421531
12.37 -0.450321
12.38 -0.481682
12.39 -0.515971
12.4 -0.552955
12.41 -0.591855
