# xPDFsuite Configuration #
[PDF]
wavelength = 0.1432
dataformat = twotheta
inputfile = 1_1Pd_CeO2_cycle-00308.chi
backgroundfile = background-00000.chi
mode = xray
bgscale = 1.007
composition = CeO2
outputtype = gr
qmaxinst = 28.8974762299
qmin = 0.5
qmax = 27.9
rmax = 50.0
rmin = 0.0
rstep = 0.01
rpoly = 1.8657

[Misc]
inputdir = G:/SankarDec16/1Pd/Chi
savedir = D:/DATA/APS_CeO2/1Pd
backgroundfilefull = G:/SankarDec16/Background/background-00000.chi

#### start data
#S 1
#L r($\AA$)  G($\AA^{-2}$)
0 0
0.01 -0.00812381
0.02 -0.015639
0.03 -0.0219184
0.04 -0.0264894
0.05 -0.0290879
0.06 -0.0292893
0.07 -0.0273728
0.08 -0.0231985
0.09 -0.0173011
0.1 -0.0100487
0.11 -0.002007
0.12 0.00620307
0.13 0.0138887
0.14 0.0205518
0.15 0.025587
0.16 0.0286344
0.17 0.0295465
0.18 0.0280265
0.19 0.0244814
0.2 0.0189167
0.21 0.0119538
0.22 0.00404912
0.23 -0.00416317
0.24 -0.0120954
0.25 -0.019001
0.26 -0.0245139
0.27 -0.028077
0.28 -0.0294592
0.29 -0.028636
0.3 -0.025452
0.31 -0.020424
0.32 -0.0137034
0.33 -0.00597142
0.34 0.00224724
0.35 0.010277
0.36 0.0175895
0.37 0.0234166
0.38 0.0275407
0.39 0.0294773
0.4 0.0291349
0.41 0.026613
0.42 0.0219051
0.43 0.0156159
0.44 0.0080359
0.45 -0.000122928
0.46 -0.00829051
0.47 -0.0157789
0.48 -0.0221425
0.49 -0.0266255
0.5 -0.0291682
0.51 -0.0293811
0.52 -0.0273158
0.53 -0.0231929
0.54 -0.0171556
0.55 -0.00987018
0.56 -0.00175437
0.57 0.0064798
0.58 0.014242
0.59 0.0208617
0.6 0.025996
0.61 0.0289347
0.62 0.0297795
0.63 0.0282531
0.64 0.0245494
0.65 0.0190008
0.66 0.011895
0.67 0.00393127
0.68 -0.00436306
0.69 -0.0123065
0.7 -0.0193143
0.71 -0.0247619
0.72 -0.0284248
0.73 -0.0296691
0.74 -0.0287539
0.75 -0.025526
0.76 -0.0203136
0.77 -0.0135461
0.78 -0.00564299
0.79 0.00269376
0.8 0.0108515
0.81 0.0182085
0.82 0.024212
0.83 0.0283104
0.84 0.0304069
0.85 0.0299709
0.86 0.0274055
0.87 0.0226858
0.88 0.0162556
0.89 0.00861811
0.9 0.00029791
0.91 -0.00803618
0.92 -0.015726
0.93 -0.0222439
0.94 -0.0271049
0.95 -0.029869
0.96 -0.0305745
0.97 -0.0288419
0.98 -0.0251948
0.99 -0.019753
1 -0.0130571
1.01 -0.00565696
1.02 0.00183571
1.03 0.00883892
1.04 0.0146849
1.05 0.0189944
1.06 0.0213999
1.07 0.0216331
1.08 0.0199029
1.09 0.016066
1.1 0.0107787
1.11 0.00437517
1.12 -0.00247227
1.13 -0.00914681
1.14 -0.0148718
1.15 -0.0191832
1.16 -0.02132
1.17 -0.0210786
1.18 -0.018184
1.19 -0.0125173
1.2 -0.00451438
1.21 0.00579488
1.22 0.0175132
1.23 0.0300912
1.24 0.0426458
1.25 0.0544074
1.26 0.0643473
1.27 0.071985
1.28 0.0763222
1.29 0.077177
1.3 0.0741954
1.31 0.067186
1.32 0.0567062
1.33 0.0426036
1.34 0.0260002
1.35 0.00737677
1.36 -0.0122914
1.37 -0.0321336
1.38 -0.0511335
1.39 -0.068596
1.4 -0.0835081
1.41 -0.0954764
1.42 -0.104009
1.43 -0.108715
1.44 -0.109936
1.45 -0.107229
1.46 -0.101489
1.47 -0.092856
1.48 -0.0820022
1.49 -0.0695666
1.5 -0.0560832
1.51 -0.0422412
1.52 -0.0285532
1.53 -0.0154599
1.54 -0.00329358
1.55 0.00766552
1.56 0.0174372
1.57 0.0257979
1.58 0.0330215
1.59 0.0391098
1.6 0.0442473
1.61 0.0485982
1.62 0.0522034
1.63 0.0552166
1.64 0.057557
1.65 0.0592187
1.66 0.0600642
1.67 0.0598701
1.68 0.0585581
1.69 0.0556921
1.7 0.051317
1.71 0.0451457
1.72 0.037158
1.73 0.0274484
1.74 0.0159781
1.75 0.00319619
1.76 -0.0107182
1.77 -0.0252226
1.78 -0.0398714
1.79 -0.0540926
1.8 -0.0674657
1.81 -0.0792921
1.82 -0.0894033
1.83 -0.0973386
1.84 -0.10298
1.85 -0.106397
1.86 -0.107492
1.87 -0.106813
1.88 -0.10453
1.89 -0.101287
1.9 -0.0975677
1.91 -0.0939707
1.92 -0.090955
1.93 -0.0891444
1.94 -0.0886979
1.95 -0.0899443
1.96 -0.0928761
1.97 -0.0973032
1.98 -0.103044
1.99 -0.109502
2 -0.116159
2.01 -0.122308
2.02 -0.12726
2.03 -0.130182
2.04 -0.130681
2.05 -0.127677
2.06 -0.12124
2.07 -0.110739
2.08 -0.0961323
2.09 -0.0776064
2.1 -0.0549272
2.11 -0.0289102
2.12 0.000485352
2.13 0.0324887
2.14 0.0667202
2.15 0.102759
2.16 0.140056
2.17 0.178444
2.18 0.217519
2.19 0.257191
2.2 0.29735
2.21 0.337941
2.22 0.378987
2.23 0.420385
2.24 0.462059
2.25 0.503747
2.26 0.545088
2.27 0.585453
2.28 0.624275
2.29 0.660219
2.3 0.692625
2.31 0.719952
2.32 0.740957
2.33 0.75474
2.34 0.759158
2.35 0.754467
2.36 0.738617
2.37 0.71216
2.38 0.674803
2.39 0.626563
2.4 0.569298
2.41 0.50293
2.42 0.430467
2.43 0.353305
2.44 0.274001
2.45 0.194828
2.46 0.118527
2.47 0.0468649
2.48 -0.0173859
2.49 -0.0731714
2.5 -0.119159
2.51 -0.154225
2.52 -0.179385
2.53 -0.193473
2.54 -0.199116
2.55 -0.196958
2.56 -0.189197
2.57 -0.177986
2.58 -0.165457
2.59 -0.153823
2.6 -0.145311
2.61 -0.141376
2.62 -0.143311
2.63 -0.152189
2.64 -0.1675
2.65 -0.189967
2.66 -0.217692
2.67 -0.249897
2.68 -0.284693
2.69 -0.320271
2.7 -0.354514
2.71 -0.385842
2.72 -0.412121
2.73 -0.432453
2.74 -0.445892
2.75 -0.451785
2.76 -0.451074
2.77 -0.443464
2.78 -0.431168
2.79 -0.415317
2.8 -0.398025
2.81 -0.381183
2.82 -0.367101
2.83 -0.35712
2.84 -0.353366
2.85 -0.356374
2.86 -0.366785
2.87 -0.384833
2.88 -0.409168
2.89 -0.439503
2.9 -0.473321
2.91 -0.508978
2.92 -0.544047
2.93 -0.576498
2.94 -0.60362
2.95 -0.624383
2.96 -0.636453
2.97 -0.639721
2.98 -0.633786
2.99 -0.618763
3 -0.596541
3.01 -0.567773
3.02 -0.5355
3.03 -0.501767
3.04 -0.469364
3.05 -0.440523
3.06 -0.418237
3.07 -0.403416
3.08 -0.398463
3.09 -0.403207
3.1 -0.417824
3.11 -0.441876
3.12 -0.473126
3.13 -0.510532
3.14 -0.550812
3.15 -0.591644
3.16 -0.630128
3.17 -0.664082
3.18 -0.690562
3.19 -0.709049
3.2 -0.717513
3.21 -0.71669
3.22 -0.707007
3.23 -0.689684
3.24 -0.667385
3.25 -0.642264
3.26 -0.617658
3.27 -0.596612
3.28 -0.582179
3.29 -0.576384
3.3 -0.582424
3.31 -0.599856
3.32 -0.630505
3.33 -0.67251
3.34 -0.724573
3.35 -0.784331
3.36 -0.848115
3.37 -0.912363
3.38 -0.973092
3.39 -1.02616
3.4 -1.06795
3.41 -1.09632
3.42 -1.10746
3.43 -1.10275
3.44 -1.08035
3.45 -1.04334
3.46 -0.993946
3.47 -0.935736
3.48 -0.873621
3.49 -0.812556
3.5 -0.757345
3.51 -0.713097
3.52 -0.68379
3.53 -0.671309
3.54 -0.679108
3.55 -0.70417
3.56 -0.746435
3.57 -0.800082
3.58 -0.859679
3.59 -0.916989
3.6 -0.964248
3.61 -0.988582
3.62 -0.983287
3.63 -0.936029
3.64 -0.838175
3.65 -0.685263
3.66 -0.464848
3.67 -0.183053
3.68 0.168424
3.69 0.580484
3.7 1.04858
3.71 1.56492
3.72 2.11385
3.73 2.68466
3.74 3.25832
3.75 3.81837
3.76 4.34631
3.77 4.82817
3.78 5.24063
3.79 5.57975
3.8 5.82376
3.81 5.97227
3.82 6.01887
3.83 5.95792
3.84 5.80282
3.85 5.54456
3.86 5.20718
3.87 4.79529
3.88 4.32589
3.89 3.81599
3.9 3.27969
3.91 2.73597
3.92 2.20041
3.93 1.68719
3.94 1.20845
3.95 0.776893
3.96 0.394343
3.97 0.0744053
3.98 -0.190064
3.99 -0.394848
4 -0.544713
4.01 -0.646956
4.02 -0.703754
4.03 -0.728411
4.04 -0.725321
4.05 -0.705403
4.06 -0.675678
4.07 -0.643472
4.08 -0.614279
4.09 -0.593685
4.1 -0.583383
4.11 -0.585712
4.12 -0.600454
4.13 -0.625945
4.14 -0.660925
4.15 -0.701368
4.16 -0.744443
4.17 -0.786264
4.18 -0.823605
4.19 -0.852882
4.2 -0.872692
4.21 -0.879378
4.22 -0.873775
4.23 -0.85451
4.24 -0.822342
4.25 -0.778833
4.26 -0.724398
4.27 -0.662217
4.28 -0.59335
4.29 -0.52042
4.3 -0.445077
4.31 -0.368972
4.32 -0.293305
4.33 -0.219141
4.34 -0.146752
4.35 -0.0764471
4.36 -0.00807243
4.37 0.0587135
4.38 0.124107
4.39 0.188562
4.4 0.2521
4.41 0.314693
4.42 0.375962
4.43 0.435057
4.44 0.491288
4.45 0.542689
4.46 0.588438
4.47 0.626433
4.48 0.655067
4.49 0.673405
4.5 0.678762
4.51 0.671948
4.52 0.650782
4.53 0.61641
4.54 0.569044
4.55 0.509196
4.56 0.439496
4.57 0.360436
4.58 0.275538
4.59 0.186648
4.6 0.0965389
4.61 0.00748992
4.62 -0.0777971
4.63 -0.157967
4.64 -0.230691
4.65 -0.295421
4.66 -0.351426
4.67 -0.398143
4.68 -0.436828
4.69 -0.466952
4.7 -0.490769
4.71 -0.508978
4.72 -0.523212
4.73 -0.534969
4.74 -0.545495
4.75 -0.556069
4.76 -0.56768
4.77 -0.580921
4.78 -0.596142
4.79 -0.613482
4.8 -0.632506
4.81 -0.652957
4.82 -0.673989
4.83 -0.694918
4.84 -0.714899
4.85 -0.733304
4.86 -0.749217
4.87 -0.762509
4.88 -0.772523
4.89 -0.779435
4.9 -0.7833
4.91 -0.78431
4.92 -0.783171
4.93 -0.78017
4.94 -0.776196
4.95 -0.771791
4.96 -0.767625
4.97 -0.764175
4.98 -0.762021
4.99 -0.761283
5 -0.76234
5.01 -0.765107
5.02 -0.76957
5.03 -0.775673
5.04 -0.783086
5.05 -0.791806
5.06 -0.801456
5.07 -0.811949
5.08 -0.823108
5.09 -0.834785
5.1 -0.846905
5.11 -0.859273
5.12 -0.871707
5.13 -0.883884
5.14 -0.895375
5.15 -0.905441
5.16 -0.913471
5.17 -0.917905
5.18 -0.917952
5.19 -0.911768
5.2 -0.897693
5.21 -0.874564
5.22 -0.83935
5.23 -0.792158
5.24 -0.729988
5.25 -0.653019
5.26 -0.560527
5.27 -0.451811
5.28 -0.329199
5.29 -0.191939
5.3 -0.0441703
5.31 0.112282
5.32 0.273564
5.33 0.435855
5.34 0.594343
5.35 0.745242
5.36 0.882789
5.37 1.00351
5.38 1.10343
5.39 1.17773
5.4 1.22673
5.41 1.24417
5.42 1.23368
5.43 1.19311
5.44 1.12438
5.45 1.03101
5.46 0.913614
5.47 0.77907
5.48 0.629754
5.49 0.471806
5.5 0.309681
5.51 0.148506
5.52 -0.00778524
5.53 -0.153866
5.54 -0.287854
5.55 -0.406239
5.56 -0.507441
5.57 -0.591557
5.58 -0.656471
5.59 -0.70541
5.6 -0.737668
5.61 -0.756463
5.62 -0.763608
5.63 -0.761079
5.64 -0.751955
5.65 -0.737532
5.66 -0.720347
5.67 -0.701544
5.68 -0.682204
5.69 -0.662813
5.7 -0.643425
5.71 -0.623708
5.72 -0.602922
5.73 -0.580248
5.74 -0.554767
5.75 -0.525328
5.76 -0.491677
5.77 -0.452572
5.78 -0.408646
5.79 -0.359773
5.8 -0.306805
5.81 -0.250975
5.82 -0.193634
5.83 -0.136673
5.84 -0.0822008
5.85 -0.0321438
5.86 0.0115736
5.87 0.0466137
5.88 0.0725215
5.89 0.0864859
5.9 0.0894765
5.91 0.0803921
5.92 0.0597769
5.93 0.0289618
5.94 -0.0119012
5.95 -0.0599828
5.96 -0.114345
5.97 -0.172489
5.98 -0.232659
5.99 -0.292931
6 -0.351848
6.01 -0.407707
6.02 -0.45999
6.03 -0.507862
6.04 -0.551209
6.05 -0.590443
6.06 -0.625618
6.07 -0.657959
6.08 -0.687984
6.09 -0.716795
6.1 -0.745148
6.11 -0.773771
6.12 -0.803047
6.13 -0.833293
6.14 -0.864265
6.15 -0.895634
6.16 -0.926693
6.17 -0.956696
6.18 -0.984424
6.19 -1.00926
6.2 -1.02988
6.21 -1.04587
6.22 -1.05674
6.23 -1.06206
6.24 -1.0626
6.25 -1.05823
6.26 -1.05051
6.27 -1.0403
6.28 -1.02907
6.29 -1.01813
6.3 -1.00894
6.31 -1.0022
6.32 -0.998834
6.33 -0.998586
6.34 -1.00087
6.35 -1.00424
6.36 -1.00659
6.37 -1.00438
6.38 -0.994541
6.39 -0.972272
6.4 -0.932702
6.41 -0.872368
6.42 -0.783247
6.43 -0.665026
6.44 -0.509994
6.45 -0.318041
6.46 -0.0871791
6.47 0.184921
6.48 0.492707
6.49 0.83879
6.5 1.21338
6.51 1.61279
6.52 2.02842
6.53 2.45136
6.54 2.87134
6.55 3.27889
6.56 3.66138
6.57 4.00993
6.58 4.31501
6.59 4.56461
6.6 4.75801
6.61 4.87948
6.62 4.93506
6.63 4.91775
6.64 4.82911
6.65 4.67542
6.66 4.45388
6.67 4.17977
6.68 3.85462
6.69 3.49194
6.7 3.10073
6.71 2.6912
6.72 2.2748
6.73 1.8619
6.74 1.46143
6.75 1.08254
6.76 0.732629
6.77 0.415191
6.78 0.138904
6.79 -0.0995027
6.8 -0.294266
6.81 -0.449381
6.82 -0.566235
6.83 -0.646153
6.84 -0.696578
6.85 -0.717635
6.86 -0.718012
6.87 -0.700675
6.88 -0.670856
6.89 -0.633098
6.9 -0.59068
6.91 -0.547182
6.92 -0.504999
6.93 -0.465868
6.94 -0.430872
6.95 -0.400867
6.96 -0.375413
6.97 -0.354997
6.98 -0.33849
6.99 -0.325681
7 -0.31596
7.01 -0.308781
7.02 -0.304203
7.03 -0.301862
7.04 -0.302271
7.05 -0.305659
7.06 -0.312591
7.07 -0.324
7.08 -0.340018
7.09 -0.362082
7.1 -0.389827
7.11 -0.423918
7.12 -0.464199
7.13 -0.509972
7.14 -0.561103
7.15 -0.615878
7.16 -0.673395
7.17 -0.731856
7.18 -0.789723
7.19 -0.845083
7.2 -0.896748
7.21 -0.942486
7.22 -0.981922
7.23 -1.01375
7.24 -1.03758
7.25 -1.05386
7.26 -1.06209
7.27 -1.06412
7.28 -1.06031
7.29 -1.05252
7.3 -1.04214
7.31 -1.0307
7.32 -1.01962
7.33 -1.01029
7.34 -1.00335
7.35 -0.999418
7.36 -0.998412
7.37 -0.999671
7.38 -1.00227
7.39 -1.00455
7.4 -1.00444
7.41 -0.999765
7.42 -0.98819
7.43 -0.966562
7.44 -0.933819
7.45 -0.885764
7.46 -0.822749
7.47 -0.742472
7.48 -0.644576
7.49 -0.530249
7.5 -0.398482
7.51 -0.253264
7.52 -0.0953696
7.53 0.0710862
7.54 0.242852
7.55 0.415822
7.56 0.586097
7.57 0.748478
7.58 0.899906
7.59 1.0358
7.6 1.15263
7.61 1.24893
7.62 1.31956
7.63 1.36662
7.64 1.38639
7.65 1.38099
7.66 1.35098
7.67 1.29669
7.68 1.22268
7.69 1.12868
7.7 1.02037
7.71 0.899818
7.72 0.770879
7.73 0.637171
7.74 0.501945
7.75 0.368442
7.76 0.239919
7.77 0.118732
7.78 0.00702253
7.79 -0.0926167
7.8 -0.1802
7.81 -0.252611
7.82 -0.311244
7.83 -0.354801
7.84 -0.38358
7.85 -0.39886
7.86 -0.399788
7.87 -0.38932
7.88 -0.367349
7.89 -0.336306
7.9 -0.297722
7.91 -0.253257
7.92 -0.205349
7.93 -0.155756
7.94 -0.106796
7.95 -0.0605281
7.96 -0.0190859
7.97 0.0161356
7.98 0.042441
7.99 0.0597235
8 0.0657209
8.01 0.0605144
8.02 0.0437365
8.03 0.0148439
8.04 -0.0243668
8.05 -0.0745302
8.06 -0.132897
8.07 -0.198534
8.08 -0.26936
8.09 -0.34326
8.1 -0.418285
8.11 -0.492379
8.12 -0.563518
8.13 -0.630252
8.14 -0.691373
8.15 -0.745576
8.16 -0.793199
8.17 -0.83314
8.18 -0.866793
8.19 -0.894389
8.2 -0.917078
8.21 -0.936216
8.22 -0.952745
8.23 -0.96811
8.24 -0.983122
8.25 -0.99842
8.26 -1.01413
8.27 -1.02985
8.28 -1.04468
8.29 -1.05672
8.3 -1.06417
8.31 -1.0641
8.32 -1.05327
8.33 -1.02932
8.34 -0.986697
8.35 -0.924837
8.36 -0.838271
8.37 -0.726265
8.38 -0.58711
8.39 -0.418346
8.4 -0.223428
8.41 0.000366117
8.42 0.246726
8.43 0.513807
8.44 0.796301
8.45 1.08817
8.46 1.38329
8.47 1.67458
8.48 1.95408
8.49 2.21506
8.5 2.45092
8.51 2.65304
8.52 2.82001
8.53 2.94102
8.54 3.01874
8.55 3.04795
8.56 3.02846
8.57 2.96397
8.58 2.85116
8.59 2.7
8.6 2.51047
8.61 2.29109
8.62 2.04755
8.63 1.78589
8.64 1.5143
8.65 1.23875
8.66 0.966197
8.67 0.702545
8.68 0.453316
8.69 0.221503
8.7 0.0131996
8.71 -0.172633
8.72 -0.331835
8.73 -0.465966
8.74 -0.575449
8.75 -0.660332
8.76 -0.725129
8.77 -0.769379
8.78 -0.798579
8.79 -0.814509
8.8 -0.820555
8.81 -0.819964
8.82 -0.814957
8.83 -0.808423
8.84 -0.802246
8.85 -0.798078
8.86 -0.797028
8.87 -0.800137
8.88 -0.807293
8.89 -0.819189
8.9 -0.834955
8.91 -0.854413
8.92 -0.876842
8.93 -0.901393
8.94 -0.927458
8.95 -0.954098
8.96 -0.980653
8.97 -1.00647
8.98 -1.03107
8.99 -1.05391
9 -1.07492
9.01 -1.0936
9.02 -1.11015
9.03 -1.1244
9.04 -1.13639
9.05 -1.14631
9.06 -1.15392
9.07 -1.15957
9.08 -1.16299
9.09 -1.16426
9.1 -1.16321
9.11 -1.15947
9.12 -1.15307
9.13 -1.14317
9.14 -1.12981
9.15 -1.11232
9.16 -1.09023
9.17 -1.06345
9.18 -1.03093
9.19 -0.993194
9.2 -0.949409
9.21 -0.899984
9.22 -0.845049
9.23 -0.784671
9.24 -0.719969
9.25 -0.65113
9.26 -0.579694
9.27 -0.506635
9.28 -0.433453
9.29 -0.361509
9.3 -0.292784
9.31 -0.228369
9.32 -0.170422
9.33 -0.120028
9.34 -0.078408
9.35 -0.0472785
9.36 -0.0261681
9.37 -0.0171548
9.38 -0.0187271
9.39 -0.0313163
9.4 -0.054063
9.41 -0.0853386
9.42 -0.124661
9.43 -0.169307
9.44 -0.218011
9.45 -0.26842
9.46 -0.31868
9.47 -0.366644
9.48 -0.410986
9.49 -0.449468
9.5 -0.481687
9.51 -0.506448
9.52 -0.523402
9.53 -0.533097
9.54 -0.535094
9.55 -0.531262
9.56 -0.522062
9.57 -0.509319
9.58 -0.494463
9.59 -0.47915
9.6 -0.464854
9.61 -0.453343
9.62 -0.445495
9.63 -0.442505
9.64 -0.445062
9.65 -0.453112
9.66 -0.467396
9.67 -0.486759
9.68 -0.511252
9.69 -0.539722
9.7 -0.571339
9.71 -0.605225
9.72 -0.640261
9.73 -0.675649
9.74 -0.71058
9.75 -0.744428
9.76 -0.776692
9.77 -0.807173
9.78 -0.835355
9.79 -0.861362
9.8 -0.884662
9.81 -0.905037
9.82 -0.921924
9.83 -0.934095
9.84 -0.940921
9.85 -0.939669
9.86 -0.929236
9.87 -0.906523
9.88 -0.86845
9.89 -0.813185
9.9 -0.734654
9.91 -0.63301
9.92 -0.502296
9.93 -0.341784
9.94 -0.149655
9.95 0.0773225
9.96 0.335344
9.97 0.62818
9.98 0.949076
9.99 1.29651
10 1.66505
10.01 2.04784
10.02 2.43866
10.03 2.82875
10.04 3.20922
10.05 3.57145
10.06 3.90724
10.07 4.20551
10.08 4.46344
10.09 4.66721
10.1 4.8183
10.11 4.90942
10.12 4.93853
10.13 4.90945
10.14 4.816
10.15 4.67034
10.16 4.47103
10.17 4.22829
10.18 3.94901
10.19 3.64007
10.2 3.31272
10.21 2.97383
10.22 2.63346
10.23 2.29923
10.24 1.97888
10.25 1.677
10.26 1.4016
10.27 1.15227
10.28 0.934267
10.29 0.746174
10.3 0.587353
10.31 0.457681
10.32 0.351395
10.33 0.268361
10.34 0.201694
10.35 0.148513
10.36 0.104263
10.37 0.0648173
10.38 0.0268117
10.39 -0.012768
10.4 -0.0564493
10.41 -0.105601
10.42 -0.161001
10.43 -0.223233
10.44 -0.291118
10.45 -0.364469
10.46 -0.441225
10.47 -0.520041
10.48 -0.598993
10.49 -0.676478
10.5 -0.750383
10.51 -0.819803
10.52 -0.882948
10.53 -0.939282
10.54 -0.988265
10.55 -1.0291
10.56 -1.06269
10.57 -1.08813
10.58 -1.10685
10.59 -1.11888
10.6 -1.12486
10.61 -1.1257
10.62 -1.12131
10.63 -1.11286
10.64 -1.10022
10.65 -1.08398
10.66 -1.06433
10.67 -1.04122
10.68 -1.01517
10.69 -0.985877
10.7 -0.953949
10.71 -0.919487
10.72 -0.882935
10.73 -0.844907
10.74 -0.80596
10.75 -0.766979
10.76 -0.728881
10.77 -0.692628
10.78 -0.659153
10.79 -0.62976
10.8 -0.604843
10.81 -0.586036
10.82 -0.573258
10.83 -0.567387
10.84 -0.568704
10.85 -0.576756
10.86 -0.592241
10.87 -0.613695
10.88 -0.641183
10.89 -0.67344
10.9 -0.709552
10.91 -0.748577
10.92 -0.789169
10.93 -0.830339
10.94 -0.870939
10.95 -0.909993
10.96 -0.946573
10.97 -0.980217
10.98 -1.00991
10.99 -1.03587
11 -1.05747
11.01 -1.07503
11.02 -1.0887
11.03 -1.09858
11.04 -1.10552
11.05 -1.10964
11.06 -1.1119
11.07 -1.1128
11.08 -1.11305
11.09 -1.11325
11.1 -1.11405
11.11 -1.11583
11.12 -1.11909
11.13 -1.12396
11.14 -1.13049
11.15 -1.13859
11.16 -1.14776
11.17 -1.15744
11.18 -1.16669
11.19 -1.17436
11.2 -1.17891
11.21 -1.1791
11.22 -1.17217
11.23 -1.15722
11.24 -1.13109
11.25 -1.09226
11.26 -1.03887
11.27 -0.967794
11.28 -0.879543
11.29 -0.770011
11.3 -0.641026
11.31 -0.491092
11.32 -0.320665
11.33 -0.132159
11.34 0.0748509
11.35 0.295276
11.36 0.527385
11.37 0.76631
11.38 1.00788
11.39 1.24679
11.4 1.47864
11.41 1.69653
11.42 1.89699
11.43 2.0742
11.44 2.22338
11.45 2.34311
11.46 2.42588
11.47 2.47499
11.48 2.48534
11.49 2.45945
11.5 2.39851
11.51 2.30251
11.52 2.17823
11.53 2.02549
11.54 1.85231
11.55 1.66212
11.56 1.46057
11.57 1.25316
11.58 1.04489
11.59 0.840418
11.6 0.644475
11.61 0.46024
11.62 0.29023
11.63 0.137608
11.64 0.00140243
11.65 -0.115505
11.66 -0.215971
11.67 -0.300052
11.68 -0.369589
11.69 -0.427502
11.7 -0.474852
11.71 -0.515489
11.72 -0.551047
11.73 -0.584151
11.74 -0.616559
11.75 -0.649868
11.76 -0.68488
11.77 -0.722386
11.78 -0.762024
11.79 -0.803394
11.8 -0.845406
11.81 -0.886775
11.82 -0.925489
11.83 -0.960127
11.84 -0.988192
11.85 -1.00804
11.86 -1.01802
11.87 -1.0156
11.88 -1.00096
11.89 -0.971052
11.9 -0.927092
11.91 -0.867971
11.92 -0.793877
11.93 -0.706426
11.94 -0.604879
11.95 -0.492572
11.96 -0.369969
11.97 -0.239817
11.98 -0.10424
11.99 0.0344334
12 0.173536
12.01 0.310278
12.02 0.442348
12.03 0.56704
12.04 0.681749
12.05 0.785215
12.06 0.873597
12.07 0.947454
12.08 1.00371
12.09 1.04246
12.1 1.06335
12.11 1.06503
12.12 1.05004
12.13 1.01664
12.14 0.968305
12.15 0.905625
12.16 0.830679
12.17 0.746326
12.18 0.653974
12.19 0.557169
12.2 0.457945
12.21 0.359018
12.22 0.262487
12.23 0.17077
12.24 0.0848363
12.25 0.00698339
12.26 -0.0629416
12.27 -0.124105
12.28 -0.176595
12.29 -0.221513
12.3 -0.25882
12.31 -0.290776
12.32 -0.318209
12.33 -0.343036
12.34 -0.366725
12.35 -0.390841
12.36 -0.416482
12.37 -0.444943
12.38 -0.476465
12.39 -0.511374
12.4 -0.549343
12.41 -0.589468
12.42 -0.630685
