# xPDFsuite Configuration #
[PDF]
wavelength = 0.1432
dataformat = twotheta
inputfile = 1_1Pd_CeO2_cycle-00104.chi
backgroundfile = background-00000.chi
mode = xray
bgscale = 1.007
composition = CeO2
outputtype = gr
qmaxinst = 28.8974762299
qmin = 0.5
qmax = 27.9
rmax = 50.0
rmin = 0.0
rstep = 0.01
rpoly = 1.8657

[Misc]
inputdir = G:/SankarDec16/1Pd/Chi
savedir = D:/DATA/APS_CeO2/1Pd
backgroundfilefull = G:/SankarDec16/Background/background-00000.chi

#### start data
#S 1
#L r($\AA$)  G($\AA^{-2}$)
0 0
0.01 -0.00589984
0.02 -0.0113563
0.03 -0.0159127
0.04 -0.0192249
0.05 -0.0211012
0.06 -0.0212331
0.07 -0.0198249
0.08 -0.0167762
0.09 -0.0124773
0.1 -0.00719778
0.11 -0.00135071
0.12 0.00461188
0.13 0.0101842
0.14 0.0150055
0.15 0.0186355
0.16 0.0208146
0.17 0.0214377
0.18 0.0202924
0.19 0.0176774
0.2 0.0136011
0.21 0.00851778
0.22 0.00276238
0.23 -0.00320156
0.24 -0.0089475
0.25 -0.0139305
0.26 -0.0178886
0.27 -0.0204184
0.28 -0.0213568
0.29 -0.0206904
0.3 -0.0183122
0.31 -0.0146026
0.32 -0.009678
0.33 -0.0040364
0.34 0.00193743
0.35 0.00775034
0.36 0.013021
0.37 0.0171902
0.38 0.020107
0.39 0.0214235
0.4 0.0210806
0.41 0.0191575
0.42 0.0156584
0.43 0.0110274
0.44 0.00548431
0.45 -0.000451894
0.46 -0.0063642
0.47 -0.0117522
0.48 -0.0162974
0.49 -0.0194522
0.5 -0.0211838
0.51 -0.0212161
0.52 -0.019597
0.53 -0.0164952
0.54 -0.012026
0.55 -0.0066777
0.56 -0.000763161
0.57 0.00520084
0.58 0.0107844
0.59 0.0155025
0.6 0.0191147
0.61 0.0211101
0.62 0.021576
0.63 0.0203211
0.64 0.0174987
0.65 0.0133597
0.66 0.0081259
0.67 0.00230722
0.68 -0.00370407
0.69 -0.00941701
0.7 -0.0144086
0.71 -0.0182312
0.72 -0.0207338
0.73 -0.0214654
0.74 -0.0206298
0.75 -0.0181291
0.76 -0.014215
0.77 -0.00920849
0.78 -0.00342746
0.79 0.00262027
0.8 0.00848248
0.81 0.0137168
0.82 0.0179278
0.83 0.0207265
0.84 0.0220584
0.85 0.0215548
0.86 0.0195247
0.87 0.015968
0.88 0.0112212
0.89 0.00565778
0.9 -0.000327306
0.91 -0.00625619
0.92 -0.0116456
0.93 -0.0161285
0.94 -0.0193642
0.95 -0.0210522
0.96 -0.0212418
0.97 -0.0196839
0.98 -0.0167784
0.99 -0.012639
1 -0.00767705
1.01 -0.00230299
1.02 0.00301638
1.03 0.00786957
1.04 0.0117579
1.05 0.0144254
1.06 0.0156152
1.07 0.0151499
1.08 0.0132092
1.09 0.00971053
1.1 0.00516166
1.11 -0.000166818
1.12 -0.00575878
1.13 -0.0111456
1.14 -0.0157298
1.15 -0.0191713
1.16 -0.0208854
1.17 -0.0207267
1.18 -0.0184846
1.19 -0.0140633
1.2 -0.00779576
1.21 0.000319438
1.22 0.00959938
1.23 0.0196516
1.24 0.0298192
1.25 0.0395259
1.26 0.0480189
1.27 0.0549168
1.28 0.0594807
1.29 0.0615443
1.3 0.0608213
1.31 0.0571326
1.32 0.0508512
1.33 0.041804
1.34 0.030781
1.35 0.0180706
1.36 0.00434036
1.37 -0.0098038
1.38 -0.0236924
1.39 -0.0367977
1.4 -0.0484439
1.41 -0.0583085
1.42 -0.0660297
1.43 -0.0713014
1.44 -0.0742968
1.45 -0.0746691
1.46 -0.0729614
1.47 -0.0692054
1.48 -0.0637935
1.49 -0.0571093
1.5 -0.0494291
1.51 -0.04121
1.52 -0.0327162
1.53 -0.024252
1.54 -0.0160197
1.55 -0.0081971
1.56 -0.000828409
1.57 0.0059556
1.58 0.0122353
1.59 0.0179762
1.6 0.0232184
1.61 0.0279954
1.62 0.0322511
1.63 0.0360199
1.64 0.0391625
1.65 0.0416322
1.66 0.0432915
1.67 0.0439541
1.68 0.0435919
1.69 0.0418785
1.7 0.0389174
1.71 0.0345326
1.72 0.0287684
1.73 0.0217408
1.74 0.0134649
1.75 0.00428481
1.76 -0.0056606
1.77 -0.0160062
1.78 -0.0264743
1.79 -0.0367331
1.8 -0.0465539
1.81 -0.0555918
1.82 -0.0637961
1.83 -0.0709939
1.84 -0.0772035
1.85 -0.0825308
1.86 -0.0870484
1.87 -0.091056
1.88 -0.0947455
1.89 -0.0984147
1.9 -0.102295
1.91 -0.106621
1.92 -0.111468
1.93 -0.116979
1.94 -0.122993
1.95 -0.12939
1.96 -0.135853
1.97 -0.142034
1.98 -0.147381
1.99 -0.151524
2 -0.153742
2.01 -0.153687
2.02 -0.150874
2.03 -0.1448
2.04 -0.135572
2.05 -0.122518
2.06 -0.106236
2.07 -0.0865861
2.08 -0.0639874
2.09 -0.0389336
2.1 -0.0117035
2.11 0.0169403
2.12 0.0466587
2.13 0.0768884
2.14 0.107299
2.15 0.137622
2.16 0.167764
2.17 0.197727
2.18 0.227698
2.19 0.257947
2.2 0.288838
2.21 0.320684
2.22 0.353979
2.23 0.388776
2.24 0.4254
2.25 0.463598
2.26 0.503109
2.27 0.543342
2.28 0.583471
2.29 0.622221
2.3 0.658498
2.31 0.690616
2.32 0.717016
2.33 0.736518
2.34 0.746713
2.35 0.747622
2.36 0.736948
2.37 0.715109
2.38 0.681677
2.39 0.636554
2.4 0.581647
2.41 0.516745
2.42 0.445017
2.43 0.367848
2.44 0.287893
2.45 0.207532
2.46 0.129553
2.47 0.0558725
2.48 -0.0106868
2.49 -0.0689547
2.5 -0.117525
2.51 -0.155189
2.52 -0.182893
2.53 -0.199373
2.54 -0.207202
2.55 -0.206929
2.56 -0.200678
2.57 -0.190547
2.58 -0.178542
2.59 -0.16689
2.6 -0.157691
2.61 -0.152429
2.62 -0.152379
2.63 -0.158611
2.64 -0.170732
2.65 -0.189473
2.66 -0.213135
2.67 -0.241055
2.68 -0.271542
2.69 -0.302963
2.7 -0.333443
2.71 -0.361538
2.72 -0.385375
2.73 -0.404145
2.74 -0.417032
2.75 -0.423495
2.76 -0.424376
2.77 -0.419502
2.78 -0.410817
2.79 -0.399381
2.8 -0.387065
2.81 -0.375517
2.82 -0.366782
2.83 -0.361936
2.84 -0.362799
2.85 -0.369702
2.86 -0.383082
2.87 -0.402968
2.88 -0.428047
2.89 -0.457823
2.9 -0.490015
2.91 -0.522995
2.92 -0.554547
2.93 -0.582882
2.94 -0.60551
2.95 -0.621708
2.96 -0.629418
2.97 -0.628778
2.98 -0.619602
2.99 -0.602225
3 -0.578546
3.01 -0.54943
3.02 -0.517739
3.03 -0.485524
3.04 -0.455402
3.05 -0.429402
3.06 -0.410332
3.07 -0.398829
3.08 -0.397065
3.09 -0.404653
3.1 -0.421583
3.11 -0.447237
3.12 -0.47937
3.13 -0.516774
3.14 -0.556326
3.15 -0.595712
3.16 -0.63219
3.17 -0.663751
3.18 -0.687623
3.19 -0.703501
3.2 -0.709553
3.21 -0.706674
3.22 -0.695422
3.23 -0.677143
3.24 -0.654476
3.25 -0.629663
3.26 -0.605886
3.27 -0.586136
3.28 -0.57331
3.29 -0.569272
3.3 -0.577044
3.31 -0.596032
3.32 -0.627886
3.33 -0.670657
3.34 -0.722968
3.35 -0.782405
3.36 -0.845374
3.37 -0.908306
3.38 -0.967399
3.39 -1.01862
3.4 -1.05853
3.41 -1.08514
3.42 -1.09483
3.43 -1.08908
3.44 -1.06621
3.45 -1.02931
3.46 -0.980636
3.47 -0.923733
3.48 -0.863368
3.49 -0.804417
3.5 -0.751461
3.51 -0.709436
3.52 -0.682102
3.53 -0.671188
3.54 -0.679911
3.55 -0.705224
3.56 -0.7469
3.57 -0.799182
3.58 -0.856672
3.59 -0.911232
3.6 -0.955324
3.61 -0.97626
3.62 -0.967626
3.63 -0.917365
3.64 -0.817133
3.65 -0.662669
3.66 -0.441869
3.67 -0.160847
3.68 0.188447
3.69 0.597029
3.7 1.06039
3.71 1.57086
3.72 2.11311
3.73 2.67661
3.74 3.24275
3.75 3.79539
3.76 4.31644
3.77 4.79218
3.78 5.19975
3.79 5.53525
3.8 5.77728
3.81 5.92535
3.82 5.9731
3.83 5.91484
3.84 5.76366
3.85 5.51044
3.86 5.17878
3.87 4.773
3.88 4.30973
3.89 3.80565
3.9 3.27449
3.91 2.73509
3.92 2.2027
3.93 1.6915
3.94 1.21355
3.95 0.781609
3.96 0.397715
3.97 0.0755485
3.98 -0.19166
3.99 -0.39946
4 -0.552296
4.01 -0.657203
4.02 -0.71603
4.03 -0.741966
4.04 -0.739147
4.05 -0.718496
4.06 -0.687016
4.07 -0.652066
4.08 -0.619373
4.09 -0.594625
4.1 -0.579857
4.11 -0.577649
4.12 -0.58809
4.13 -0.609755
4.14 -0.641717
4.15 -0.680028
4.16 -0.72212
4.17 -0.76408
4.18 -0.802697
4.19 -0.834351
4.2 -0.857395
4.21 -0.86808
4.22 -0.866887
4.23 -0.852209
4.24 -0.824491
4.25 -0.785047
4.26 -0.733961
4.27 -0.67431
4.28 -0.606885
4.29 -0.534306
4.3 -0.458188
4.31 -0.380191
4.32 -0.301738
4.33 -0.223947
4.34 -0.147438
4.35 -0.0727303
4.36 2.40181e-05
4.37 0.0709146
4.38 0.139808
4.39 0.207023
4.4 0.272291
4.41 0.335543
4.42 0.396321
4.43 0.453732
4.44 0.507275
4.45 0.554965
4.46 0.596313
4.47 0.62938
4.48 0.652849
4.49 0.666041
4.5 0.666584
4.51 0.655482
4.52 0.630858
4.53 0.593974
4.54 0.545178
4.55 0.485108
4.56 0.416271
4.57 0.33928
4.58 0.257373
4.59 0.172314
4.6 0.0866334
4.61 0.00236476
4.62 -0.078042
4.63 -0.153491
4.64 -0.221936
4.65 -0.283026
4.66 -0.336219
4.67 -0.381149
4.68 -0.419042
4.69 -0.449571
4.7 -0.474786
4.71 -0.495381
4.72 -0.512808
4.73 -0.528345
4.74 -0.543038
4.75 -0.557865
4.76 -0.573543
4.77 -0.590398
4.78 -0.60854
4.79 -0.627832
4.8 -0.647787
4.81 -0.667849
4.82 -0.687313
4.83 -0.705416
4.84 -0.721445
4.85 -0.734977
4.86 -0.745252
4.87 -0.752509
4.88 -0.756374
4.89 -0.757389
4.9 -0.755936
4.91 -0.7526
4.92 -0.748252
4.93 -0.743638
4.94 -0.739594
4.95 -0.736883
4.96 -0.736137
4.97 -0.737661
4.98 -0.742007
4.99 -0.748837
5 -0.758309
5.01 -0.769859
5.02 -0.783074
5.03 -0.797404
5.04 -0.812189
5.05 -0.82684
5.06 -0.840858
5.07 -0.85378
5.08 -0.865308
5.09 -0.875359
5.1 -0.883703
5.11 -0.890602
5.12 -0.895947
5.13 -0.899925
5.14 -0.902496
5.15 -0.903408
5.16 -0.90251
5.17 -0.898808
5.18 -0.891816
5.19 -0.880128
5.2 -0.862335
5.21 -0.837323
5.22 -0.802323
5.23 -0.757086
5.24 -0.698645
5.25 -0.626733
5.26 -0.540304
5.27 -0.43824
5.28 -0.322407
5.29 -0.191575
5.3 -0.0495322
5.31 0.10229
5.32 0.260295
5.33 0.420733
5.34 0.579014
5.35 0.731064
5.36 0.871112
5.37 0.995295
5.38 1.09931
5.39 1.17796
5.4 1.23115
5.41 1.25215
5.42 1.24433
5.43 1.20519
5.44 1.13648
5.45 1.04171
5.46 0.921384
5.47 0.782747
5.48 0.628304
5.49 0.464656
5.5 0.296651
5.51 0.129925
5.52 -0.031203
5.53 -0.1808
5.54 -0.316808
5.55 -0.435331
5.56 -0.534667
5.57 -0.615011
5.58 -0.674168
5.59 -0.715891
5.6 -0.739693
5.61 -0.749408
5.62 -0.747367
5.63 -0.736205
5.64 -0.719467
5.65 -0.699224
5.66 -0.678207
5.67 -0.658039
5.68 -0.639942
5.69 -0.624275
5.7 -0.611205
5.71 -0.599742
5.72 -0.588905
5.73 -0.577127
5.74 -0.562873
5.75 -0.544223
5.76 -0.520341
5.77 -0.489093
5.78 -0.450847
5.79 -0.404909
5.8 -0.351936
5.81 -0.293279
5.82 -0.230126
5.83 -0.165092
5.84 -0.100518
5.85 -0.0391609
5.86 0.0163875
5.87 0.0629535
5.88 0.0994247
5.89 0.122034
5.9 0.131427
5.91 0.125888
5.92 0.105735
5.93 0.0724141
5.94 0.0258982
5.95 -0.0302176
5.96 -0.0947406
5.97 -0.164291
5.98 -0.236394
5.99 -0.308229
6 -0.377639
6.01 -0.441892
6.02 -0.500132
6.03 -0.550868
6.04 -0.593749
6.05 -0.62932
6.06 -0.657451
6.07 -0.680196
6.08 -0.698358
6.09 -0.713992
6.1 -0.728634
6.11 -0.743985
6.12 -0.761183
6.13 -0.781666
6.14 -0.805554
6.15 -0.833237
6.16 -0.864273
6.17 -0.897778
6.18 -0.932759
6.19 -0.967699
6.2 -1.00101
6.21 -1.03125
6.22 -1.05708
6.23 -1.07707
6.24 -1.09116
6.25 -1.09801
6.26 -1.09879
6.27 -1.09356
6.28 -1.08348
6.29 -1.06997
6.3 -1.05422
6.31 -1.03785
6.32 -1.02203
6.33 -1.00756
6.34 -0.994723
6.35 -0.983124
6.36 -0.971557
6.37 -0.957717
6.38 -0.939036
6.39 -0.911563
6.4 -0.870819
6.41 -0.813277
6.42 -0.731301
6.43 -0.623661
6.44 -0.48249
6.45 -0.30662
6.46 -0.0932303
6.47 0.161053
6.48 0.451639
6.49 0.782349
6.5 1.14401
6.51 1.53385
6.52 1.94374
6.53 2.36483
6.54 2.78737
6.55 3.20109
6.56 3.59336
6.57 3.95436
6.58 4.27385
6.59 4.53892
6.6 4.74789
6.61 4.88404
6.62 4.9527
6.63 4.94604
6.64 4.8651
6.65 4.716
6.66 4.49543
6.67 4.21926
6.68 3.88893
6.69 3.5187
6.7 3.11811
6.71 2.69808
6.72 2.27086
6.73 1.8476
6.74 1.43786
6.75 1.05144
6.76 0.696188
6.77 0.375743
6.78 0.099189
6.79 -0.137188
6.8 -0.327575
6.81 -0.476549
6.82 -0.585939
6.83 -0.657628
6.84 -0.69968
6.85 -0.71285
6.86 -0.706285
6.87 -0.683448
6.88 -0.649893
6.89 -0.610231
6.9 -0.568009
6.91 -0.526421
6.92 -0.487834
6.93 -0.453496
6.94 -0.424104
6.95 -0.400032
6.96 -0.380373
6.97 -0.365078
6.98 -0.352716
6.99 -0.342702
7 -0.334229
7.01 -0.326766
7.02 -0.320226
7.03 -0.314629
7.04 -0.310592
7.05 -0.308791
7.06 -0.310156
7.07 -0.316068
7.08 -0.327019
7.09 -0.34494
7.1 -0.369643
7.11 -0.402094
7.12 -0.442246
7.13 -0.489323
7.14 -0.543257
7.15 -0.601941
7.16 -0.664322
7.17 -0.728166
7.18 -0.791583
7.19 -0.85223
7.2 -0.908605
7.21 -0.958007
7.22 -0.999931
7.23 -1.03279
7.24 -1.05613
7.25 -1.07047
7.26 -1.07524
7.27 -1.07267
7.28 -1.06325
7.29 -1.04924
7.3 -1.03231
7.31 -1.0144
7.32 -0.99722
7.33 -0.982571
7.34 -0.971238
7.35 -0.964105
7.36 -0.961219
7.37 -0.961895
7.38 -0.965351
7.39 -0.969667
7.4 -0.972785
7.41 -0.972256
7.42 -0.965576
7.43 -0.949398
7.44 -0.922412
7.45 -0.880251
7.46 -0.823075
7.47 -0.748432
7.48 -0.655842
7.49 -0.546427
7.5 -0.419053
7.51 -0.277736
7.52 -0.123152
7.53 0.0405677
7.54 0.210202
7.55 0.381715
7.56 0.551168
7.57 0.713515
7.58 0.865641
7.59 1.00307
7.6 1.1223
7.61 1.22184
7.62 1.29664
7.63 1.34865
7.64 1.37416
7.65 1.37508
7.66 1.35184
7.67 1.30453
7.68 1.23746
7.69 1.15002
7.7 1.04765
7.71 0.932063
7.72 0.806826
7.73 0.675407
7.74 0.540658
7.75 0.405959
7.76 0.274321
7.77 0.148303
7.78 0.0301812
7.79 -0.0772646
7.8 -0.173598
7.81 -0.255409
7.82 -0.323556
7.83 -0.376293
7.84 -0.413408
7.85 -0.43583
7.86 -0.442104
7.87 -0.435135
7.88 -0.414359
7.89 -0.382269
7.9 -0.340399
7.91 -0.290435
7.92 -0.235287
7.93 -0.176829
7.94 -0.118036
7.95 -0.0613756
7.96 -0.00956441
7.97 0.0355225
7.98 0.0705473
7.99 0.095134
8 0.106462
8.01 0.104481
8.02 0.0886719
8.03 0.0583354
8.04 0.01562
8.05 -0.0402019
8.06 -0.105776
8.07 -0.179896
8.08 -0.259964
8.09 -0.343369
8.1 -0.427618
8.11 -0.510234
8.12 -0.588653
8.13 -0.661134
8.14 -0.726202
8.15 -0.782252
8.16 -0.829788
8.17 -0.867438
8.18 -0.897029
8.19 -0.918886
8.2 -0.934513
8.21 -0.945679
8.22 -0.953673
8.23 -0.960419
8.24 -0.967146
8.25 -0.97487
8.26 -0.984046
8.27 -0.994631
8.28 -1.00578
8.29 -1.01596
8.3 -1.02319
8.31 -1.02462
8.32 -1.01689
8.33 -0.997407
8.34 -0.960505
8.35 -0.905214
8.36 -0.82586
8.37 -0.721344
8.38 -0.589673
8.39 -0.42806
8.4 -0.239756
8.41 -0.0216944
8.42 0.219884
8.43 0.483336
8.44 0.763431
8.45 1.05408
8.46 1.34927
8.47 1.64169
8.48 1.92336
8.49 2.18731
8.5 2.42676
8.51 2.63285
8.52 2.80396
8.53 2.92902
8.54 3.01047
8.55 3.04291
8.56 3.02593
8.57 2.96318
8.58 2.85111
8.59 2.69983
8.6 2.5092
8.61 2.28792
8.62 2.04179
8.63 1.77701
8.64 1.50203
8.65 1.22307
8.66 0.947342
8.67 0.681036
8.68 0.429937
8.69 0.197195
8.7 -0.0107759
8.71 -0.195078
8.72 -0.351353
8.73 -0.481289
8.74 -0.585406
8.75 -0.663886
8.76 -0.721585
8.77 -0.758276
8.78 -0.77987
8.79 -0.788502
8.8 -0.787965
8.81 -0.781783
8.82 -0.772667
8.83 -0.763538
8.84 -0.756648
8.85 -0.753596
8.86 -0.755476
8.87 -0.763302
8.88 -0.776561
8.89 -0.795828
8.9 -0.819688
8.91 -0.847604
8.92 -0.878362
8.93 -0.910716
8.94 -0.943509
8.95 -0.975605
8.96 -1.00589
8.97 -1.03364
8.98 -1.05829
8.99 -1.07924
9 -1.09675
9.01 -1.11036
9.02 -1.1208
9.03 -1.12822
9.04 -1.13316
9.05 -1.13621
9.06 -1.13768
9.07 -1.13819
9.08 -1.13791
9.09 -1.13706
9.1 -1.13559
9.11 -1.13323
9.12 -1.12971
9.13 -1.1242
9.14 -1.11624
9.15 -1.10486
9.16 -1.08914
9.17 -1.06859
9.18 -1.04166
9.19 -1.00863
9.2 -0.968234
9.21 -0.920771
9.22 -0.866272
9.23 -0.804722
9.24 -0.73753
9.25 -0.664914
9.26 -0.588886
9.27 -0.510712
9.28 -0.432325
9.29 -0.355457
9.3 -0.282554
9.31 -0.214913
9.32 -0.155063
9.33 -0.104156
9.34 -0.0634584
9.35 -0.0347031
9.36 -0.0171045
9.37 -0.0126307
9.38 -0.0193009
9.39 -0.0372141
9.4 -0.0650682
9.41 -0.100889
9.42 -0.143706
9.43 -0.190659
9.44 -0.240119
9.45 -0.289726
9.46 -0.337627
9.47 -0.381701
9.48 -0.420986
9.49 -0.453394
9.5 -0.479021
9.51 -0.497026
9.52 -0.507513
9.53 -0.511371
9.54 -0.508643
9.55 -0.501308
9.56 -0.490168
9.57 -0.477022
9.58 -0.463273
9.59 -0.450521
9.6 -0.439867
9.61 -0.432908
9.62 -0.430045
9.63 -0.432128
9.64 -0.439432
9.65 -0.451605
9.66 -0.468971
9.67 -0.490318
9.68 -0.515444
9.69 -0.543279
9.7 -0.573077
9.71 -0.604101
9.72 -0.635596
9.73 -0.667025
9.74 -0.698001
9.75 -0.728257
9.76 -0.757667
9.77 -0.786254
9.78 -0.813889
9.79 -0.84063
9.8 -0.866133
9.81 -0.889998
9.82 -0.911496
9.83 -0.92917
9.84 -0.941992
9.85 -0.946887
9.86 -0.942343
9.87 -0.924884
9.88 -0.891078
9.89 -0.838924
9.9 -0.762005
9.91 -0.660622
9.92 -0.528706
9.93 -0.365791
9.94 -0.17029
9.95 0.0607215
9.96 0.323022
9.97 0.619973
9.98 0.944449
9.99 1.29455
10 1.66455
10.01 2.0475
10.02 2.43689
10.03 2.82424
10.04 3.20066
10.05 3.55787
10.06 3.88804
10.07 4.18047
10.08 4.4328
10.09 4.63174
10.1 4.77911
10.11 4.868
10.12 4.89667
10.13 4.86894
10.14 4.77888
10.15 4.63822
10.16 4.4455
10.17 4.21039
10.18 3.9394
10.19 3.63884
10.2 3.31946
10.21 2.98748
10.22 2.65262
10.23 2.32205
10.24 2.00322
10.25 1.70075
10.26 1.42241
10.27 1.16827
10.28 0.943704
10.29 0.747875
10.3 0.580644
10.31 0.442506
10.32 0.328254
10.33 0.238479
10.34 0.166655
10.35 0.110399
10.36 0.0654429
10.37 0.0276092
10.38 -0.00620288
10.39 -0.0395724
10.4 -0.0751511
10.41 -0.114946
10.42 -0.160278
10.43 -0.212398
10.44 -0.270719
10.45 -0.335829
10.46 -0.406038
10.47 -0.480526
10.48 -0.557672
10.49 -0.635812
10.5 -0.713116
10.51 -0.788083
10.52 -0.858807
10.53 -0.924092
10.54 -0.982845
10.55 -1.0336
10.56 -1.07664
10.57 -1.11032
10.58 -1.13565
10.59 -1.15216
10.6 -1.16018
10.61 -1.16066
10.62 -1.15323
10.63 -1.13964
10.64 -1.11986
10.65 -1.0951
10.66 -1.06607
10.67 -1.03334
10.68 -0.998017
10.69 -0.960485
10.7 -0.921722
10.71 -0.882294
10.72 -0.842913
10.73 -0.804142
10.74 -0.766769
10.75 -0.731165
10.76 -0.698132
10.77 -0.668073
10.78 -0.641457
10.79 -0.61904
10.8 -0.600732
10.81 -0.587581
10.82 -0.579236
10.83 -0.576218
10.84 -0.578645
10.85 -0.586165
10.86 -0.599386
10.87 -0.617322
10.88 -0.640243
10.89 -0.667399
10.9 -0.698314
10.91 -0.732571
10.92 -0.769178
10.93 -0.807689
10.94 -0.847074
10.95 -0.886609
10.96 -0.925401
10.97 -0.962777
10.98 -0.997672
10.99 -1.02978
11 -1.05814
11.01 -1.08252
11.02 -1.10261
11.03 -1.11796
11.04 -1.1291
11.05 -1.1356
11.06 -1.13839
11.07 -1.13777
11.08 -1.13448
11.09 -1.12943
11.1 -1.12337
11.11 -1.11732
11.12 -1.11214
11.13 -1.10858
11.14 -1.10719
11.15 -1.10852
11.16 -1.11232
11.17 -1.11868
11.18 -1.12663
11.19 -1.13526
11.2 -1.14299
11.21 -1.14823
11.22 -1.14816
11.23 -1.1412
11.24 -1.12385
11.25 -1.09397
11.26 -1.04917
11.27 -0.985748
11.28 -0.903898
11.29 -0.798926
11.3 -0.672649
11.31 -0.523345
11.32 -0.351503
11.33 -0.159823
11.34 0.0520417
11.35 0.278402
11.36 0.517195
11.37 0.76299
11.38 1.01115
11.39 1.25585
11.4 1.4924
11.41 1.71338
11.42 1.9153
11.43 2.09216
11.44 2.23923
11.45 2.35535
11.46 2.4331
11.47 2.4763
11.48 2.48018
11.49 2.44776
11.5 2.38065
11.51 2.27933
11.52 2.15082
11.53 1.99541
11.54 1.82112
11.55 1.63154
11.56 1.43229
11.57 1.22863
11.58 1.02549
11.59 0.82701
11.6 0.637668
11.61 0.460181
11.62 0.296685
11.63 0.149901
11.64 0.0186283
11.65 -0.0946916
11.66 -0.192939
11.67 -0.27635
11.68 -0.34677
11.69 -0.40693
11.7 -0.457889
11.71 -0.503076
11.72 -0.543938
11.73 -0.582716
11.74 -0.620852
11.75 -0.659588
11.76 -0.699486
11.77 -0.740971
11.78 -0.783594
11.79 -0.826764
11.8 -0.869318
11.81 -0.910059
11.82 -0.946881
11.83 -0.978655
11.84 -1.00294
11.85 -1.01834
11.86 -1.02341
11.87 -1.01585
11.88 -0.996039
11.89 -0.961166
11.9 -0.912603
11.91 -0.849409
11.92 -0.771907
11.93 -0.681744
11.94 -0.578353
11.95 -0.464974
11.96 -0.342167
11.97 -0.212608
11.98 -0.0783783
11.99 0.0581981
12 0.194604
12.01 0.328043
12.02 0.45637
12.03 0.576948
12.04 0.68729
12.05 0.786263
12.06 0.870154
12.07 0.939646
12.08 0.991814
12.09 1.02689
12.1 1.04463
12.11 1.04386
12.12 1.02711
12.13 0.992862
12.14 0.944515
12.15 0.88273
12.16 0.809556
12.17 0.72773
12.18 0.638646
12.19 0.545606
12.2 0.450527
12.21 0.355894
12.22 0.263608
12.23 0.175847
12.24 0.0934308
12.25 0.0183914
12.26 -0.0494825
12.27 -0.109498
12.28 -0.161797
12.29 -0.207403
12.3 -0.246329
12.31 -0.280585
12.32 -0.310915
12.33 -0.338983
12.34 -0.36605
12.35 -0.393423
12.36 -0.422009
12.37 -0.452826
12.38 -0.486014
12.39 -0.521746
12.4 -0.55962
