# xPDFsuite Configuration #
[PDF]
wavelength = 0.1432
dataformat = twotheta
inputfile = 1_1Pd_CeO2_cycle-00112.chi
backgroundfile = background-00000.chi
mode = xray
bgscale = 1.007
composition = CeO2
outputtype = gr
qmaxinst = 28.8974762299
qmin = 0.5
qmax = 27.9
rmax = 50.0
rmin = 0.0
rstep = 0.01
rpoly = 1.8657

[Misc]
inputdir = G:/SankarDec16/1Pd/Chi
savedir = D:/DATA/APS_CeO2/1Pd
backgroundfilefull = G:/SankarDec16/Background/background-00000.chi

#### start data
#S 1
#L r($\AA$)  G($\AA^{-2}$)
0 0
0.01 -0.00724865
0.02 -0.0139516
0.03 -0.019547
0.04 -0.0236116
0.05 -0.0259096
0.06 -0.0260624
0.07 -0.0243216
0.08 -0.0205653
0.09 -0.0152743
0.1 -0.00878116
0.11 -0.00159525
0.12 0.00572748
0.13 0.0125638
0.14 0.0184712
0.15 0.0229085
0.16 0.0255583
0.17 0.0262932
0.18 0.0248542
0.19 0.0216112
0.2 0.0165776
0.21 0.010314
0.22 0.0032341
0.23 -0.00409029
0.24 -0.0111355
0.25 -0.0172301
0.26 -0.0220554
0.27 -0.025117
0.28 -0.026218
0.29 -0.0253456
0.3 -0.0223732
0.31 -0.0177715
0.32 -0.0116891
0.33 -0.00473988
0.34 0.00260052
0.35 0.0097244
0.36 0.0161653
0.37 0.0212352
0.38 0.0247545
0.39 0.0262989
0.4 0.0258016
0.41 0.0233656
0.42 0.0190029
0.43 0.0132631
0.44 0.00642304
0.45 -0.000878023
0.46 -0.00812556
0.47 -0.0147041
0.48 -0.0202268
0.49 -0.0240217
0.5 -0.026057
0.51 -0.0259988
0.52 -0.0239144
0.53 -0.0200179
0.54 -0.0144599
0.55 -0.0078437
0.56 -0.000561472
0.57 0.00675219
0.58 0.0135681
0.59 0.0192919
0.6 0.0236351
0.61 0.0259737
0.62 0.0264257
0.63 0.0247643
0.64 0.0211877
0.65 0.0160118
0.66 0.00951967
0.67 0.00233934
0.68 -0.00503945
0.69 -0.0120166
0.7 -0.0180735
0.71 -0.0226647
0.72 -0.0256142
0.73 -0.0263755
0.74 -0.0252108
0.75 -0.022011
0.76 -0.017096
0.77 -0.0108674
0.78 -0.00372644
0.79 0.00370444
0.8 0.0108639
0.81 0.0172156
0.82 0.0222787
0.83 0.0255848
0.84 0.0270798
0.85 0.0263245
0.86 0.0237118
0.87 0.0192569
0.88 0.0133846
0.89 0.00656074
0.9 -0.000717709
0.91 -0.00787051
0.92 -0.0142997
0.93 -0.0195683
0.94 -0.0232687
0.95 -0.0250488
0.96 -0.024989
0.97 -0.0228088
0.98 -0.0190181
0.99 -0.0137833
1 -0.00763002
1.01 -0.00107489
1.02 0.0052822
1.03 0.0109445
1.04 0.0152797
1.05 0.0179899
1.06 0.0187648
1.07 0.0173995
1.08 0.0141439
1.09 0.00891222
1.1 0.0023666
1.11 -0.00513134
1.12 -0.0129112
1.13 -0.0203673
1.14 -0.0267185
1.15 -0.0315308
1.16 -0.0340338
1.17 -0.0340367
1.18 -0.031251
1.19 -0.0255277
1.2 -0.0172876
1.21 -0.00647344
1.22 0.00603393
1.23 0.0197756
1.24 0.0339236
1.25 0.0477419
1.26 0.0602967
1.27 0.071054
1.28 0.0790757
1.29 0.0840846
1.3 0.0856661
1.31 0.0835156
1.32 0.0780273
1.33 0.0688629
1.34 0.0569502
1.35 0.0425298
1.36 0.0263542
1.37 0.0091296
1.38 -0.00843286
1.39 -0.0256267
1.4 -0.0417073
1.41 -0.0561919
1.42 -0.068604
1.43 -0.0784991
1.44 -0.0859454
1.45 -0.0904255
1.46 -0.0924188
1.47 -0.0918082
1.48 -0.0888933
1.49 -0.0840004
1.5 -0.0772431
1.51 -0.0691342
1.52 -0.0597851
1.53 -0.0495758
1.54 -0.0387007
1.55 -0.0273618
1.56 -0.0157687
1.57 -0.00407277
1.58 0.00754361
1.59 0.0188953
1.6 0.0297729
1.61 0.0399846
1.62 0.0491614
1.63 0.0571642
1.64 0.063504
1.65 0.068011
1.66 0.0703582
1.67 0.0701863
1.68 0.06758
1.69 0.0620031
1.7 0.0539095
1.71 0.0431835
1.72 0.0301865
1.73 0.015367
1.74 -0.000893504
1.75 -0.0178456
1.76 -0.0348808
1.77 -0.0512822
1.78 -0.0664016
1.79 -0.0795194
1.8 -0.0903869
1.81 -0.0981997
1.82 -0.103227
1.83 -0.105199
1.84 -0.104413
1.85 -0.101329
1.86 -0.0963178
1.87 -0.0902603
1.88 -0.0838124
1.89 -0.077816
1.9 -0.0729915
1.91 -0.0701165
1.92 -0.0694618
1.93 -0.071796
1.94 -0.0767859
1.95 -0.0845665
1.96 -0.0946681
1.97 -0.106463
1.98 -0.119253
1.99 -0.132049
2 -0.143787
2.01 -0.153507
2.02 -0.16024
2.03 -0.162917
2.04 -0.16133
2.05 -0.154195
2.06 -0.142108
2.07 -0.124618
2.08 -0.102177
2.09 -0.0754457
2.1 -0.0447396
2.11 -0.0113343
2.12 0.0242158
2.13 0.0608248
2.14 0.0977741
2.15 0.134346
2.16 0.170148
2.17 0.204737
2.18 0.238243
2.19 0.270722
2.2 0.302562
2.21 0.33421
2.22 0.366237
2.23 0.399068
2.24 0.433248
2.25 0.468898
2.26 0.506052
2.27 0.544441
2.28 0.583394
2.29 0.621931
2.3 0.658881
2.31 0.692616
2.32 0.721423
2.33 0.743907
2.34 0.757415
2.35 0.761629
2.36 0.7539
2.37 0.73434
2.38 0.702235
2.39 0.657199
2.4 0.601136
2.41 0.53357
2.42 0.45796
2.43 0.375741
2.44 0.289892
2.45 0.203151
2.46 0.118723
2.47 0.038951
2.48 -0.0328236
2.49 -0.0950851
2.5 -0.146073
2.51 -0.184237
2.52 -0.210593
2.53 -0.223549
2.54 -0.226123
2.55 -0.21895
2.56 -0.204597
2.57 -0.185641
2.58 -0.164612
2.59 -0.144293
2.6 -0.127421
2.61 -0.115921
2.62 -0.111506
2.63 -0.115678
2.64 -0.127975
2.65 -0.149552
2.66 -0.178202
2.67 -0.213201
2.68 -0.25237
2.69 -0.293542
2.7 -0.334295
2.71 -0.372529
2.72 -0.405701
2.73 -0.432479
2.74 -0.451557
2.75 -0.461906
2.76 -0.464395
2.77 -0.458376
2.78 -0.446285
2.79 -0.42921
2.8 -0.409494
2.81 -0.389318
2.82 -0.371246
2.83 -0.35703
2.84 -0.349137
2.85 -0.348432
2.86 -0.355842
2.87 -0.371875
2.88 -0.395212
2.89 -0.425809
2.9 -0.46093
2.91 -0.498911
2.92 -0.537089
2.93 -0.573166
2.94 -0.604149
2.95 -0.628685
2.96 -0.644101
2.97 -0.650041
2.98 -0.645874
2.99 -0.631502
3 -0.608857
3.01 -0.578414
3.02 -0.543489
3.03 -0.506202
3.04 -0.469624
3.05 -0.436274
3.06 -0.409467
3.07 -0.390415
3.08 -0.381881
3.09 -0.383907
3.1 -0.396875
3.11 -0.420531
3.12 -0.452545
3.13 -0.492015
3.14 -0.535333
3.15 -0.580054
3.16 -0.622954
3.17 -0.661526
3.18 -0.692451
3.19 -0.714904
3.2 -0.726445
3.21 -0.727603
3.22 -0.718587
3.23 -0.700425
3.24 -0.675912
3.25 -0.647043
3.26 -0.617543
3.27 -0.590597
3.28 -0.569633
3.29 -0.557044
3.3 -0.556457
3.31 -0.567792
3.32 -0.593348
3.33 -0.631527
3.34 -0.681307
3.35 -0.740594
3.36 -0.805603
3.37 -0.873039
3.38 -0.93851
3.39 -0.997799
3.4 -1.04692
3.41 -1.08333
3.42 -1.10284
3.43 -1.10637
3.44 -1.09161
3.45 -1.06128
3.46 -1.01725
3.47 -0.962748
3.48 -0.902681
3.49 -0.841629
3.5 -0.784706
3.51 -0.736978
3.52 -0.702686
3.53 -0.684046
3.54 -0.684769
3.55 -0.702321
3.56 -0.737006
3.57 -0.783419
3.58 -0.836486
3.59 -0.888355
3.6 -0.931389
3.61 -0.953135
3.62 -0.946759
3.63 -0.900091
3.64 -0.804399
3.65 -0.655031
3.66 -0.439484
3.67 -0.163479
3.68 0.181447
3.69 0.586563
3.7 1.04758
3.71 1.55703
3.72 2.09945
3.73 2.66443
3.74 3.23301
3.75 3.78891
3.76 4.3137
3.77 4.79335
3.78 5.20464
3.79 5.54341
3.8 5.78793
3.81 5.93758
3.82 5.98588
3.83 5.92705
3.84 5.77433
3.85 5.51864
3.86 5.18387
3.87 4.77456
3.88 4.30765
3.89 3.8001
3.9 3.26596
3.91 2.72423
3.92 2.19044
3.93 1.67881
3.94 1.20145
3.95 0.771108
3.96 0.389607
3.97 0.0705485
3.98 -0.193177
3.99 -0.397353
4 -0.546727
4.01 -0.648575
4.02 -0.705063
4.03 -0.729459
4.04 -0.726132
4.05 -0.705966
4.06 -0.675949
4.07 -0.643363
4.08 -0.613681
4.09 -0.59244
4.1 -0.581336
4.11 -0.582687
4.12 -0.596289
4.13 -0.62051
4.14 -0.654122
4.15 -0.693168
4.16 -0.734893
4.17 -0.775496
4.18 -0.811839
4.19 -0.840452
4.2 -0.859974
4.21 -0.866891
4.22 -0.862018
4.23 -0.844049
4.24 -0.813721
4.25 -0.772535
4.26 -0.720874
4.27 -0.661754
4.28 -0.596129
4.29 -0.526437
4.3 -0.454164
4.31 -0.380751
4.32 -0.307283
4.33 -0.234562
4.34 -0.162845
4.35 -0.0922873
4.36 -0.0227119
4.37 0.0461657
4.38 0.114569
4.39 0.182718
4.4 0.250546
4.41 0.317761
4.42 0.383763
4.43 0.447425
4.44 0.507844
4.45 0.562712
4.46 0.611097
4.47 0.650659
4.48 0.679685
4.49 0.697249
4.5 0.700543
4.51 0.690625
4.52 0.665329
4.53 0.626095
4.54 0.573355
4.55 0.507908
4.56 0.432667
4.57 0.348464
4.58 0.259032
4.59 0.166491
4.6 0.0737883
4.61 -0.0167442
4.62 -0.102224
4.63 -0.181492
4.64 -0.252177
4.65 -0.313994
4.66 -0.366393
4.67 -0.409058
4.68 -0.443533
4.69 -0.469568
4.7 -0.489653
4.71 -0.504727
4.72 -0.516593
4.73 -0.526805
4.74 -0.536749
4.75 -0.547539
4.76 -0.560161
4.77 -0.574969
4.78 -0.592118
4.79 -0.611487
4.8 -0.632394
4.81 -0.654267
4.82 -0.676097
4.83 -0.696965
4.84 -0.715913
4.85 -0.732317
4.86 -0.745186
4.87 -0.75464
4.88 -0.760124
4.89 -0.762144
4.9 -0.761049
4.91 -0.757417
4.92 -0.752247
4.93 -0.746322
4.94 -0.740681
4.95 -0.736216
4.96 -0.733738
4.97 -0.733698
4.98 -0.736829
4.99 -0.742858
5 -0.752085
5.01 -0.763941
5.02 -0.778021
5.03 -0.793752
5.04 -0.810341
5.05 -0.827128
5.06 -0.84342
5.07 -0.858604
5.08 -0.872197
5.09 -0.883974
5.1 -0.893493
5.11 -0.900973
5.12 -0.906136
5.13 -0.909188
5.14 -0.91008
5.15 -0.908589
5.16 -0.904732
5.17 -0.897589
5.18 -0.886928
5.19 -0.871531
5.2 -0.850237
5.21 -0.82213
5.22 -0.78474
5.23 -0.73791
5.24 -0.678937
5.25 -0.60758
5.26 -0.522851
5.27 -0.423669
5.28 -0.311695
5.29 -0.185692
5.3 -0.0491006
5.31 0.0968544
5.32 0.248913
5.33 0.403628
5.34 0.556817
5.35 0.704628
5.36 0.841701
5.37 0.964322
5.38 1.06837
5.39 1.14882
5.4 1.20539
5.41 1.23152
5.42 1.23013
5.43 1.19857
5.44 1.13819
5.45 1.05208
5.46 0.940271
5.47 0.809576
5.48 0.661948
5.49 0.503645
5.5 0.339158
5.51 0.173736
5.52 0.011783
5.53 -0.141171
5.54 -0.282631
5.55 -0.408675
5.56 -0.517203
5.57 -0.607929
5.58 -0.678207
5.59 -0.731144
5.6 -0.765639
5.61 -0.784951
5.62 -0.790882
5.63 -0.78546
5.64 -0.772139
5.65 -0.752336
5.66 -0.729109
5.67 -0.703928
5.68 -0.678308
5.69 -0.653078
5.7 -0.628728
5.71 -0.605069
5.72 -0.581698
5.73 -0.5578
5.74 -0.532487
5.75 -0.504593
5.76 -0.473579
5.77 -0.438131
5.78 -0.398469
5.79 -0.354222
5.8 -0.305899
5.81 -0.254459
5.82 -0.200922
5.83 -0.147048
5.84 -0.0946908
5.85 -0.0457642
5.86 -0.00216427
5.87 0.0337638
5.88 0.0613564
5.89 0.077751
5.9 0.0836172
5.91 0.0776805
5.92 0.0602451
5.93 0.0324554
5.94 -0.0057553
5.95 -0.051635
5.96 -0.104395
5.97 -0.161525
5.98 -0.221263
5.99 -0.281646
6 -0.341071
6.01 -0.39776
6.02 -0.451014
6.03 -0.499872
6.04 -0.54409
6.05 -0.583991
6.06 -0.619532
6.07 -0.651953
6.08 -0.681752
6.09 -0.710114
6.1 -0.737877
6.11 -0.765893
6.12 -0.794664
6.13 -0.824678
6.14 -0.855773
6.15 -0.887746
6.16 -0.919949
6.17 -0.951626
6.18 -0.981586
6.19 -1.00906
6.2 -1.03266
6.21 -1.05175
6.22 -1.06566
6.23 -1.07374
6.24 -1.07659
6.25 -1.07377
6.26 -1.06681
6.27 -1.05638
6.28 -1.04389
6.29 -1.03072
6.3 -1.0183
6.31 -1.00759
6.32 -0.999636
6.33 -0.994492
6.34 -0.991838
6.35 -0.990561
6.36 -0.988799
6.37 -0.983414
6.38 -0.971446
6.39 -0.948358
6.4 -0.909375
6.41 -0.850987
6.42 -0.765278
6.43 -0.651611
6.44 -0.502206
6.45 -0.316592
6.46 -0.0924931
6.47 0.172775
6.48 0.473976
6.49 0.814132
6.5 1.18365
6.51 1.57914
6.52 1.99215
6.53 2.41378
6.54 2.8339
6.55 3.2428
6.56 3.6278
6.57 3.97971
6.58 4.28877
6.59 4.54263
6.6 4.74027
6.61 4.86565
6.62 4.92458
6.63 4.90982
6.64 4.82279
6.65 4.66976
6.66 4.44782
6.67 4.17248
6.68 3.84532
6.69 3.48014
6.7 3.08618
6.71 2.67391
6.72 2.25507
6.73 1.84034
6.74 1.43879
6.75 1.0598
6.76 0.710844
6.77 0.395399
6.78 0.122207
6.79 -0.112268
6.8 -0.302348
6.81 -0.452337
6.82 -0.563872
6.83 -0.638591
6.84 -0.684184
6.85 -0.701134
6.86 -0.698253
6.87 -0.678736
6.88 -0.647909
6.89 -0.610278
6.9 -0.569209
6.91 -0.528009
6.92 -0.489011
6.93 -0.453651
6.94 -0.422779
6.95 -0.396971
6.96 -0.375541
6.97 -0.358677
6.98 -0.345111
6.99 -0.334443
7 -0.325976
7.01 -0.319196
7.02 -0.314102
7.03 -0.310555
7.04 -0.309137
7.05 -0.310323
7.06 -0.314876
7.07 -0.323962
7.08 -0.337889
7.09 -0.358336
7.1 -0.385003
7.11 -0.41868
7.12 -0.459225
7.13 -0.505866
7.14 -0.558435
7.15 -0.614997
7.16 -0.674504
7.17 -0.734917
7.18 -0.794491
7.19 -0.851062
7.2 -0.903323
7.21 -0.948775
7.22 -0.987066
7.23 -1.01679
7.24 -1.0376
7.25 -1.0501
7.26 -1.05386
7.27 -1.05104
7.28 -1.04222
7.29 -1.02956
7.3 -1.01471
7.31 -0.999559
7.32 -0.985653
7.33 -0.974779
7.34 -0.967544
7.35 -0.964743
7.36 -0.966291
7.37 -0.971388
7.38 -0.97911
7.39 -0.987443
7.4 -0.99417
7.41 -0.996749
7.42 -0.992566
7.43 -0.978123
7.44 -0.952107
7.45 -0.909937
7.46 -0.851847
7.47 -0.775285
7.48 -0.679783
7.49 -0.566553
7.5 -0.434436
7.51 -0.287685
7.52 -0.127055
7.53 0.0430723
7.54 0.219262
7.55 0.397201
7.56 0.572716
7.57 0.740394
7.58 0.896952
7.59 1.0376
7.6 1.15866
7.61 1.25855
7.62 1.33196
7.63 1.38105
7.64 1.40198
7.65 1.39694
7.66 1.36653
7.67 1.31111
7.68 1.23537
7.69 1.13908
7.7 1.02806
7.71 0.904475
7.72 0.772282
7.73 0.635209
7.74 0.496609
7.75 0.359822
7.76 0.228217
7.77 0.104235
7.78 -0.00989411
7.79 -0.111457
7.8 -0.20045
7.81 -0.273588
7.82 -0.332296
7.83 -0.375182
7.84 -0.402524
7.85 -0.415646
7.86 -0.413631
7.87 -0.399596
7.88 -0.373446
7.89 -0.33778
7.9 -0.294266
7.91 -0.244738
7.92 -0.191823
7.93 -0.137517
7.94 -0.0843066
7.95 -0.0344794
7.96 0.00964031
7.97 0.0465709
7.98 0.0733591
7.99 0.0899989
8 0.0940654
8.01 0.0857722
8.02 0.0648296
8.03 0.0307954
8.04 -0.0142525
8.05 -0.0707997
8.06 -0.135761
8.07 -0.207946
8.08 -0.284967
8.09 -0.364479
8.1 -0.444168
8.11 -0.521904
8.12 -0.595357
8.13 -0.663053
8.14 -0.723725
8.15 -0.775995
8.16 -0.820429
8.17 -0.855864
8.18 -0.884047
8.19 -0.905355
8.2 -0.921219
8.21 -0.933278
8.22 -0.942761
8.23 -0.951372
8.24 -0.960225
8.25 -0.970156
8.26 -0.981478
8.27 -0.994002
8.28 -1.00681
8.29 -1.01822
8.3 -1.02628
8.31 -1.02809
8.32 -1.0203
8.33 -1.00039
8.34 -0.962732
8.35 -0.906485
8.36 -0.826052
8.37 -0.720456
8.38 -0.587802
8.39 -0.425418
8.4 -0.236606
8.41 -0.0184146
8.42 0.222924
8.43 0.485727
8.44 0.764779
8.45 1.05405
8.46 1.34757
8.47 1.63812
8.48 1.91784
8.49 2.17987
8.5 2.41755
8.51 2.62218
8.52 2.79218
8.53 2.91667
8.54 2.9981
8.55 3.03116
8.56 3.01545
8.57 2.95457
8.58 2.84501
8.59 2.69671
8.6 2.50947
8.61 2.29182
8.62 2.0494
8.63 1.78822
8.64 1.51659
8.65 1.24047
8.66 0.966976
8.67 0.702115
8.68 0.451553
8.69 0.218423
8.7 0.0089807
8.71 -0.177714
8.72 -0.337354
8.73 -0.471443
8.74 -0.580363
8.75 -0.664118
8.76 -0.727314
8.77 -0.769493
8.78 -0.796319
8.79 -0.809677
8.8 -0.81312
8.81 -0.810043
8.82 -0.802864
8.83 -0.794562
8.84 -0.787196
8.85 -0.782462
8.86 -0.781505
8.87 -0.785399
8.88 -0.793902
8.89 -0.807682
8.9 -0.825653
8.91 -0.847491
8.92 -0.872261
8.93 -0.898933
8.94 -0.92665
8.95 -0.954378
8.96 -0.981251
8.97 -1.00659
8.98 -1.02988
8.99 -1.05059
9 -1.06883
9.01 -1.08417
9.02 -1.09711
9.03 -1.1077
9.04 -1.11627
9.05 -1.12325
9.06 -1.12876
9.07 -1.13324
9.08 -1.13673
9.09 -1.1393
9.1 -1.14084
9.11 -1.14098
9.12 -1.13946
9.13 -1.13538
9.14 -1.12836
9.15 -1.11743
9.16 -1.10173
9.17 -1.08084
9.18 -1.05324
9.19 -1.01927
9.2 -0.97772
9.21 -0.928916
9.22 -0.872924
9.23 -0.809744
9.24 -0.740816
9.25 -0.666361
9.26 -0.588425
9.27 -0.508294
9.28 -0.427942
9.29 -0.349146
9.3 -0.274426
9.31 -0.205135
9.32 -0.143904
9.33 -0.0919559
9.34 -0.0506354
9.35 -0.0217853
9.36 -0.00461494
9.37 -0.00121732
9.38 -0.00953582
9.39 -0.0296852
9.4 -0.0602922
9.41 -0.0992611
9.42 -0.145523
9.43 -0.196024
9.44 -0.248959
9.45 -0.301773
9.46 -0.352435
9.47 -0.398601
9.48 -0.439246
9.49 -0.472043
9.5 -0.497149
9.51 -0.513655
9.52 -0.521728
9.53 -0.522416
9.54 -0.515857
9.55 -0.504326
9.56 -0.488839
9.57 -0.47149
9.58 -0.453938
9.59 -0.438097
9.6 -0.425195
9.61 -0.41716
9.62 -0.414355
9.63 -0.417748
9.64 -0.42756
9.65 -0.443253
9.66 -0.465063
9.67 -0.491398
9.68 -0.521801
9.69 -0.554823
9.7 -0.589389
9.71 -0.624358
9.72 -0.658791
9.73 -0.691721
9.74 -0.722777
9.75 -0.751518
9.76 -0.77785
9.77 -0.802008
9.78 -0.823925
9.79 -0.844126
9.8 -0.862544
9.81 -0.879244
9.82 -0.893897
9.83 -0.905536
9.84 -0.913392
9.85 -0.914921
9.86 -0.908645
9.87 -0.891333
9.88 -0.859576
9.89 -0.811168
9.9 -0.739694
9.91 -0.644931
9.92 -0.520565
9.93 -0.365604
9.94 -0.17803
9.95 0.0456133
9.96 0.301438
9.97 0.593374
9.98 0.914408
9.99 1.26294
10 1.6333
10.01 2.01841
10.02 2.4118
10.03 2.80448
10.04 3.18735
10.05 3.55164
10.06 3.88906
10.07 4.18843
10.08 4.44703
10.09 4.65102
10.1 4.80208
10.11 4.89302
10.12 4.92199
10.13 4.89294
10.14 4.79992
10.15 4.65512
10.16 4.45724
10.17 4.21647
10.18 3.93968
10.19 3.63368
10.2 3.30953
10.21 2.97393
10.22 2.63672
10.23 2.30528
10.24 1.98714
10.25 1.68672
10.26 1.41178
10.27 1.16193
10.28 0.942311
10.29 0.751591
10.3 0.589245
10.31 0.455291
10.32 0.344265
10.33 0.256275
10.34 0.184773
10.35 0.127192
10.36 0.0793049
10.37 0.0371777
10.38 -0.0021718
10.39 -0.0418011
10.4 -0.0840047
10.41 -0.130266
10.42 -0.181456
10.43 -0.238273
10.44 -0.299898
10.45 -0.366354
10.46 -0.436002
10.47 -0.507834
10.48 -0.580315
10.49 -0.652106
10.5 -0.721532
10.51 -0.787732
10.52 -0.849225
10.53 -0.905442
10.54 -0.955823
10.55 -0.999552
10.56 -1.03721
10.57 -1.0678
10.58 -1.09231
10.59 -1.11052
10.6 -1.12269
10.61 -1.12944
10.62 -1.13027
10.63 -1.12622
10.64 -1.11684
10.65 -1.10263
10.66 -1.08372
10.67 -1.05999
10.68 -1.03216
10.69 -0.999898
10.7 -0.964137
10.71 -0.925135
10.72 -0.883602
10.73 -0.840414
10.74 -0.796389
10.75 -0.752629
10.76 -0.710295
10.77 -0.670495
10.78 -0.634279
10.79 -0.603094
10.8 -0.577261
10.81 -0.55854
10.82 -0.546679
10.83 -0.542529
10.84 -0.546252
10.85 -0.557233
10.86 -0.576084
10.87 -0.601143
10.88 -0.632362
10.89 -0.668332
10.9 -0.708028
10.91 -0.750387
10.92 -0.794014
10.93 -0.837796
10.94 -0.88059
10.95 -0.921358
10.96 -0.959153
10.97 -0.993538
10.98 -1.02344
10.99 -1.04916
11 -1.07006
11.01 -1.08648
11.02 -1.09865
11.03 -1.10667
11.04 -1.11146
11.05 -1.11317
11.06 -1.11285
11.07 -1.11105
11.08 -1.10853
11.09 -1.10598
11.1 -1.10411
11.11 -1.10337
11.12 -1.10431
11.13 -1.10712
11.14 -1.11188
11.15 -1.11858
11.16 -1.1267
11.17 -1.13576
11.18 -1.14477
11.19 -1.15261
11.2 -1.15774
11.21 -1.15886
11.22 -1.15324
11.23 -1.1399
11.24 -1.11569
11.25 -1.07904
11.26 -1.02804
11.27 -0.959561
11.28 -0.874045
11.29 -0.767369
11.3 -0.641305
11.31 -0.494314
11.32 -0.326799
11.33 -0.141122
11.34 0.0632221
11.35 0.281188
11.36 0.511144
11.37 0.748276
11.38 0.988475
11.39 1.22654
11.4 1.45807
11.41 1.67627
11.42 1.87761
11.43 2.05631
11.44 2.20755
11.45 2.32981
11.46 2.41555
11.47 2.46788
11.48 2.48159
11.49 2.45902
11.5 2.40121
11.51 2.30796
11.52 2.18593
11.53 2.03472
11.54 1.86234
11.55 1.67208
11.56 1.46957
11.57 1.2604
11.58 1.04954
11.59 0.841877
11.6 0.642235
11.61 0.454038
11.62 0.280009
11.63 0.12357
11.64 -0.0160615
11.65 -0.135707
11.66 -0.238124
11.67 -0.323186
11.68 -0.392641
11.69 -0.449459
11.7 -0.494603
11.71 -0.532177
11.72 -0.563868
11.73 -0.592566
11.74 -0.62025
11.75 -0.648783
11.76 -0.679207
11.77 -0.712609
11.78 -0.748782
11.79 -0.787524
11.8 -0.827864
11.81 -0.868491
11.82 -0.907497
11.83 -0.94323
11.84 -0.973142
11.85 -0.99534
11.86 -1.00795
11.87 -1.0082
11.88 -0.996037
11.89 -0.968146
11.9 -0.925619
11.91 -0.867186
11.92 -0.792964
11.93 -0.704629
11.94 -0.601423
11.95 -0.486927
11.96 -0.361742
11.97 -0.228894
11.98 -0.0907489
11.99 0.0500516
12 0.190662
12.01 0.327958
12.02 0.459583
12.03 0.582681
12.04 0.69463
12.05 0.794318
12.06 0.877932
12.07 0.946387
12.08 0.996817
12.09 1.0297
12.1 1.04499
12.11 1.04175
12.12 1.02272
12.13 0.9866
12.14 0.936894
12.15 0.874386
12.16 0.801174
12.17 0.719932
12.18 0.632063
12.19 0.54067
12.2 0.447566
12.21 0.355035
12.22 0.264809
12.23 0.178869
12.24 0.0979211
12.25 0.0238115
12.26 -0.0436842
12.27 -0.103936
12.28 -0.157067
12.29 -0.203997
12.3 -0.244686
12.31 -0.280949
12.32 -0.313392
12.33 -0.343496
12.34 -0.372367
12.35 -0.401132
12.36 -0.430638
12.37 -0.461738
12.38 -0.494613
