# xPDFsuite Configuration #
[PDF]
wavelength = 0.1432
dataformat = twotheta
inputfile = 1_1Pd_CeO2_cycle-00085.chi
backgroundfile = background-00000.chi
mode = xray
bgscale = 1.007
composition = CeO2
outputtype = gr
qmaxinst = 28.8974762299
qmin = 0.5
qmax = 27.9
rmax = 50.0
rmin = 0.0
rstep = 0.01
rpoly = 1.8657

[Misc]
inputdir = G:/SankarDec16/1Pd/Chi
savedir = D:/DATA/APS_CeO2/1Pd
backgroundfilefull = G:/SankarDec16/Background/background-00000.chi

#### start data
#S 1
#L r($\AA$)  G($\AA^{-2}$)
0 0
0.01 -0.00695861
0.02 -0.0133942
0.03 -0.018768
0.04 -0.0226741
0.05 -0.0248864
0.06 -0.0250411
0.07 -0.0233792
0.08 -0.0197826
0.09 -0.0147117
0.1 -0.0084846
0.11 -0.00158883
0.12 0.00544247
0.13 0.0120125
0.14 0.017696
0.15 0.0219735
0.16 0.0245393
0.17 0.0252696
0.18 0.0239141
0.19 0.0208256
0.2 0.0160145
0.21 0.0100169
0.22 0.00322815
0.23 -0.00380479
0.24 -0.0105789
0.25 -0.0164512
0.26 -0.0211133
0.27 -0.0240896
0.28 -0.0251882
0.29 -0.024394
0.3 -0.0215815
0.31 -0.0171998
0.32 -0.0113871
0.33 -0.00473113
0.34 0.00231399
0.35 0.00916631
0.36 0.0153764
0.37 0.0202846
0.38 0.0237138
0.39 0.0252543
0.4 0.024837
0.41 0.0225566
0.42 0.0184189
0.43 0.0129485
0.44 0.0064055
0.45 -0.0005975
0.46 -0.00756836
0.47 -0.0139167
0.48 -0.0192677
0.49 -0.0229754
0.5 -0.0250027
0.51 -0.0250245
0.52 -0.0230989
0.53 -0.019426
0.54 -0.0141433
0.55 -0.007827
0.56 -0.000847775
0.57 0.00618494
0.58 0.0127638
0.59 0.018317
0.6 0.0225619
0.61 0.0248965
0.62 0.0254255
0.63 0.0239245
0.64 0.0205762
0.65 0.0156776
0.66 0.00949222
0.67 0.00262192
0.68 -0.0044692
0.69 -0.0112024
0.7 -0.0170788
0.71 -0.0215709
0.72 -0.0245022
0.73 -0.0253419
0.74 -0.0243322
0.75 -0.0213597
0.76 -0.0167231
0.77 -0.0108025
0.78 -0.00397474
0.79 0.00316107
0.8 0.0100702
0.81 0.0162318
0.82 0.0211799
0.83 0.024457
0.84 0.0260009
0.85 0.0253787
0.86 0.0229572
0.87 0.0187389
0.88 0.0131231
0.89 0.00655169
0.9 -0.000506882
0.91 -0.00748952
0.92 -0.0138248
0.93 -0.0190813
0.94 -0.0228584
0.95 -0.0248036
0.96 -0.0249782
0.97 -0.0230912
0.98 -0.0196178
0.99 -0.0146957
1 -0.0088133
1.01 -0.00245691
1.02 0.00381911
1.03 0.00953008
1.04 0.0140851
1.05 0.0171844
1.06 0.0185256
1.07 0.0179016
1.08 0.0155285
1.09 0.0113113
1.1 0.00585405
1.11 -0.000519865
1.12 -0.00719712
1.13 -0.0136216
1.14 -0.0190832
1.15 -0.0231801
1.16 -0.0252185
1.17 -0.0250277
1.18 -0.0223591
1.19 -0.0171005
1.2 -0.00964884
1.21 -4.38615e-06
1.22 0.0110205
1.23 0.0229579
1.24 0.0350254
1.25 0.0465374
1.26 0.0565957
1.27 0.0647465
1.28 0.0701069
1.29 0.0724778
1.3 0.0715153
1.31 0.0670026
1.32 0.0593834
1.33 0.0484462
1.34 0.035135
1.35 0.0197923
1.36 0.00321825
1.37 -0.0138584
1.38 -0.0306293
1.39 -0.0464527
1.4 -0.0605022
1.41 -0.0723748
1.42 -0.0816151
1.43 -0.0878269
1.44 -0.0912042
1.45 -0.0912832
1.46 -0.0887155
1.47 -0.0835054
1.48 -0.0761162
1.49 -0.0670125
1.5 -0.0565141
1.51 -0.0452135
1.52 -0.0334408
1.53 -0.021622
1.54 -0.0100531
1.55 0.000975425
1.56 0.0113448
1.57 0.0207798
1.58 0.0293253
1.59 0.0368284
1.6 0.0432653
1.61 0.0486353
1.62 0.0527622
1.63 0.0557424
1.64 0.0573307
1.65 0.0575591
1.66 0.0563029
1.67 0.0534182
1.68 0.04902
1.69 0.0428327
1.7 0.0351689
1.71 0.0259971
1.72 0.0155672
1.73 0.00417402
1.74 -0.00790166
1.75 -0.0202019
1.76 -0.0323014
1.77 -0.0437641
1.78 -0.0541766
1.79 -0.0630906
1.8 -0.0703978
1.81 -0.07561
1.82 -0.0789853
1.83 -0.0804269
1.84 -0.0802305
1.85 -0.0787847
1.86 -0.0764816
1.87 -0.0739416
1.88 -0.0717518
1.89 -0.0704797
1.9 -0.0706498
1.91 -0.072797
1.92 -0.0769889
1.93 -0.0837245
1.94 -0.0925564
1.95 -0.103419
1.96 -0.115748
1.97 -0.12889
1.98 -0.142027
1.99 -0.154318
2 -0.164648
2.01 -0.172234
2.02 -0.1762
2.03 -0.175609
2.04 -0.170434
2.05 -0.159511
2.06 -0.143609
2.07 -0.122406
2.08 -0.0964817
2.09 -0.06658
2.1 -0.0331413
2.11 0.00255828
2.12 0.0398608
2.13 0.0777049
2.14 0.115351
2.15 0.152066
2.16 0.187525
2.17 0.221227
2.18 0.253411
2.19 0.284123
2.2 0.313807
2.21 0.342968
2.22 0.372205
2.23 0.402043
2.24 0.433076
2.25 0.465529
2.26 0.499527
2.27 0.53492
2.28 0.571125
2.29 0.607338
2.3 0.64244
2.31 0.674957
2.32 0.703259
2.33 0.725986
2.34 0.740614
2.35 0.746719
2.36 0.741721
2.37 0.725579
2.38 0.697484
2.39 0.656897
2.4 0.605503
2.41 0.54261
2.42 0.47144
2.43 0.393166
2.44 0.310532
2.45 0.226112
2.46 0.142816
2.47 0.0630245
2.48 -0.0101454
2.49 -0.075053
2.5 -0.129899
2.51 -0.173022
2.52 -0.205141
2.53 -0.224501
2.54 -0.233723
2.55 -0.233141
2.56 -0.224958
2.57 -0.211468
2.58 -0.194786
2.59 -0.177608
2.6 -0.162312
2.61 -0.150854
2.62 -0.144891
2.63 -0.145937
2.64 -0.153828
2.65 -0.169761
2.66 -0.192002
2.67 -0.220092
2.68 -0.25226
2.69 -0.286685
2.7 -0.321381
2.71 -0.354458
2.72 -0.383769
2.73 -0.408058
2.74 -0.426145
2.75 -0.437073
2.76 -0.441477
2.77 -0.438748
2.78 -0.430882
2.79 -0.418765
2.8 -0.404361
2.81 -0.389515
2.82 -0.376408
2.83 -0.366546
2.84 -0.362038
2.85 -0.363637
2.86 -0.372139
2.87 -0.387976
2.88 -0.410011
2.89 -0.438174
2.9 -0.470104
2.91 -0.504327
2.92 -0.538515
2.93 -0.570666
2.94 -0.59814
2.95 -0.619781
2.96 -0.633233
2.97 -0.63821
2.98 -0.634174
2.99 -0.621057
3 -0.600591
3.01 -0.573216
3.02 -0.541886
3.03 -0.508496
3.04 -0.475779
3.05 -0.445976
3.06 -0.422042
3.07 -0.405043
3.08 -0.397441
3.09 -0.399266
3.1 -0.410857
3.11 -0.431988
3.12 -0.460588
3.13 -0.495866
3.14 -0.534622
3.15 -0.574703
3.16 -0.613268
3.17 -0.648116
3.18 -0.676352
3.19 -0.697262
3.2 -0.708752
3.21 -0.711316
3.22 -0.705185
3.23 -0.691326
3.24 -0.672197
3.25 -0.649639
3.26 -0.626875
3.27 -0.606724
3.28 -0.59214
3.29 -0.585147
3.3 -0.588832
3.31 -0.602976
3.32 -0.629424
3.33 -0.666595
3.34 -0.7134
3.35 -0.767761
3.36 -0.826279
3.37 -0.885744
3.38 -0.942371
3.39 -0.992313
3.4 -1.03213
3.41 -1.05974
3.42 -1.07154
3.43 -1.06873
3.44 -1.04953
3.45 -1.01676
3.46 -0.972457
3.47 -0.919948
3.48 -0.863814
3.49 -0.808707
3.5 -0.759127
3.51 -0.719876
3.52 -0.694671
3.53 -0.685259
3.54 -0.694816
3.55 -0.720436
3.56 -0.761903
3.57 -0.813597
3.58 -0.870206
3.59 -0.923679
3.6 -0.966575
3.61 -0.986259
3.62 -0.976376
3.63 -0.924896
3.64 -0.823484
3.65 -0.667876
3.66 -0.445957
3.67 -0.163823
3.68 0.186594
3.69 0.596317
3.7 1.06084
3.71 1.57247
3.72 2.11585
3.73 2.68039
3.74 3.24745
3.75 3.80082
3.76 4.32234
3.77 4.79825
3.78 5.20561
3.79 5.54055
3.8 5.78162
3.81 5.9284
3.82 5.97457
3.83 5.91452
3.84 5.76147
3.85 5.50643
3.86 5.17313
3.87 4.76604
3.88 4.30194
3.89 3.79759
3.9 3.26686
3.91 2.72856
3.92 2.19802
3.93 1.68931
3.94 1.21444
3.95 0.786002
3.96 0.405855
3.97 0.0874777
3.98 -0.176128
3.99 -0.380754
4 -0.531069
4.01 -0.634257
4.02 -0.692437
4.03 -0.718758
4.04 -0.717544
4.05 -0.6996
4.06 -0.67187
4.07 -0.641601
4.08 -0.614242
4.09 -0.595309
4.1 -0.586491
4.11 -0.590088
4.12 -0.605873
4.13 -0.632189
4.14 -0.667751
4.15 -0.708567
4.16 -0.751784
4.17 -0.793543
4.18 -0.830622
4.19 -0.859441
4.2 -0.878629
4.21 -0.884519
4.22 -0.877994
4.23 -0.857693
4.24 -0.824408
4.25 -0.779738
4.26 -0.724136
4.27 -0.660822
4.28 -0.590904
4.29 -0.517037
4.3 -0.440912
4.31 -0.364219
4.32 -0.288159
4.33 -0.213843
4.34 -0.141513
4.35 -0.0714872
4.36 -0.00358524
4.37 0.0625709
4.38 0.127202
4.39 0.190823
4.4 0.253492
4.41 0.315234
4.42 0.375708
4.43 0.434109
4.44 0.489761
4.45 0.540735
4.46 0.586194
4.47 0.624042
4.48 0.652652
4.49 0.67106
4.5 0.676556
4.51 0.669908
4.52 0.648904
4.53 0.614657
4.54 0.567356
4.55 0.507492
4.56 0.437697
4.57 0.358456
4.58 0.273319
4.59 0.18415
4.6 0.0937571
4.61 0.00445183
4.62 -0.0810193
4.63 -0.161279
4.64 -0.233957
4.65 -0.298498
4.66 -0.354161
4.67 -0.400382
4.68 -0.438448
4.69 -0.46784
4.7 -0.490867
4.71 -0.508261
4.72 -0.521706
4.73 -0.532732
4.74 -0.542635
4.75 -0.552697
4.76 -0.563934
4.77 -0.576919
4.78 -0.59198
4.79 -0.609216
4.8 -0.628139
4.81 -0.648422
4.82 -0.669163
4.83 -0.689607
4.84 -0.708855
4.85 -0.726259
4.86 -0.740853
4.87 -0.752564
4.88 -0.760745
4.89 -0.765668
4.9 -0.767482
4.91 -0.766517
4.92 -0.763607
4.93 -0.759246
4.94 -0.754421
4.95 -0.749863
4.96 -0.746358
4.97 -0.744423
4.98 -0.744789
4.99 -0.747436
5 -0.752791
5.01 -0.760568
5.02 -0.770602
5.03 -0.782611
5.04 -0.795995
5.05 -0.810431
5.06 -0.825282
5.07 -0.840126
5.08 -0.854516
5.09 -0.868153
5.1 -0.880615
5.11 -0.89183
5.12 -0.9014
5.13 -0.909209
5.14 -0.914947
5.15 -0.918063
5.16 -0.918345
5.17 -0.9145
5.18 -0.906202
5.19 -0.891999
5.2 -0.870659
5.21 -0.841316
5.22 -0.801432
5.23 -0.751143
5.24 -0.687828
5.25 -0.611578
5.26 -0.521665
5.27 -0.41733
5.28 -0.300507
5.29 -0.17033
5.3 -0.0303902
5.31 0.117829
5.32 0.270947
5.33 0.425528
5.34 0.577265
5.35 0.722571
5.36 0.856115
5.37 0.974491
5.38 1.07381
5.39 1.14935
5.4 1.20112
5.41 1.22289
5.42 1.21778
5.43 1.18342
5.44 1.12131
5.45 1.03456
5.46 0.923384
5.47 0.794363
5.48 0.64947
5.49 0.494692
5.5 0.334317
5.51 0.173328
5.52 0.0158407
5.53 -0.132935
5.54 -0.270732
5.55 -0.393905
5.56 -0.50055
5.57 -0.590451
5.58 -0.661173
5.59 -0.715655
5.6 -0.752871
5.61 -0.775849
5.62 -0.786228
5.63 -0.785817
5.64 -0.777772
5.65 -0.763234
5.66 -0.744981
5.67 -0.724199
5.68 -0.702159
5.69 -0.679551
5.7 -0.656591
5.71 -0.633174
5.72 -0.608729
5.73 -0.58259
5.74 -0.553951
5.75 -0.521768
5.76 -0.485781
5.77 -0.444829
5.78 -0.399457
5.79 -0.349527
5.8 -0.29582
5.81 -0.23949
5.82 -0.181845
5.83 -0.124696
5.84 -0.0701226
5.85 -0.0200235
5.86 0.0236782
5.87 0.0586224
5.88 0.0843326
5.89 0.0979309
5.9 0.100362
5.91 0.0904635
5.92 0.0687476
5.93 0.0365439
5.94 -0.00602509
5.95 -0.056058
5.96 -0.112588
5.97 -0.173012
5.98 -0.235477
5.99 -0.297924
6 -0.358791
6.01 -0.416193
6.02 -0.469549
6.03 -0.517889
6.04 -0.561033
6.05 -0.599395
6.06 -0.632952
6.07 -0.663072
6.08 -0.69028
6.09 -0.715853
6.1 -0.740679
6.11 -0.765662
6.12 -0.791358
6.13 -0.818297
6.14 -0.846361
6.15 -0.875394
6.16 -0.904797
6.17 -0.933854
6.18 -0.961463
6.19 -0.986879
6.2 -1.00882
6.21 -1.0267
6.22 -1.03993
6.23 -1.04793
6.24 -1.05131
6.25 -1.04979
6.26 -1.04479
6.27 -1.03706
6.28 -1.02796
6.29 -1.01878
6.3 -1.01091
6.31 -1.00514
6.32 -1.0024
6.33 -1.00254
6.34 -1.00508
6.35 -1.00865
6.36 -1.01127
6.37 -1.0095
6.38 -1.00033
6.39 -0.978993
6.4 -0.940641
6.41 -0.88177
6.42 -0.794321
6.43 -0.677873
6.44 -0.524615
6.45 -0.334318
6.46 -0.104877
6.47 0.166169
6.48 0.473313
6.49 0.819302
6.5 1.19429
6.51 1.59464
6.52 2.01165
6.53 2.43632
6.54 2.85827
6.55 3.26786
6.56 3.65229
6.57 4.0025
6.58 4.30885
6.59 4.55913
6.6 4.75259
6.61 4.87339
6.62 4.92764
6.63 4.90836
6.64 4.81724
6.65 4.66072
6.66 4.4362
6.67 4.15918
6.68 3.83143
6.69 3.46668
6.7 3.07412
6.71 2.66417
6.72 2.24831
6.73 1.83709
6.74 1.43928
6.75 1.06404
6.76 0.718574
6.77 0.406161
6.78 0.135261
6.79 -0.0977077
6.8 -0.287276
6.81 -0.437713
6.82 -0.550649
6.83 -0.627684
6.84 -0.676288
6.85 -0.696855
6.86 -0.697902
6.87 -0.682422
6.88 -0.655477
6.89 -0.621374
6.9 -0.583199
6.91 -0.544184
6.92 -0.506444
6.93 -0.471413
6.94 -0.439924
6.95 -0.412551
6.96 -0.388801
6.97 -0.368898
6.98 -0.351855
6.99 -0.337428
7 -0.325158
7.01 -0.314721
7.02 -0.30635
7.03 -0.300007
7.04 -0.296464
7.05 -0.296224
7.06 -0.300082
7.07 -0.309224
7.08 -0.323822
7.09 -0.345539
7.1 -0.373871
7.11 -0.409496
7.12 -0.45211
7.13 -0.500804
7.14 -0.555267
7.15 -0.613497
7.16 -0.674351
7.17 -0.735792
7.18 -0.796084
7.19 -0.853102
7.2 -0.90564
7.21 -0.951285
7.22 -0.989806
7.23 -1.0199
7.24 -1.04134
7.25 -1.05476
7.26 -1.05983
7.27 -1.05864
7.28 -1.05177
7.29 -1.04127
7.3 -1.02866
7.31 -1.01566
7.32 -1.00365
7.33 -0.994164
7.34 -0.987688
7.35 -0.984804
7.36 -0.985295
7.37 -0.988337
7.38 -0.992854
7.39 -0.997025
7.4 -0.998629
7.41 -0.995378
7.42 -0.984876
7.43 -0.963916
7.44 -0.9315
7.45 -0.883444
7.46 -0.820247
7.47 -0.739722
7.48 -0.641672
7.49 -0.527414
7.5 -0.396125
7.51 -0.25184
7.52 -0.0954641
7.53 0.0689121
7.54 0.238065
7.55 0.407964
7.56 0.574886
7.57 0.733799
7.58 0.881878
7.59 1.01478
7.6 1.12923
7.61 1.22391
7.62 1.29399
7.63 1.34154
7.64 1.36303
7.65 1.36047
7.66 1.33435
7.67 1.28487
7.68 1.21627
7.69 1.12806
7.7 1.02556
7.71 0.910499
7.72 0.786384
7.73 0.656601
7.74 0.524001
7.75 0.391836
7.76 0.2631
7.77 0.14026
7.78 0.0255319
7.79 -0.0783668
7.8 -0.171082
7.81 -0.249279
7.82 -0.313901
7.83 -0.363297
7.84 -0.397362
7.85 -0.417102
7.86 -0.421231
7.87 -0.412682
7.88 -0.391064
7.89 -0.358908
7.9 -0.317815
7.91 -0.269565
7.92 -0.216975
7.93 -0.162029
7.94 -0.107507
7.95 -0.0558311
7.96 -0.00954661
7.97 0.0296729
7.98 0.0586982
7.99 0.077405
8 0.0832563
8.01 0.0764461
8.02 0.0566927
8.03 0.0235991
8.04 -0.0206456
8.05 -0.076416
8.06 -0.140492
8.07 -0.211549
8.08 -0.28708
8.09 -0.364687
8.1 -0.441956
8.11 -0.516835
8.12 -0.587003
8.13 -0.651139
8.14 -0.708127
8.15 -0.756809
8.16 -0.797946
8.17 -0.830694
8.18 -0.856952
8.19 -0.877359
8.2 -0.893519
8.21 -0.907101
8.22 -0.919544
8.23 -0.932324
8.24 -0.946594
8.25 -0.962901
8.26 -0.981326
8.27 -1.00137
8.28 -1.02173
8.29 -1.04035
8.3 -1.0549
8.31 -1.0621
8.32 -1.05828
8.33 -1.04076
8.34 -1.00352
8.35 -0.945911
8.36 -0.86212
8.37 -0.751432
8.38 -0.612133
8.39 -0.441779
8.4 -0.244141
8.41 -0.0165767
8.42 0.234179
8.43 0.506025
8.44 0.793302
8.45 1.08969
8.46 1.38872
8.47 1.68317
8.48 1.96481
8.49 2.22687
8.5 2.46273
8.51 2.66369
8.52 2.82859
8.53 2.9466
8.54 3.02069
8.55 3.0458
8.56 3.02196
8.57 2.95308
8.58 2.83606
8.59 2.68102
8.6 2.48811
8.61 2.26595
8.62 2.02029
8.63 1.75726
8.64 1.48499
8.65 1.20955
8.66 0.937753
8.67 0.675522
8.68 0.428318
8.69 0.199055
8.7 -0.00616296
8.71 -0.188496
8.72 -0.343784
8.73 -0.473669
8.74 -0.578629
8.75 -0.65877
8.76 -0.718702
8.77 -0.75805
8.78 -0.782431
8.79 -0.79375
8.8 -0.795545
8.81 -0.791176
8.82 -0.783095
8.83 -0.774227
8.84 -0.766676
8.85 -0.762126
8.86 -0.761742
8.87 -0.76664
8.88 -0.776549
8.89 -0.792211
8.9 -0.812477
8.91 -0.837033
8.92 -0.864895
8.93 -0.894955
8.94 -0.926295
8.95 -0.957747
8.96 -0.988329
8.97 -1.01722
8.98 -1.04378
8.99 -1.0673
9 -1.08783
9.01 -1.10474
9.02 -1.11855
9.03 -1.1292
9.04 -1.13703
9.05 -1.14253
9.06 -1.14584
9.07 -1.14758
9.08 -1.14785
9.09 -1.14694
9.1 -1.14489
9.11 -1.14151
9.12 -1.13669
9.13 -1.12973
9.14 -1.12032
9.15 -1.10763
9.16 -1.09084
9.17 -1.0695
9.18 -1.04215
9.19 -1.00899
9.2 -0.968761
9.21 -0.921652
9.22 -0.8676
9.23 -0.806466
9.24 -0.739555
9.25 -0.666945
9.26 -0.5906
9.27 -0.511714
9.28 -0.432209
9.29 -0.35387
9.3 -0.279181
9.31 -0.20959
9.32 -0.147753
9.33 -0.0949953
9.34 -0.0527424
9.35 -0.0229281
9.36 -0.00483957
9.37 -0.000654126
9.38 -0.00834922
9.39 -0.0280798
9.4 -0.0584787
9.41 -0.0974238
9.42 -0.143831
9.43 -0.194577
9.44 -0.247808
9.45 -0.300904
9.46 -0.351779
9.47 -0.398031
9.48 -0.438624
9.49 -0.471191
9.5 -0.495921
9.51 -0.511923
9.52 -0.519416
9.53 -0.519509
9.54 -0.512416
9.55 -0.500475
9.56 -0.484783
9.57 -0.467479
9.58 -0.450252
9.59 -0.435048
9.6 -0.423044
9.61 -0.416161
9.62 -0.414661
9.63 -0.419431
9.64 -0.430578
9.65 -0.447462
9.66 -0.470172
9.67 -0.497062
9.68 -0.527554
9.69 -0.560183
9.7 -0.593866
9.71 -0.627469
9.72 -0.660177
9.73 -0.691094
9.74 -0.720038
9.75 -0.746732
9.76 -0.77129
9.77 -0.794099
9.78 -0.81535
9.79 -0.835614
9.8 -0.855016
9.81 -0.873608
9.82 -0.891048
9.83 -0.90633
9.84 -0.918453
9.85 -0.924735
9.86 -0.923369
9.87 -0.910842
9.88 -0.883393
9.89 -0.838553
9.9 -0.769461
9.91 -0.675812
9.92 -0.55093
9.93 -0.393814
9.94 -0.202422
9.95 0.0267216
9.96 0.289382
9.97 0.589398
9.98 0.919238
9.99 1.27694
10 1.65634
10.01 2.04991
10.02 2.45056
10.03 2.84906
10.04 3.23574
10.05 3.60168
10.06 3.93844
10.07 4.23463
10.08 4.48788
10.09 4.68426
10.1 4.82607
10.11 4.90643
10.12 4.92404
10.13 4.88344
10.14 4.7793
10.15 4.62429
10.16 4.41779
10.17 4.17033
10.18 3.88912
10.19 3.58133
10.2 3.25782
10.21 2.9256
10.22 2.59398
10.23 2.27017
10.24 1.96123
10.25 1.67103
10.26 1.40682
10.27 1.1676
10.28 0.957908
10.29 0.775956
10.3 0.620817
10.31 0.492048
10.32 0.384227
10.33 0.297065
10.34 0.224372
10.35 0.163611
10.36 0.110874
10.37 0.0626694
10.38 0.0163402
10.39 -0.0306047
10.4 -0.08003
10.41 -0.132975
10.42 -0.189966
10.43 -0.251317
10.44 -0.316172
10.45 -0.384246
10.46 -0.454119
10.47 -0.524805
10.48 -0.594999
10.49 -0.663691
10.5 -0.729471
10.51 -0.791892
10.52 -0.849815
10.53 -0.902991
10.54 -0.951108
10.55 -0.993621
10.56 -1.03109
10.57 -1.06272
10.58 -1.08926
10.59 -1.11041
10.6 -1.12617
10.61 -1.13688
10.62 -1.14173
10.63 -1.14142
10.64 -1.13518
10.65 -1.12325
10.66 -1.10559
10.67 -1.08183
10.68 -1.0528
10.69 -1.01802
10.7 -0.978709
10.71 -0.93525
10.72 -0.888635
10.73 -0.840054
10.74 -0.790657
10.75 -0.741848
10.76 -0.695138
10.77 -0.651853
10.78 -0.613219
10.79 -0.580879
10.8 -0.55504
10.81 -0.537584
10.82 -0.527964
10.83 -0.526899
10.84 -0.534272
10.85 -0.549168
10.86 -0.571887
10.87 -0.600495
10.88 -0.634638
10.89 -0.67273
10.9 -0.713617
10.91 -0.7561
10.92 -0.798918
10.93 -0.840919
10.94 -0.881251
10.95 -0.919049
10.96 -0.953661
10.97 -0.984927
10.98 -1.01211
10.99 -1.03573
11 -1.05542
11.01 -1.07166
11.02 -1.08474
11.03 -1.09485
11.04 -1.10271
11.05 -1.10845
11.06 -1.11277
11.07 -1.11598
11.08 -1.11853
11.09 -1.12078
11.1 -1.12308
11.11 -1.12566
11.12 -1.12877
11.13 -1.1325
11.14 -1.13686
11.15 -1.14177
11.16 -1.14695
11.17 -1.15195
11.18 -1.15615
11.19 -1.1587
11.2 -1.1584
11.21 -1.15426
11.22 -1.14398
11.23 -1.12675
11.24 -1.09976
11.25 -1.06154
11.26 -1.01023
11.27 -0.942776
11.28 -0.859385
11.29 -0.755903
11.3 -0.633724
11.31 -0.491071
11.32 -0.327999
11.33 -0.146572
11.34 0.054094
11.35 0.269126
11.36 0.497189
11.37 0.733543
11.38 0.974118
11.39 1.21375
11.4 1.4478
11.41 1.66939
11.42 1.87464
11.43 2.05751
11.44 2.21285
11.45 2.33886
11.46 2.42761
11.47 2.48209
11.48 2.49682
11.49 2.47409
11.5 2.41494
11.51 2.31916
11.52 2.19368
11.53 2.03822
11.54 1.86113
11.55 1.66602
11.56 1.45886
11.57 1.24551
11.58 1.03136
11.59 0.821386
11.6 0.620739
11.61 0.432859
11.62 0.26048
11.63 0.107039
11.64 -0.0285375
11.65 -0.143148
11.66 -0.239949
11.67 -0.319083
11.68 -0.382661
11.69 -0.433947
11.7 -0.474307
11.71 -0.507994
11.72 -0.537015
11.73 -0.564326
11.74 -0.591958
11.75 -0.621847
11.76 -0.654792
11.77 -0.691888
11.78 -0.73257
11.79 -0.776448
11.8 -0.822255
11.81 -0.868404
11.82 -0.912692
11.83 -0.953273
11.84 -0.987345
11.85 -1.0129
11.86 -1.02799
11.87 -1.02973
11.88 -1.0182
11.89 -0.990015
11.9 -0.946489
11.91 -0.886429
11.92 -0.810111
11.93 -0.719377
11.94 -0.613589
11.95 -0.496476
11.96 -0.368737
11.97 -0.233473
11.98 -0.0930945
11.99 0.0497239
12 0.192164
12.01 0.331095
12.02 0.464213
12.03 0.588686
12.04 0.701921
12.05 0.802825
12.06 0.887576
12.07 0.957083
12.08 1.00843
12.09 1.04206
12.1 1.05785
12.11 1.05479
12.12 1.03559
12.13 0.998843
12.14 0.948078
12.15 0.884047
12.16 0.808876
12.17 0.725325
12.18 0.634854
12.19 0.540727
12.2 0.444893
12.21 0.349804
12.22 0.257347
12.23 0.169702
12.24 0.087642
12.25 0.0132201
12.26 -0.0538202
12.27 -0.112788
12.28 -0.163846
12.29 -0.208057
12.3 -0.245452
12.31 -0.278108
12.32 -0.30682
12.33 -0.333328
12.34 -0.358965
12.35 -0.385143
12.36 -0.41282
12.37 -0.443144
12.38 -0.476273
12.39 -0.51245
12.4 -0.551303
