# xPDFsuite Configuration #
[PDF]
wavelength = 0.1432
dataformat = twotheta
inputfile = 1_1Pd_CeO2_cycle-00212.chi
backgroundfile = background-00000.chi
mode = xray
bgscale = 1.007
composition = CeO2
outputtype = gr
qmaxinst = 28.8974762299
qmin = 0.5
qmax = 27.9
rmax = 50.0
rmin = 0.0
rstep = 0.01
rpoly = 1.8657

[Misc]
inputdir = G:/SankarDec16/1Pd/Chi
savedir = D:/DATA/APS_CeO2/1Pd
backgroundfilefull = G:/SankarDec16/Background/background-00000.chi

#### start data
#S 1
#L r($\AA$)  G($\AA^{-2}$)
0 0
0.01 -0.00768488
0.02 -0.0147913
0.03 -0.0207237
0.04 -0.0250332
0.05 -0.0274701
0.06 -0.0276327
0.07 -0.0257879
0.08 -0.0218061
0.09 -0.0161969
0.1 -0.00931296
0.11 -0.00169394
0.12 0.00607069
0.13 0.0133203
0.14 0.0195857
0.15 0.024293
0.16 0.0271054
0.17 0.0278877
0.18 0.0263649
0.19 0.022929
0.2 0.0175936
0.21 0.0109529
0.22 0.00344548
0.23 -0.00432278
0.24 -0.0117964
0.25 -0.0182636
0.26 -0.0233861
0.27 -0.0266392
0.28 -0.0278137
0.29 -0.0268956
0.3 -0.0237498
0.31 -0.0188751
0.32 -0.0124282
0.33 -0.00506018
0.34 0.00272511
0.35 0.0102833
0.36 0.0171194
0.37 0.0225037
0.38 0.0262449
0.39 0.0278924
0.4 0.0273746
0.41 0.0247999
0.42 0.0201799
0.43 0.0140973
0.44 0.00684459
0.45 -0.000900215
0.46 -0.00859159
0.47 -0.0155767
0.48 -0.0214444
0.49 -0.0254817
0.5 -0.0276535
0.51 -0.027605
0.52 -0.0254061
0.53 -0.021283
0.54 -0.0153943
0.55 -0.0083795
0.56 -0.000653756
0.57 0.00710952
0.58 0.0143489
0.59 0.0204334
0.6 0.0250557
0.61 0.0275532
0.62 0.0280494
0.63 0.0263025
0.64 0.0225213
0.65 0.0170401
0.66 0.0101578
0.67 0.00254087
0.68 -0.00529181
0.69 -0.0127027
0.7 -0.0191411
0.71 -0.0240271
0.72 -0.0271726
0.73 -0.0279961
0.74 -0.0267749
0.75 -0.0233913
0.76 -0.0181842
0.77 -0.0115795
0.78 -0.00400255
0.79 0.00388467
0.8 0.0114853
0.81 0.0182278
0.82 0.0235994
0.83 0.0270996
0.84 0.0286686
0.85 0.0278354
0.86 0.0250163
0.87 0.0202241
0.88 0.0139094
0.89 0.00656742
0.9 -0.00127362
0.91 -0.00899226
0.92 -0.0159493
0.93 -0.0216724
0.94 -0.0257199
0.95 -0.0277056
0.96 -0.027706
0.97 -0.0254026
0.98 -0.0213313
0.99 -0.0156499
1 -0.00890548
1.01 -0.00164061
1.02 0.00552653
1.03 0.0120582
1.04 0.017297
1.05 0.0209109
1.06 0.022563
1.07 0.0220202
1.08 0.0195197
1.09 0.0149446
1.1 0.00895885
1.11 0.00190385
1.12 -0.00555676
1.13 -0.0128214
1.14 -0.0191355
1.15 -0.0240588
1.16 -0.02686
1.17 -0.0273527
1.18 -0.0252766
1.19 -0.0205182
1.2 -0.0134941
1.21 -0.00421485
1.22 0.0064738
1.23 0.0180818
1.24 0.0298032
1.25 0.0409393
1.26 0.0505848
1.27 0.0582996
1.28 0.0632241
1.29 0.0652
1.3 0.063935
1.31 0.0592858
1.32 0.0517415
1.33 0.0412078
1.34 0.0286425
1.35 0.0144729
1.36 -0.000479176
1.37 -0.0154947
1.38 -0.0297421
1.39 -0.0426878
1.4 -0.0535459
1.41 -0.0620603
1.42 -0.067904
1.43 -0.0708579
1.44 -0.0712561
1.45 -0.0688857
1.46 -0.0644837
1.47 -0.0582614
1.48 -0.0507846
1.49 -0.0425545
1.5 -0.0340311
1.51 -0.025648
1.52 -0.017788
1.53 -0.010656
1.54 -0.00440342
1.55 0.000897232
1.56 0.00539076
1.57 0.00908596
1.58 0.0122782
1.59 0.0151128
1.6 0.0178038
1.61 0.0204979
1.62 0.0233043
1.63 0.0262281
1.64 0.0292203
1.65 0.032127
1.66 0.0347433
1.67 0.036762
1.68 0.0379772
1.69 0.037904
1.7 0.0364659
1.71 0.0333161
1.72 0.028359
1.73 0.0216335
1.74 0.013033
1.75 0.00297268
1.76 -0.00844176
1.77 -0.0206996
1.78 -0.0334104
1.79 -0.0460715
1.8 -0.0582712
1.81 -0.0694358
1.82 -0.0793649
1.83 -0.08768
1.84 -0.0942695
1.85 -0.0991829
1.86 -0.102357
1.87 -0.104223
1.88 -0.104931
1.89 -0.104977
1.9 -0.104729
1.91 -0.104619
1.92 -0.104952
1.93 -0.106117
1.94 -0.10815
1.95 -0.111166
1.96 -0.115019
1.97 -0.11945
1.98 -0.124097
1.99 -0.128488
2 -0.132009
2.01 -0.134146
2.02 -0.134333
2.03 -0.131929
2.04 -0.126819
2.05 -0.118188
2.06 -0.106397
2.07 -0.0911249
2.08 -0.0726098
2.09 -0.0512191
2.1 -0.0270472
2.11 -0.000849651
2.12 0.0271792
2.13 0.056435
2.14 0.0866032
2.15 0.117414
2.16 0.148658
2.17 0.180373
2.18 0.212581
2.19 0.245525
2.2 0.279471
2.21 0.314646
2.22 0.351483
2.23 0.389935
2.24 0.430256
2.25 0.472107
2.26 0.515142
2.27 0.558666
2.28 0.601793
2.29 0.643085
2.3 0.681416
2.31 0.714962
2.32 0.742087
2.33 0.761578
2.34 0.770887
2.35 0.770129
2.36 0.756913
2.37 0.731786
2.38 0.694389
2.39 0.644741
2.4 0.584955
2.41 0.514987
2.42 0.438254
2.43 0.356374
2.44 0.272245
2.45 0.188419
2.46 0.107979
2.47 0.0328457
2.48 -0.0339216
2.49 -0.0912325
2.5 -0.137687
2.51 -0.172144
2.52 -0.195811
2.53 -0.207533
2.54 -0.210252
2.55 -0.204771
2.56 -0.193539
2.57 -0.178913
2.58 -0.163254
2.59 -0.148882
2.6 -0.138193
2.61 -0.132651
2.62 -0.133562
2.63 -0.141968
2.64 -0.15722
2.65 -0.179967
2.66 -0.208122
2.67 -0.240778
2.68 -0.275902
2.69 -0.311593
2.7 -0.345631
2.71 -0.376458
2.72 -0.401927
2.73 -0.421247
2.74 -0.433584
2.75 -0.438449
2.76 -0.436935
2.77 -0.428989
2.78 -0.416918
2.79 -0.402039
2.8 -0.386538
2.81 -0.372296
2.82 -0.36167
2.83 -0.355781
2.84 -0.356653
2.85 -0.364521
2.86 -0.37976
2.87 -0.402246
2.88 -0.430375
2.89 -0.463394
2.9 -0.498678
2.91 -0.534263
2.92 -0.567625
2.93 -0.596775
2.94 -0.618909
2.95 -0.633386
2.96 -0.637996
2.97 -0.633114
2.98 -0.618738
2.99 -0.595502
3 -0.565716
3.01 -0.53069
3.02 -0.493696
3.03 -0.457264
3.04 -0.424394
3.05 -0.397329
3.06 -0.379297
3.07 -0.370736
3.08 -0.374021
3.09 -0.388386
3.1 -0.413564
3.11 -0.448525
3.12 -0.490457
3.13 -0.537591
3.14 -0.586234
3.15 -0.633463
3.16 -0.676022
3.17 -0.711606
3.18 -0.736881
3.19 -0.75175
3.2 -0.754066
3.21 -0.745136
3.22 -0.72577
3.23 -0.697725
3.24 -0.664302
3.25 -0.628282
3.26 -0.593548
3.27 -0.56373
3.28 -0.542316
3.29 -0.531539
3.3 -0.53503
3.31 -0.552063
3.32 -0.584643
3.33 -0.630465
3.34 -0.687939
3.35 -0.754288
3.36 -0.825279
3.37 -0.896872
3.38 -0.964574
3.39 -1.02377
3.4 -1.07047
3.41 -1.10233
3.42 -1.11521
3.43 -1.1107
3.44 -1.08684
3.45 -1.04707
3.46 -0.993861
3.47 -0.931141
3.48 -0.864248
3.49 -0.798558
3.5 -0.73923
3.51 -0.691741
3.52 -0.660316
3.53 -0.646934
3.54 -0.655246
3.55 -0.681998
3.56 -0.727124
3.57 -0.784454
3.58 -0.848289
3.59 -0.910032
3.6 -0.961584
3.61 -0.989665
3.62 -0.987369
3.63 -0.942086
3.64 -0.845074
3.65 -0.691903
3.66 -0.470095
3.67 -0.186094
3.68 0.168228
3.69 0.583374
3.7 1.05445
3.71 1.57323
3.72 2.12381
3.73 2.69496
3.74 3.26763
3.75 3.82509
3.76 4.34889
3.77 4.82518
3.78 5.23078
3.79 5.5622
3.8 5.79802
3.81 5.93836
3.82 5.97731
3.83 5.90977
3.84 5.74948
3.85 5.48806
3.86 5.14956
3.87 4.7389
3.88 4.27306
3.89 3.76882
3.9 3.24021
3.91 2.70559
3.92 2.18021
3.93 1.6776
3.94 1.20933
3.95 0.787491
3.96 0.413486
3.97 0.10021
3.98 -0.159553
3.99 -0.361967
4 -0.51182
4.01 -0.616222
4.02 -0.677343
4.03 -0.707869
4.04 -0.71192
4.05 -0.699764
4.06 -0.67791
4.07 -0.653069
4.08 -0.630327
4.09 -0.614618
4.1 -0.607533
4.11 -0.611064
4.12 -0.624972
4.13 -0.647762
4.14 -0.678207
4.15 -0.712836
4.16 -0.749098
4.17 -0.783697
4.18 -0.813884
4.19 -0.836635
4.2 -0.850894
4.21 -0.853594
4.22 -0.845616
4.23 -0.825869
4.24 -0.795082
4.25 -0.754616
4.26 -0.704798
4.27 -0.648266
4.28 -0.585767
4.29 -0.519365
4.3 -0.450258
4.31 -0.379565
4.32 -0.308209
4.33 -0.236706
4.34 -0.165359
4.35 -0.0942581
4.36 -0.0233449
4.37 0.0474731
4.38 0.118227
4.39 0.188827
4.4 0.258916
4.41 0.327927
4.42 0.395016
4.43 0.458809
4.44 0.518387
4.45 0.571235
4.46 0.616635
4.47 0.652295
4.48 0.676753
4.49 0.689367
4.5 0.687653
4.51 0.672999
4.52 0.643627
4.53 0.601239
4.54 0.546519
4.55 0.480512
4.56 0.406063
4.57 0.32422
4.58 0.238386
4.59 0.150597
4.6 0.0634785
4.61 -0.0209805
4.62 -0.10026
4.63 -0.173575
4.64 -0.238961
4.65 -0.296404
4.66 -0.345604
4.67 -0.386481
4.68 -0.420495
4.69 -0.447589
4.7 -0.469912
4.71 -0.488304
4.72 -0.504247
4.73 -0.518965
4.74 -0.533501
4.75 -0.548638
4.76 -0.565009
4.77 -0.582754
4.78 -0.601852
4.79 -0.622033
4.8 -0.642736
4.81 -0.663327
4.82 -0.683127
4.83 -0.701394
4.84 -0.717502
4.85 -0.731127
4.86 -0.741644
4.87 -0.749388
4.88 -0.754127
4.89 -0.756448
4.9 -0.756777
4.91 -0.755706
4.92 -0.753998
4.93 -0.752331
4.94 -0.751337
4.95 -0.751598
4.96 -0.753513
4.97 -0.757205
4.98 -0.762935
4.99 -0.770308
5 -0.779246
5.01 -0.789211
5.02 -0.799786
5.03 -0.810467
5.04 -0.820843
5.05 -0.830445
5.06 -0.839135
5.07 -0.846716
5.08 -0.853226
5.09 -0.858837
5.1 -0.863686
5.11 -0.868105
5.12 -0.872259
5.13 -0.876287
5.14 -0.880131
5.15 -0.883465
5.16 -0.885836
5.17 -0.886094
5.18 -0.883354
5.19 -0.875916
5.2 -0.862024
5.21 -0.840319
5.22 -0.807694
5.23 -0.763871
5.24 -0.705679
5.25 -0.632968
5.26 -0.544782
5.27 -0.440181
5.28 -0.321352
5.29 -0.187352
5.3 -0.0423317
5.31 0.111937
5.32 0.271545
5.33 0.432571
5.34 0.590127
5.35 0.74027
5.36 0.877135
5.37 0.99714
5.38 1.09623
5.39 1.16955
5.4 1.21742
5.41 1.23365
5.42 1.22193
5.43 1.18024
5.44 1.11065
5.45 1.01678
5.46 0.89944
5.47 0.765547
5.48 0.617619
5.49 0.461761
5.5 0.302404
5.51 0.144604
5.52 -0.00790613
5.53 -0.14996
5.54 -0.279951
5.55 -0.394631
5.56 -0.492707
5.57 -0.574483
5.58 -0.638192
5.59 -0.687074
5.6 -0.720679
5.61 -0.742137
5.62 -0.753216
5.63 -0.755784
5.64 -0.752583
5.65 -0.74469
5.66 -0.734193
5.67 -0.721854
5.68 -0.708308
5.69 -0.693714
5.7 -0.677596
5.71 -0.659551
5.72 -0.63842
5.73 -0.613444
5.74 -0.583696
5.75 -0.548081
5.76 -0.506778
5.77 -0.458705
5.78 -0.405124
5.79 -0.346346
5.8 -0.283815
5.81 -0.219238
5.82 -0.154655
5.83 -0.0921823
5.84 -0.0345305
5.85 0.0163033
5.86 0.0582573
5.87 0.0889004
5.88 0.108213
5.89 0.113373
5.9 0.106087
5.91 0.0856522
5.92 0.0532845
5.93 0.0109195
5.94 -0.0405315
5.95 -0.097793
5.96 -0.159185
5.97 -0.221929
5.98 -0.283955
5.99 -0.34303
6 -0.398025
6.01 -0.446974
6.02 -0.490089
6.03 -0.526791
6.04 -0.557615
6.05 -0.583635
6.06 -0.605614
6.07 -0.625441
6.08 -0.644418
6.09 -0.664157
6.1 -0.685898
6.11 -0.710896
6.12 -0.739403
6.13 -0.77226
6.14 -0.808628
6.15 -0.848129
6.16 -0.889543
6.17 -0.931501
6.18 -0.972243
6.19 -1.01034
6.2 -1.04378
6.21 -1.07145
6.22 -1.09225
6.23 -1.1051
6.24 -1.11068
6.25 -1.10814
6.26 -1.09941
6.27 -1.08522
6.28 -1.06736
6.29 -1.04761
6.3 -1.0278
6.31 -1.00946
6.32 -0.994066
6.33 -0.982138
6.34 -0.973721
6.35 -0.968099
6.36 -0.963459
6.37 -0.957033
6.38 -0.945624
6.39 -0.924733
6.4 -0.889362
6.41 -0.835681
6.42 -0.755541
6.43 -0.647837
6.44 -0.504444
6.45 -0.324492
6.46 -0.105375
6.47 0.155965
6.48 0.454394
6.49 0.79331
6.5 1.16298
6.51 1.56014
6.52 1.97619
6.53 2.40201
6.54 2.82735
6.55 3.24205
6.56 3.63321
6.57 3.99122
6.58 4.30601
6.59 4.56487
6.6 4.76659
6.61 4.89472
6.62 4.95509
6.63 4.94027
6.64 4.85168
6.65 4.69574
6.66 4.46952
6.67 4.18894
6.68 3.85569
6.69 3.48396
6.7 3.08328
6.71 2.66449
6.72 2.23958
6.73 1.81963
6.74 1.41385
6.75 1.03187
6.76 0.68129
6.77 0.365551
6.78 0.0935366
6.79 -0.138578
6.8 -0.325129
6.81 -0.470734
6.82 -0.577262
6.83 -0.646638
6.84 -0.686856
6.85 -0.698722
6.86 -0.691277
6.87 -0.667984
6.88 -0.63435
6.89 -0.594939
6.9 -0.553305
6.91 -0.512576
6.92 -0.475134
6.93 -0.442182
6.94 -0.414399
6.95 -0.392138
6.96 -0.374436
6.97 -0.361213
6.98 -0.350969
6.99 -0.343056
7 -0.33659
7.01 -0.330981
7.02 -0.326045
7.03 -0.321773
7.04 -0.318699
7.05 -0.317493
7.06 -0.31907
7.07 -0.324799
7.08 -0.335244
7.09 -0.352336
7.1 -0.375997
7.11 -0.407245
7.12 -0.446121
7.13 -0.491917
7.14 -0.544642
7.15 -0.602222
7.16 -0.663649
7.17 -0.726684
7.18 -0.789423
7.19 -0.849488
7.2 -0.905322
7.21 -0.954159
7.22 -0.995435
7.23 -1.02751
7.24 -1.04987
7.25 -1.06305
7.26 -1.06645
7.27 -1.0624
7.28 -1.05143
7.29 -1.03593
7.3 -1.01771
7.31 -0.998895
7.32 -0.981276
7.33 -0.966921
7.34 -0.95664
7.35 -0.951463
7.36 -0.951472
7.37 -0.955909
7.38 -0.96401
7.39 -0.973588
7.4 -0.982443
7.41 -0.987805
7.42 -0.986882
7.43 -0.975941
7.44 -0.95342
7.45 -0.914463
7.46 -0.859117
7.47 -0.784615
7.48 -0.690349
7.49 -0.577516
7.5 -0.444838
7.51 -0.296761
7.52 -0.134071
7.53 0.0386069
7.54 0.217637
7.55 0.398447
7.56 0.576637
7.57 0.746496
7.58 0.904601
7.59 1.04597
7.6 1.16683
7.61 1.26563
7.62 1.337
7.63 1.38336
7.64 1.40098
7.65 1.39233
7.66 1.35827
7.67 1.29949
7.68 1.22092
7.69 1.12268
7.7 1.01072
7.71 0.887396
7.72 0.756754
7.73 0.622437
7.74 0.487843
7.75 0.355975
7.76 0.230058
7.77 0.112155
7.78 0.00417727
7.79 -0.0915659
7.8 -0.175356
7.81 -0.244379
7.82 -0.300191
7.83 -0.341694
7.84 -0.369283
7.85 -0.384216
7.86 -0.385705
7.87 -0.376489
7.88 -0.356397
7.89 -0.327623
7.9 -0.291515
7.91 -0.249519
7.92 -0.203908
7.93 -0.156243
7.94 -0.108784
7.95 -0.0635054
7.96 -0.02255
7.97 0.0126078
7.98 0.0392085
7.99 0.0569628
8 0.0634623
8.01 0.0586102
8.02 0.0418906
8.03 0.0125985
8.04 -0.0275003
8.05 -0.07916
8.06 -0.139527
8.07 -0.207621
8.08 -0.281205
8.09 -0.357971
8.1 -0.435722
8.11 -0.512187
8.12 -0.585038
8.13 -0.652636
8.14 -0.713589
8.15 -0.766384
8.16 -0.811436
8.17 -0.847469
8.18 -0.876151
8.19 -0.897804
8.2 -0.913859
8.21 -0.925989
8.22 -0.935487
8.23 -0.94415
8.24 -0.953204
8.25 -0.963582
8.26 -0.975683
8.27 -0.989405
8.28 -1.0038
8.29 -1.01726
8.3 -1.02767
8.31 -1.03206
8.32 -1.0269
8.33 -1.00952
8.34 -0.974013
8.35 -0.919405
8.36 -0.839834
8.37 -0.734211
8.38 -0.600534
8.39 -0.43602
8.4 -0.244115
8.41 -0.021823
8.42 0.224315
8.43 0.492434
8.44 0.77699
8.45 1.07164
8.46 1.36999
8.47 1.6646
8.48 1.94714
8.49 2.21061
8.5 2.44817
8.51 2.65092
8.52 2.81751
8.53 2.93693
8.54 3.01208
8.55 3.03786
8.56 3.01432
8.57 2.94549
8.58 2.82837
8.59 2.67328
8.6 2.48056
8.61 2.25901
8.62 2.01453
8.63 1.75341
8.64 1.48375
8.65 1.21171
8.66 0.943933
8.67 0.686206
8.68 0.443737
8.69 0.219162
8.7 0.0182082
8.71 -0.160548
8.72 -0.313365
8.73 -0.442105
8.74 -0.547454
8.75 -0.629756
8.76 -0.693459
8.77 -0.738356
8.78 -0.769642
8.79 -0.789035
8.8 -0.799644
8.81 -0.804371
8.82 -0.805138
8.83 -0.804419
8.84 -0.803731
8.85 -0.804403
8.86 -0.807273
8.87 -0.813082
8.88 -0.821723
8.89 -0.833629
8.9 -0.84815
8.91 -0.865123
8.92 -0.884036
8.93 -0.904323
8.94 -0.9256
8.95 -0.947297
8.96 -0.969052
8.97 -0.990513
8.98 -1.01143
8.99 -1.03156
9 -1.05085
9.01 -1.06905
9.02 -1.08621
9.03 -1.1022
9.04 -1.1169
9.05 -1.1303
9.06 -1.14204
9.07 -1.15214
9.08 -1.16013
9.09 -1.16583
9.1 -1.1689
9.11 -1.16871
9.12 -1.16524
9.13 -1.15744
9.14 -1.14542
9.15 -1.12845
9.16 -1.10612
9.17 -1.07846
9.18 -1.04448
9.19 -1.0049
9.2 -0.959014
9.21 -0.907391
9.22 -0.850296
9.23 -0.787935
9.24 -0.721499
9.25 -0.651297
9.26 -0.578865
9.27 -0.505218
9.28 -0.431838
9.29 -0.36003
9.3 -0.291752
9.31 -0.227984
9.32 -0.170825
9.33 -0.121258
9.34 -0.0804273
9.35 -0.0499569
9.36 -0.0293254
9.37 -0.0205156
9.38 -0.0220058
9.39 -0.034177
9.4 -0.0561546
9.41 -0.0863318
9.42 -0.124198
9.43 -0.167108
9.44 -0.213801
9.45 -0.262
9.46 -0.309912
9.47 -0.35546
9.48 -0.397401
9.49 -0.433598
9.5 -0.463724
9.51 -0.486687
9.52 -0.502233
9.53 -0.510961
9.54 -0.512571
9.55 -0.50891
9.56 -0.500547
9.57 -0.489275
9.58 -0.476514
9.59 -0.463915
9.6 -0.452818
9.61 -0.444955
9.62 -0.441021
9.63 -0.442083
9.64 -0.448647
9.65 -0.460502
9.66 -0.478159
9.67 -0.500362
9.68 -0.526939
9.69 -0.556663
9.7 -0.588622
9.71 -0.621836
9.72 -0.655305
9.73 -0.688151
9.74 -0.719798
9.75 -0.749714
9.76 -0.777609
9.77 -0.803513
9.78 -0.827156
9.79 -0.848887
9.8 -0.86845
9.81 -0.88581
9.82 -0.90057
9.83 -0.911698
9.84 -0.918515
9.85 -0.918468
9.86 -0.910251
9.87 -0.890734
9.88 -0.856662
9.89 -0.805967
9.9 -0.732391
9.91 -0.635792
9.92 -0.509969
9.93 -0.353958
9.94 -0.165749
9.95 0.0581149
9.96 0.313842
9.97 0.605399
9.98 0.925899
9.99 1.27382
10 1.64362
10.01 2.02824
10.02 2.42132
10.03 2.81385
10.04 3.19675
10.05 3.56119
10.06 3.89882
10.07 4.19838
10.08 4.45702
10.09 4.6608
10.1 4.81131
10.11 4.90126
10.12 4.92876
10.13 4.89775
10.14 4.80224
10.15 4.65453
10.16 4.4534
10.17 4.20917
10.18 3.92889
10.19 3.61953
10.2 3.29231
10.21 2.95418
10.22 2.61507
10.23 2.28253
10.24 1.96418
10.25 1.66443
10.26 1.39116
10.27 1.14379
10.28 0.927445
10.29 0.740615
10.3 0.582609
10.31 0.453256
10.32 0.34688
10.33 0.263368
10.34 0.196007
10.35 0.142043
10.36 0.0971071
10.37 0.0572189
10.38 0.0192341
10.39 -0.0197981
10.4 -0.0622432
10.41 -0.10947
10.42 -0.162269
10.43 -0.221267
10.44 -0.285474
10.45 -0.354846
10.46 -0.427587
10.47 -0.502601
10.48 -0.578253
10.49 -0.653138
10.5 -0.725505
10.51 -0.794473
10.52 -0.858511
10.53 -0.917039
10.54 -0.969479
10.55 -1.01498
10.56 -1.05413
10.57 -1.08586
10.58 -1.11116
10.59 -1.12975
10.6 -1.14183
10.61 -1.14801
10.62 -1.1477
10.63 -1.14198
10.64 -1.13033
10.65 -1.11332
10.66 -1.09113
10.67 -1.06369
10.68 -1.03188
10.69 -0.995477
10.7 -0.955622
10.71 -0.912751
10.72 -0.86779
10.73 -0.821756
10.74 -0.775751
10.75 -0.73089
10.76 -0.688551
10.77 -0.64982
10.78 -0.615739
10.79 -0.587747
10.8 -0.565925
10.81 -0.551954
10.82 -0.545251
10.83 -0.546431
10.84 -0.555336
10.85 -0.571095
10.86 -0.593941
10.87 -0.622085
10.88 -0.655164
10.89 -0.691709
10.9 -0.730643
10.91 -0.770834
10.92 -0.811135
10.93 -0.850444
10.94 -0.888001
10.95 -0.922997
10.96 -0.95484
10.97 -0.983411
10.98 -1.00803
10.99 -1.02923
11 -1.04672
11.01 -1.06097
11.02 -1.07232
11.03 -1.08101
11.04 -1.08776
11.05 -1.09278
11.06 -1.09676
11.07 -1.10008
11.08 -1.10319
11.09 -1.10645
11.1 -1.11027
11.11 -1.1148
11.12 -1.12033
11.13 -1.12685
11.14 -1.13433
11.15 -1.1426
11.16 -1.15125
11.17 -1.15974
11.18 -1.16731
11.19 -1.17294
11.2 -1.17531
11.21 -1.17332
11.22 -1.16445
11.23 -1.1479
11.24 -1.12069
11.25 -1.08135
11.26 -1.02803
11.27 -0.957655
11.28 -0.870595
11.29 -0.762717
11.3 -0.635661
11.31 -0.487808
11.32 -0.31945
11.33 -0.132869
11.34 0.0725208
11.35 0.29168
11.36 0.522978
11.37 0.761534
11.38 1.00315
11.39 1.24247
11.4 1.47498
11.41 1.69365
11.42 1.89486
11.43 2.07266
11.44 2.22211
11.45 2.34173
11.46 2.42386
11.47 2.47182
11.48 2.48048
11.49 2.45243
11.5 2.38898
11.51 2.29023
11.52 2.16313
11.53 2.00771
11.54 1.83214
11.55 1.64006
11.56 1.43728
11.57 1.22937
11.58 1.02151
11.59 0.818266
11.6 0.624437
11.61 0.443065
11.62 0.276544
11.63 0.127894
11.64 -0.00409375
11.65 -0.116736
11.66 -0.213117
11.67 -0.293504
11.68 -0.35994
11.69 -0.415431
11.7 -0.461254
11.71 -0.501179
11.72 -0.536927
11.73 -0.571004
11.74 -0.60506
11.75 -0.64057
11.76 -0.678107
11.77 -0.718288
11.78 -0.760531
11.79 -0.804243
11.8 -0.84815
11.81 -0.890874
11.82 -0.930221
11.83 -0.964828
11.84 -0.992127
11.85 -1.01058
11.86 -1.01863
11.87 -1.01385
11.88 -0.996632
11.89 -0.964076
11.9 -0.91759
11.91 -0.856229
11.92 -0.78034
11.93 -0.691602
11.94 -0.589436
11.95 -0.477108
11.96 -0.355138
11.97 -0.226174
11.98 -0.0922473
11.99 0.0444128
12 0.181309
12.01 0.315783
12.02 0.445672
12.03 0.568399
12.04 0.681467
12.05 0.783659
12.06 0.871227
12.07 0.944658
12.08 1.00088
12.09 1.0399
12.1 1.06126
12.11 1.0635
12.12 1.04903
12.13 1.016
12.14 0.967793
12.15 0.904911
12.16 0.829385
12.17 0.744097
12.18 0.65044
12.19 0.552079
12.2 0.451124
12.21 0.350438
12.22 0.252255
12.23 0.159173
12.24 0.072261
12.25 -0.0059823
12.26 -0.0756819
12.27 -0.135909
12.28 -0.186734
12.29 -0.229344
12.3 -0.263704
12.31 -0.292293
12.32 -0.316065
12.33 -0.337167
12.34 -0.357276
12.35 -0.378216
12.36 -0.401239
12.37 -0.427932
12.38 -0.458586
12.39 -0.49368
12.4 -0.532935
