# xPDFsuite Configuration #
[PDF]
wavelength = 0.1432
dataformat = twotheta
inputfile = 1_1Pd_CeO2_cycle-00207.chi
backgroundfile = background-00000.chi
mode = xray
bgscale = 1.007
composition = CeO2
outputtype = gr
qmaxinst = 28.8974762299
qmin = 0.5
qmax = 27.9
rmax = 50.0
rmin = 0.0
rstep = 0.01
rpoly = 1.8657

[Misc]
inputdir = G:/SankarDec16/1Pd/Chi
savedir = D:/DATA/APS_CeO2/1Pd
backgroundfilefull = G:/SankarDec16/Background/background-00000.chi

#### start data
#S 1
#L r($\AA$)  G($\AA^{-2}$)
0 0
0.01 -0.00550979
0.02 -0.0106036
0.03 -0.0148531
0.04 -0.017936
0.05 -0.019673
0.06 -0.0197763
0.07 -0.0184384
0.08 -0.0155678
0.09 -0.0115319
0.1 -0.00658533
0.11 -0.00111742
0.12 0.00444828
0.13 0.00963561
0.14 0.0141091
0.15 0.0174569
0.16 0.0194391
0.17 0.0199611
0.18 0.0188285
0.19 0.0163256
0.2 0.0124665
0.21 0.00768021
0.22 0.00228433
0.23 -0.00328367
0.24 -0.00862584
0.25 -0.0132292
0.26 -0.0168552
0.27 -0.0191288
0.28 -0.0199045
0.29 -0.0191769
0.3 -0.0168551
0.31 -0.0133014
0.32 -0.0086349
0.33 -0.00332563
0.34 0.00226147
0.35 0.00766185
0.36 0.0125229
0.37 0.0163201
0.38 0.0189233
0.39 0.0200133
0.4 0.0195462
0.41 0.0176066
0.42 0.0142118
0.43 0.00978464
0.44 0.00454379
0.45 -0.0010225
0.46 -0.00651994
0.47 -0.0114793
0.48 -0.0156112
0.49 -0.0184049
0.5 -0.0198461
0.51 -0.019687
0.52 -0.0179881
0.53 -0.0149204
0.54 -0.010609
0.55 -0.00551703
0.56 4.77981e-05
0.57 0.00560264
0.58 0.0107433
0.59 0.0150189
0.6 0.0182175
0.61 0.0198683
0.62 0.0200733
0.63 0.0186692
0.64 0.0158186
0.65 0.0117708
0.66 0.00675361
0.67 0.00124763
0.68 -0.0043649
0.69 -0.00963003
0.7 -0.0141537
0.71 -0.0175249
0.72 -0.0196207
0.73 -0.0200323
0.74 -0.018974
0.75 -0.0163745
0.76 -0.0124905
0.77 -0.00763704
0.78 -0.00213267
0.79 0.00354863
0.8 0.00897064
0.81 0.013731
0.82 0.0174668
0.83 0.0198284
0.84 0.0207875
0.85 0.0200198
0.86 0.0178392
0.87 0.0142696
0.88 0.00964621
0.89 0.00433048
0.9 -0.00128946
0.91 -0.00677561
0.92 -0.0116699
0.93 -0.0156496
0.94 -0.0184126
0.95 -0.0197033
0.96 -0.019596
0.97 -0.0178931
0.98 -0.0149921
0.99 -0.0110317
1 -0.00641657
1.01 -0.00153858
1.02 0.00314744
1.03 0.00727972
1.04 0.0103924
1.05 0.0122837
1.06 0.0127437
1.07 0.0116514
1.08 0.00921676
1.09 0.00542526
1.1 0.000783745
1.11 -0.00439844
1.12 -0.00960491
1.13 -0.0143808
1.14 -0.018124
1.15 -0.0205496
1.16 -0.0210875
1.17 -0.0196519
1.18 -0.0160743
1.19 -0.0103116
1.2 -0.00274085
1.21 0.00657952
1.22 0.0169406
1.23 0.0279027
1.24 0.0387831
1.25 0.0489935
1.26 0.0577413
1.27 0.0646687
1.28 0.0690009
1.29 0.0705958
1.3 0.0691636
1.31 0.0645228
1.32 0.0570777
1.33 0.0466299
1.34 0.0340171
1.35 0.0195242
1.36 0.00384661
1.37 -0.0123791
1.38 -0.028459
1.39 -0.0438116
1.4 -0.0577129
1.41 -0.0697759
1.42 -0.0795699
1.43 -0.086697
1.44 -0.0912772
1.45 -0.0928178
1.46 -0.0918423
1.47 -0.0882646
1.48 -0.0824265
1.49 -0.074695
1.5 -0.0652569
1.51 -0.0546676
1.52 -0.0431475
1.53 -0.0311352
1.54 -0.0189167
1.55 -0.00680392
1.56 0.00498472
1.57 0.0161317
1.58 0.0265341
1.59 0.03594
1.6 0.0441993
1.61 0.0512149
1.62 0.0566853
1.63 0.0606794
1.64 0.0628608
1.65 0.063287
1.66 0.0618402
1.67 0.0584146
1.68 0.0532242
1.69 0.0460531
1.7 0.0373411
1.71 0.0271495
1.72 0.0158283
1.73 0.00373828
1.74 -0.00875569
1.75 -0.0212059
1.76 -0.0331532
1.77 -0.0442242
1.78 -0.0540573
1.79 -0.0622912
1.8 -0.0689168
1.81 -0.0735681
1.82 -0.0765873
1.83 -0.0779851
1.84 -0.0781199
1.85 -0.0773979
1.86 -0.0762527
1.87 -0.0752112
1.88 -0.0748224
1.89 -0.0755071
1.9 -0.0776566
1.91 -0.0816238
1.92 -0.0873369
1.93 -0.0950479
1.94 -0.104241
1.95 -0.11467
1.96 -0.125709
1.97 -0.136713
1.98 -0.146804
1.99 -0.155339
2 -0.161258
2.01 -0.16404
2.02 -0.163021
2.03 -0.15755
2.04 -0.147838
2.05 -0.133092
2.06 -0.114225
2.07 -0.0912057
2.08 -0.0647509
2.09 -0.0356389
2.1 -0.00447647
2.11 0.0277052
2.12 0.0602175
2.13 0.0923219
2.14 0.1235
2.15 0.153329
2.16 0.181825
2.17 0.208862
2.18 0.234961
2.19 0.260515
2.2 0.286209
2.21 0.312669
2.22 0.340761
2.23 0.370836
2.24 0.403627
2.25 0.439088
2.26 0.477191
2.27 0.51755
2.28 0.559232
2.29 0.601164
2.3 0.641881
2.31 0.679605
2.32 0.712437
2.33 0.73885
2.34 0.756053
2.35 0.76369
2.36 0.759025
2.37 0.742184
2.38 0.712444
2.39 0.669421
2.4 0.615069
2.41 0.548878
2.42 0.474356
2.43 0.392901
2.44 0.307475
2.45 0.220792
2.46 0.135963
2.47 0.0553384
2.48 -0.0178532
2.49 -0.0820846
2.5 -0.135623
2.51 -0.176927
2.52 -0.206908
2.53 -0.223961
2.54 -0.230908
2.55 -0.228257
2.56 -0.218366
2.57 -0.203628
2.58 -0.186304
2.59 -0.169052
2.6 -0.154331
2.61 -0.143999
2.62 -0.139657
2.63 -0.142727
2.64 -0.152895
2.65 -0.171253
2.66 -0.195915
2.67 -0.226301
2.68 -0.26053
2.69 -0.296713
2.7 -0.332762
2.71 -0.366811
2.72 -0.396652
2.73 -0.421087
2.74 -0.438957
2.75 -0.449343
2.76 -0.452962
2.77 -0.449223
2.78 -0.440203
2.79 -0.426811
2.8 -0.411043
2.81 -0.394761
2.82 -0.38014
2.83 -0.36869
2.84 -0.362495
2.85 -0.362309
2.86 -0.368917
2.87 -0.382752
2.88 -0.40271
2.89 -0.42875
2.9 -0.458577
2.91 -0.490798
2.92 -0.523185
2.93 -0.553826
2.94 -0.580239
2.95 -0.601312
2.96 -0.614857
2.97 -0.620609
2.98 -0.618086
2.99 -0.607261
3 -0.589757
3.01 -0.56604
3.02 -0.538844
3.03 -0.509955
3.04 -0.481891
3.05 -0.456691
3.06 -0.437048
3.07 -0.423862
3.08 -0.419311
3.09 -0.42331
3.1 -0.436051
3.11 -0.457172
3.12 -0.484698
3.13 -0.517697
3.14 -0.553239
3.15 -0.589237
3.16 -0.62309
3.17 -0.652841
3.18 -0.675855
3.19 -0.691686
3.2 -0.698538
3.21 -0.697113
3.22 -0.687841
3.23 -0.671888
3.24 -0.651685
3.25 -0.629272
3.26 -0.607655
3.27 -0.589642
3.28 -0.577996
3.29 -0.574518
3.3 -0.582102
3.31 -0.600247
3.32 -0.630557
3.33 -0.671232
3.34 -0.720996
3.35 -0.777583
3.36 -0.837584
3.37 -0.897619
3.38 -0.954053
3.39 -1.00304
3.4 -1.0413
3.41 -1.06691
3.42 -1.07644
3.43 -1.07129
3.44 -1.04988
3.45 -1.0152
3.46 -0.969429
3.47 -0.916021
3.48 -0.859551
3.49 -0.804778
3.5 -0.756067
3.51 -0.718185
3.52 -0.694711
3.53 -0.687242
3.54 -0.698797
3.55 -0.726311
3.56 -0.769393
3.57 -0.822315
3.58 -0.879662
3.59 -0.933295
3.6 -0.975813
3.61 -0.994514
3.62 -0.983188
3.63 -0.929854
3.64 -0.826314
3.65 -0.668435
3.66 -0.44424
3.67 -0.159949
3.68 0.192371
3.69 0.603673
3.7 1.06939
3.71 1.58178
3.72 2.12554
3.73 2.69006
3.74 3.25683
3.75 3.80967
3.76 4.33054
3.77 4.80576
3.78 5.21249
3.79 5.5469
3.8 5.78759
3.81 5.93415
3.82 5.98024
3.83 5.92021
3.84 5.76718
3.85 5.51211
3.86 5.1786
3.87 4.77105
3.88 4.30614
3.89 3.8006
3.9 3.26824
3.91 2.72792
3.92 2.19499
3.93 1.68364
3.94 1.20599
3.95 0.7748
3.96 0.39208
3.97 0.0715443
3.98 -0.193694
3.99 -0.399232
4 -0.54963
4.01 -0.652047
4.02 -0.708484
4.03 -0.732258
4.04 -0.727695
4.05 -0.705829
4.06 -0.67379
4.07 -0.639074
4.08 -0.607379
4.09 -0.584544
4.1 -0.572441
4.11 -0.573637
4.12 -0.588065
4.13 -0.614112
4.14 -0.650651
4.15 -0.693481
4.16 -0.739754
4.17 -0.785318
4.18 -0.826725
4.19 -0.860081
4.2 -0.883703
4.21 -0.89353
4.22 -0.890209
4.23 -0.872051
4.24 -0.839652
4.25 -0.794549
4.26 -0.736999
4.27 -0.670471
4.28 -0.596058
4.29 -0.516764
4.3 -0.434547
4.31 -0.351465
4.32 -0.2691
4.33 -0.18903
4.34 -0.11179
4.35 -0.0380993
4.36 0.0319641
4.37 0.0986862
4.38 0.162009
4.39 0.222717
4.4 0.280789
4.41 0.336626
4.42 0.390152
4.43 0.440931
4.44 0.48873
4.45 0.532069
4.46 0.570493
4.47 0.602327
4.48 0.626261
4.49 0.641475
4.5 0.645587
4.51 0.63915
4.52 0.620083
4.53 0.589174
4.54 0.54639
4.55 0.491908
4.56 0.427934
4.57 0.354576
4.58 0.274994
4.59 0.190678
4.6 0.104129
4.61 0.0175091
4.62 -0.066724
4.63 -0.147035
4.64 -0.221158
4.65 -0.288266
4.66 -0.347422
4.67 -0.39778
4.68 -0.440265
4.69 -0.474014
4.7 -0.501013
4.71 -0.52167
4.72 -0.537419
4.73 -0.549682
4.74 -0.559526
4.75 -0.568409
4.76 -0.57729
4.77 -0.587015
4.78 -0.598124
4.79 -0.611002
4.8 -0.62549
4.81 -0.641617
4.82 -0.658748
4.83 -0.676434
4.84 -0.693988
4.85 -0.710833
4.86 -0.7262
4.87 -0.739807
4.88 -0.751035
4.89 -0.75986
4.9 -0.766208
4.91 -0.770103
4.92 -0.772052
4.93 -0.772177
4.94 -0.771214
4.95 -0.769577
4.96 -0.767844
4.97 -0.766465
4.98 -0.765958
4.99 -0.76652
5 -0.768527
5.01 -0.771985
5.02 -0.776938
5.03 -0.783389
5.04 -0.791067
5.05 -0.799988
5.06 -0.809791
5.07 -0.820364
5.08 -0.831486
5.09 -0.842958
5.1 -0.854603
5.11 -0.866191
5.12 -0.877433
5.13 -0.887988
5.14 -0.897406
5.15 -0.904945
5.16 -0.910094
5.17 -0.911345
5.18 -0.908086
5.19 -0.898627
5.2 -0.881515
5.21 -0.855755
5.22 -0.818589
5.23 -0.770196
5.24 -0.707823
5.25 -0.631661
5.26 -0.541029
5.27 -0.435243
5.28 -0.316427
5.29 -0.18379
5.3 -0.0411399
5.31 0.109913
5.32 0.265832
5.33 0.42306
5.34 0.577146
5.35 0.724456
5.36 0.859541
5.37 0.978985
5.38 1.07887
5.39 1.15444
5.4 1.20577
5.41 1.22659
5.42 1.22015
5.43 1.18407
5.44 1.11995
5.45 1.031
5.46 0.917505
5.47 0.786168
5.48 0.639079
5.49 0.482341
5.5 0.320365
5.51 0.158286
5.52 0.000271553
5.53 -0.148259
5.54 -0.285066
5.55 -0.40639
5.56 -0.510327
5.57 -0.596731
5.58 -0.663158
5.59 -0.712773
5.6 -0.744656
5.61 -0.762103
5.62 -0.766988
5.63 -0.761438
5.64 -0.748837
5.65 -0.730752
5.66 -0.710091
5.67 -0.688356
5.68 -0.666975
5.69 -0.646646
5.7 -0.627787
5.71 -0.609972
5.72 -0.592637
5.73 -0.574712
5.74 -0.555072
5.75 -0.532239
5.76 -0.505496
5.77 -0.473104
5.78 -0.435222
5.79 -0.391187
5.8 -0.341394
5.81 -0.286837
5.82 -0.228362
5.83 -0.168083
5.84 -0.107875
5.85 -0.0500741
5.86 0.00309024
5.87 0.048822
5.88 0.0860016
5.89 0.111169
5.9 0.124623
5.91 0.124553
5.92 0.110884
5.93 0.0846111
5.94 0.0452
5.95 -0.00426775
5.96 -0.0632067
5.97 -0.128648
5.98 -0.198504
5.99 -0.270355
6 -0.341928
6.01 -0.41083
6.02 -0.47569
6.03 -0.534866
6.04 -0.587489
6.05 -0.633531
6.06 -0.672241
6.07 -0.705044
6.08 -0.732017
6.09 -0.754718
6.1 -0.774221
6.11 -0.791741
6.12 -0.808538
6.13 -0.825618
6.14 -0.843683
6.15 -0.863252
6.16 -0.884442
6.17 -0.907007
6.18 -0.930595
6.19 -0.954425
6.2 -0.977678
6.21 -0.999493
6.22 -1.01908
6.23 -1.03554
6.24 -1.04876
6.25 -1.05793
6.26 -1.06363
6.27 -1.06587
6.28 -1.06528
6.29 -1.06263
6.3 -1.05851
6.31 -1.05376
6.32 -1.04879
6.33 -1.04378
6.34 -1.03841
6.35 -1.03169
6.36 -1.02241
6.37 -1.00768
6.38 -0.985394
6.39 -0.951597
6.4 -0.90225
6.41 -0.834402
6.42 -0.740892
6.43 -0.621279
6.44 -0.468339
6.45 -0.28156
6.46 -0.058673
6.47 0.20309
6.48 0.499036
6.49 0.832406
6.5 1.19435
6.51 1.58198
6.52 1.98749
6.53 2.40246
6.54 2.81743
6.55 3.22282
6.56 3.60643
6.57 3.959
6.58 4.27074
6.59 4.5292
6.6 4.73285
6.61 4.86539
6.62 4.93197
6.63 4.92486
6.64 4.84489
6.65 4.69791
6.66 4.48039
6.67 4.20777
6.68 3.88119
6.69 3.51456
6.7 3.11716
6.71 2.69961
6.72 2.27414
6.73 1.85167
6.74 1.44192
6.75 1.05473
6.76 0.69813
6.77 0.375979
6.78 0.09759
6.79 -0.1405
6.8 -0.332225
6.81 -0.481986
6.82 -0.591477
6.83 -0.662456
6.84 -0.703065
6.85 -0.714008
6.86 -0.704667
6.87 -0.678635
6.88 -0.641713
6.89 -0.59874
6.9 -0.55355
6.91 -0.509506
6.92 -0.469241
6.93 -0.434089
6.94 -0.404831
6.95 -0.381905
6.96 -0.364242
6.97 -0.351801
6.98 -0.342859
6.99 -0.336668
7 -0.332155
7.01 -0.328561
7.02 -0.325523
7.03 -0.322916
7.04 -0.321129
7.05 -0.320787
7.06 -0.322774
7.07 -0.32845
7.08 -0.338473
7.09 -0.354811
7.1 -0.377537
7.11 -0.407776
7.12 -0.445708
7.13 -0.490734
7.14 -0.543004
7.15 -0.600485
7.16 -0.66227
7.17 -0.726112
7.18 -0.790101
7.19 -0.851839
7.2 -0.909659
7.21 -0.960741
7.22 -1.00438
7.23 -1.03882
7.24 -1.06343
7.25 -1.07862
7.26 -1.08366
7.27 -1.08083
7.28 -1.07055
7.29 -1.0552
7.3 -1.03656
7.31 -1.01672
7.32 -0.997568
7.33 -0.981141
7.34 -0.968388
7.35 -0.960385
7.36 -0.957316
7.37 -0.95853
7.38 -0.96336
7.39 -0.969725
7.4 -0.975534
7.41 -0.978104
7.42 -0.974724
7.43 -0.961762
7.44 -0.937664
7.45 -0.897695
7.46 -0.841854
7.47 -0.767422
7.48 -0.673773
7.49 -0.562038
7.5 -0.430944
7.51 -0.284798
7.52 -0.124335
7.53 0.0459527
7.54 0.222538
7.55 0.400984
7.56 0.576993
7.57 0.745017
7.58 0.901693
7.59 1.04215
7.6 1.16267
7.61 1.2617
7.62 1.33395
7.63 1.38168
7.64 1.40116
7.65 1.39471
7.66 1.36306
7.67 1.30671
7.68 1.23045
7.69 1.13416
7.7 1.02367
7.71 0.901159
7.72 0.770547
7.73 0.635448
7.74 0.499119
7.75 0.36471
7.76 0.235422
7.77 0.11351
7.78 0.00104152
7.79 -0.0994631
7.8 -0.188039
7.81 -0.261589
7.82 -0.321447
7.83 -0.366246
7.84 -0.396162
7.85 -0.412357
7.86 -0.413778
7.87 -0.403299
7.88 -0.380613
7.89 -0.348102
7.9 -0.307242
7.91 -0.25965
7.92 -0.207914
7.93 -0.153822
7.94 -0.0999691
7.95 -0.0486139
7.96 -0.00219187
7.97 0.0376416
7.98 0.0678049
7.99 0.0880326
8 0.0957041
8.01 0.0908121
8.02 0.0728875
8.03 0.0412891
8.04 -0.00194696
8.05 -0.0574829
8.06 -0.122142
8.07 -0.194751
8.08 -0.272825
8.09 -0.353872
8.1 -0.435475
8.11 -0.515296
8.12 -0.590863
8.13 -0.66055
8.14 -0.722978
8.15 -0.776665
8.16 -0.822175
8.17 -0.858298
8.18 -0.886882
8.19 -0.908367
8.2 -0.924313
8.21 -0.936484
8.22 -0.946274
8.23 -0.955481
8.24 -0.96536
8.25 -0.976783
8.26 -0.990084
8.27 -1.00506
8.28 -1.02065
8.29 -1.0351
8.3 -1.04619
8.31 -1.05083
8.32 -1.0454
8.33 -1.02718
8.34 -0.990206
8.35 -0.933577
8.36 -0.851418
8.37 -0.742766
8.38 -0.605717
8.39 -0.437614
8.4 -0.242052
8.41 -0.0161827
8.42 0.233329
8.43 0.504489
8.44 0.791653
8.45 1.08844
8.46 1.38836
8.47 1.68402
8.48 1.96707
8.49 2.23058
8.5 2.46774
8.51 2.66973
8.52 2.83527
8.53 2.95338
8.54 3.02705
8.55 3.05119
8.56 3.02588
8.57 2.95515
8.58 2.83597
8.59 2.67866
8.6 2.48353
8.61 2.25938
8.62 2.01209
8.63 1.74798
8.64 1.4752
8.65 1.19997
8.66 0.92904
8.67 0.668326
8.68 0.423196
8.69 0.196411
8.7 -0.0060528
8.71 -0.185571
8.72 -0.338172
8.73 -0.465689
8.74 -0.56876
8.75 -0.647679
8.76 -0.70708
8.77 -0.746765
8.78 -0.772247
8.79 -0.785449
8.8 -0.789809
8.81 -0.788526
8.82 -0.783939
8.83 -0.778739
8.84 -0.774857
8.85 -0.773775
8.86 -0.776493
8.87 -0.783937
8.88 -0.795789
8.89 -0.812607
8.9 -0.833309
8.91 -0.857534
8.92 -0.884359
8.93 -0.912791
8.94 -0.941964
8.95 -0.970907
8.96 -0.998739
8.97 -1.0248
8.98 -1.04857
8.99 -1.06947
9 -1.08761
9.01 -1.10248
9.02 -1.11457
9.03 -1.12387
9.04 -1.1307
9.05 -1.13549
9.06 -1.13836
9.07 -1.13985
9.08 -1.14003
9.09 -1.13911
9.1 -1.13711
9.11 -1.1338
9.12 -1.12909
9.13 -1.12227
9.14 -1.11305
9.15 -1.10062
9.16 -1.08423
9.17 -1.06344
9.18 -1.03683
9.19 -1.0046
9.2 -0.965525
9.21 -0.919741
9.22 -0.867154
9.23 -0.807566
9.24 -0.742202
9.25 -0.671039
9.26 -0.595955
9.27 -0.518035
9.28 -0.43911
9.29 -0.360921
9.3 -0.285842
9.31 -0.215375
9.32 -0.152135
9.33 -0.0975333
9.34 -0.0530748
9.35 -0.0207995
9.36 -0.000149885
9.37 0.0065383
9.38 0.00113184
9.39 -0.0166927
9.4 -0.045721
9.41 -0.0839024
9.42 -0.130328
9.43 -0.181801
9.44 -0.23655
9.45 -0.291839
9.46 -0.345489
9.47 -0.394972
9.48 -0.43904
9.49 -0.475143
9.5 -0.503254
9.51 -0.522271
9.52 -0.532214
9.53 -0.534085
9.54 -0.527878
9.55 -0.515995
9.56 -0.499423
9.57 -0.480416
9.58 -0.460762
9.59 -0.442534
9.6 -0.427153
9.61 -0.416729
9.62 -0.411779
9.63 -0.41342
9.64 -0.421984
9.65 -0.436959
9.66 -0.45867
9.67 -0.485415
9.68 -0.51673
9.69 -0.551024
9.7 -0.587107
9.71 -0.623693
9.72 -0.659704
9.73 -0.694016
9.74 -0.726168
9.75 -0.755622
9.76 -0.782232
9.77 -0.806252
9.78 -0.827596
9.79 -0.846913
9.8 -0.864198
9.81 -0.879658
9.82 -0.893085
9.83 -0.903657
9.84 -0.910694
9.85 -0.911794
9.86 -0.905491
9.87 -0.888605
9.88 -0.8577
9.89 -0.810487
9.9 -0.74048
9.91 -0.64729
9.92 -0.524451
9.93 -0.370799
9.94 -0.18416
9.95 0.0391147
9.96 0.295187
9.97 0.588175
9.98 0.910998
9.99 1.26208
10 1.63569
10.01 2.02455
10.02 2.42207
10.03 2.819
10.04 3.206
10.05 3.57404
10.06 3.91459
10.07 4.21618
10.08 4.47601
10.09 4.67992
10.1 4.82967
10.11 4.91798
10.12 4.94307
10.13 4.90909
10.14 4.81014
10.15 4.65879
10.16 4.45398
10.17 4.20623
10.18 3.92271
10.19 3.6106
10.2 3.28114
10.21 2.94143
10.22 2.60135
10.23 2.26847
10.24 1.95038
10.25 1.65138
10.26 1.37931
10.27 1.13345
10.28 0.918839
10.29 0.733839
10.3 0.577672
10.31 0.450074
10.32 0.345313
10.33 0.263199
10.34 0.197014
10.35 0.143977
10.36 0.0997206
10.37 0.060297
10.38 0.0225624
10.39 -0.0163712
10.4 -0.0588497
10.41 -0.106192
10.42 -0.159158
10.43 -0.218338
10.44 -0.282719
10.45 -0.35223
10.46 -0.425068
10.47 -0.500125
10.48 -0.575767
10.49 -0.650594
10.5 -0.722856
10.51 -0.791691
10.52 -0.855575
10.53 -0.913946
10.54 -0.966243
10.55 -1.01163
10.56 -1.05071
10.57 -1.08244
10.58 -1.10782
10.59 -1.12657
10.6 -1.13892
10.61 -1.14547
10.62 -1.14564
10.63 -1.14049
10.64 -1.1295
10.65 -1.11321
10.66 -1.09177
10.67 -1.06507
10.68 -1.03395
10.69 -0.998131
10.7 -0.958719
10.71 -0.916096
10.72 -0.87114
10.73 -0.824858
10.74 -0.778295
10.75 -0.732606
10.76 -0.689153
10.77 -0.649078
10.78 -0.613473
10.79 -0.583848
10.8 -0.560376
10.81 -0.544847
10.82 -0.536767
10.83 -0.536866
10.84 -0.545086
10.85 -0.560598
10.86 -0.58376
10.87 -0.612731
10.88 -0.647205
10.89 -0.685633
10.9 -0.72687
10.91 -0.769694
10.92 -0.812802
10.93 -0.854953
10.94 -0.895222
10.95 -0.932637
10.96 -0.966446
10.97 -0.996446
10.98 -1.02178
10.99 -1.04302
11 -1.05978
11.01 -1.07264
11.02 -1.082
11.03 -1.08823
11.04 -1.09223
11.05 -1.0944
11.06 -1.09563
11.07 -1.0965
11.08 -1.09768
11.09 -1.09964
11.1 -1.10298
11.11 -1.10781
11.12 -1.1145
11.13 -1.12294
11.14 -1.13297
11.15 -1.14427
11.16 -1.15618
11.17 -1.16792
11.18 -1.17847
11.19 -1.18655
11.2 -1.19058
11.21 -1.18936
11.22 -1.1801
11.23 -1.16209
11.24 -1.13225
11.25 -1.08929
11.26 -1.03154
11.27 -0.956119
11.28 -0.863745
11.29 -0.750606
11.3 -0.618685
11.31 -0.466708
11.32 -0.295293
11.33 -0.106872
11.34 0.0987762
11.35 0.316757
11.36 0.545284
11.37 0.7797
11.38 1.01601
11.39 1.24911
11.4 1.47493
11.41 1.6868
11.42 1.88156
11.43 2.05368
11.44 2.19865
11.45 2.31517
11.46 2.39606
11.47 2.44451
11.48 2.45558
11.49 2.43166
11.5 2.37381
11.51 2.28191
11.52 2.16238
11.53 2.01484
11.54 1.84695
11.55 1.66185
11.56 1.46484
11.57 1.26124
11.58 1.05568
11.59 0.852822
11.6 0.657173
11.61 0.471986
11.62 0.299846
11.63 0.143997
11.64 0.00378357
11.65 -0.117742
11.66 -0.223057
11.67 -0.311923
11.68 -0.385833
11.69 -0.447463
11.7 -0.497482
11.71 -0.539691
11.72 -0.575449
11.73 -0.607402
11.74 -0.637332
11.75 -0.666852
11.76 -0.697067
11.77 -0.728862
11.78 -0.762268
11.79 -0.797145
11.8 -0.83275
11.81 -0.868071
11.82 -0.901473
11.83 -0.931663
11.84 -0.956443
11.85 -0.97423
11.86 -0.983413
11.87 -0.981544
11.88 -0.968574
11.89 -0.941494
11.9 -0.901204
11.91 -0.846448
11.92 -0.777176
11.93 -0.694768
11.94 -0.598276
11.95 -0.490852
11.96 -0.37278
11.97 -0.246709
11.98 -0.11469
11.99 0.0210239
12 0.157701
12.01 0.292608
12.02 0.423315
12.03 0.547095
12.04 0.661281
12.05 0.764545
12.06 0.853054
12.07 0.927305
12.08 0.984258
12.09 1.02403
12.1 1.04628
12.11 1.04975
12.12 1.03695
12.13 1.00626
12.14 0.961089
12.15 0.902045
12.16 0.831143
12.17 0.751125
12.18 0.663281
12.19 0.570965
12.2 0.475998
12.21 0.38087
12.22 0.287467
12.23 0.197908
12.24 0.113095
12.25 0.0349881
12.26 -0.036499
12.27 -0.100644
12.28 -0.157488
12.29 -0.207923
12.3 -0.251842
12.31 -0.291085
12.32 -0.326221
12.33 -0.358748
12.34 -0.389767
12.35 -0.420373
12.36 -0.451429
12.37 -0.483709
12.38 -0.517396
12.39 -0.552565
12.4 -0.588816
12.41 -0.625429
