# xPDFsuite Configuration #
[PDF]
wavelength = 0.1432
dataformat = twotheta
inputfile = 1_1Pd_CeO2_cycle-00197.chi
backgroundfile = background-00000.chi
mode = xray
bgscale = 1.007
composition = CeO2
outputtype = gr
qmaxinst = 28.8974762299
qmin = 0.5
qmax = 27.9
rmax = 50.0
rmin = 0.0
rstep = 0.01
rpoly = 1.8657

[Misc]
inputdir = G:/SankarDec16/1Pd/Chi
savedir = D:/DATA/APS_CeO2/1Pd
backgroundfilefull = G:/SankarDec16/Background/background-00000.chi

#### start data
#S 1
#L r($\AA$)  G($\AA^{-2}$)
0 0
0.01 -0.00814643
0.02 -0.0156811
0.03 -0.0219741
0.04 -0.0265505
0.05 -0.0291456
0.06 -0.0293335
0.07 -0.0273957
0.08 -0.0231934
0.09 -0.0172647
0.1 -0.00998102
0.11 -0.00191197
0.12 0.00631877
0.13 0.0140138
0.14 0.0206747
0.15 0.0256938
0.16 0.0287124
0.17 0.0295846
0.18 0.0280162
0.19 0.0244186
0.2 0.0188022
0.21 0.0117931
0.22 0.00385273
0.23 -0.00437997
0.24 -0.012316
0.25 -0.0192039
0.26 -0.0246809
0.27 -0.0281896
0.28 -0.0295035
0.29 -0.0286028
0.3 -0.0253383
0.31 -0.0202333
0.32 -0.013447
0.33 -0.00566585
0.34 0.00257987
0.35 0.01061
0.36 0.0178973
0.37 0.02367
0.38 0.0277177
0.39 0.0295588
0.4 0.0291096
0.41 0.0264778
0.42 0.0216663
0.43 0.0152873
0.44 0.00764181
0.45 -0.000553895
0.46 -0.00872471
0.47 -0.0161796
0.48 -0.0224775
0.49 -0.0268613
0.5 -0.029283
0.51 -0.0293592
0.52 -0.0271532
0.53 -0.022896
0.54 -0.0167436
0.55 -0.00936935
0.56 -0.00120315
0.57 0.00704094
0.58 0.0147692
0.59 0.0213108
0.6 0.0263312
0.61 0.029123
0.62 0.0298032
0.63 0.0281047
0.64 0.0242362
0.65 0.0185416
0.66 0.0113243
0.67 0.0032887
0.68 -0.00502548
0.69 -0.0129384
0.7 -0.0198649
0.71 -0.0251842
0.72 -0.0286846
0.73 -0.0297401
0.74 -0.0286282
0.75 -0.0252103
0.76 -0.0198311
0.77 -0.0129323
0.78 -0.00495022
0.79 0.00341212
0.8 0.0115309
0.81 0.0187918
0.82 0.0246465
0.83 0.0285538
0.84 0.0304348
0.85 0.0297756
0.86 0.0270004
0.87 0.0221057
0.88 0.0155546
0.89 0.00786312
0.9 -0.000423143
0.91 -0.00864022
0.92 -0.0161176
0.93 -0.0223423
0.94 -0.0268385
0.95 -0.0291836
0.96 -0.0294415
0.97 -0.0272586
0.98 -0.0231871
0.99 -0.0173786
1 -0.0104018
1.01 -0.00282648
1.02 0.0047005
1.03 0.0116006
1.04 0.017177
1.05 0.0210632
1.06 0.0228913
1.07 0.0223993
1.08 0.0198254
1.09 0.0150305
1.1 0.00871266
1.11 0.00122653
1.12 -0.00672231
1.13 -0.0144886
1.14 -0.0212605
1.15 -0.0265521
1.16 -0.029563
1.17 -0.0300721
1.18 -0.0277765
1.19 -0.0225254
1.2 -0.0147528
1.21 -0.00443124
1.22 0.00752509
1.23 0.0206074
1.24 0.0339409
1.25 0.0467561
1.26 0.0580612
1.27 0.0673365
1.28 0.0736137
1.29 0.0766658
1.3 0.0761204
1.31 0.0717514
1.32 0.0640505
1.33 0.0528169
1.34 0.039086
1.35 0.0232571
1.36 0.00621111
1.37 -0.0112597
1.38 -0.0282713
1.39 -0.044162
1.4 -0.05806
1.41 -0.0695872
1.42 -0.0783119
1.43 -0.0838934
1.44 -0.0866054
1.45 -0.0860847
1.46 -0.0830728
1.47 -0.0776898
1.48 -0.0704905
1.49 -0.0619948
1.5 -0.052625
1.51 -0.0429249
1.52 -0.0332721
1.53 -0.0239892
1.54 -0.0152973
1.55 -0.00736132
1.56 -0.000143476
1.57 0.00626702
1.58 0.0120728
1.59 0.0173222
1.6 0.0221513
1.61 0.0266589
1.62 0.030864
1.63 0.0347969
1.64 0.0383435
1.65 0.0414013
1.66 0.0437827
1.67 0.0452209
1.68 0.0456038
1.69 0.0444968
1.7 0.041945
1.71 0.037692
1.72 0.031752
1.73 0.0242497
1.74 0.0152039
1.75 0.0050586
1.76 -0.00597113
1.77 -0.0173848
1.78 -0.0287772
1.79 -0.0396602
1.8 -0.0497231
1.81 -0.0584381
1.82 -0.065774
1.83 -0.0714856
1.84 -0.0756429
1.85 -0.078453
1.86 -0.0800951
1.87 -0.0810875
1.88 -0.0818348
1.89 -0.082875
1.9 -0.0846768
1.91 -0.0877459
1.92 -0.0922492
1.93 -0.0986507
1.94 -0.106682
1.95 -0.116331
1.96 -0.12716
1.97 -0.138626
1.98 -0.150005
1.99 -0.160549
2 -0.169219
2.01 -0.175279
2.02 -0.177885
2.03 -0.176124
2.04 -0.169949
2.05 -0.158211
2.06 -0.141633
2.07 -0.119885
2.08 -0.0935185
2.09 -0.0632599
2.1 -0.0295469
2.11 0.00635689
2.12 0.0437776
2.13 0.0816496
2.14 0.119217
2.15 0.155724
2.16 0.19085
2.17 0.224065
2.18 0.255636
2.19 0.285614
2.2 0.31448
2.21 0.34278
2.22 0.37117
2.23 0.40023
2.24 0.430631
2.25 0.462647
2.26 0.496457
2.27 0.531965
2.28 0.568573
2.29 0.605523
2.3 0.641618
2.31 0.675357
2.32 0.705019
2.33 0.729151
2.34 0.745108
2.35 0.752367
2.36 0.748206
2.37 0.732508
2.38 0.704378
2.39 0.663202
2.4 0.610707
2.41 0.54614
2.42 0.472871
2.43 0.392135
2.44 0.306833
2.45 0.2197
2.46 0.133847
2.47 0.0518116
2.48 -0.0230573
2.49 -0.0890032
2.5 -0.144093
2.51 -0.186545
2.52 -0.217144
2.53 -0.234023
2.54 -0.240031
2.55 -0.235572
2.56 -0.223074
2.57 -0.205062
2.58 -0.183919
2.59 -0.162582
2.6 -0.143745
2.61 -0.129551
2.62 -0.121858
2.63 -0.122376
2.64 -0.130883
2.65 -0.148781
2.66 -0.174066
2.67 -0.206245
2.68 -0.2433
2.69 -0.283144
2.7 -0.323518
2.71 -0.362208
2.72 -0.396734
2.73 -0.42558
2.74 -0.447315
2.75 -0.460733
2.76 -0.466474
2.77 -0.463672
2.78 -0.454556
2.79 -0.439999
2.8 -0.422179
2.81 -0.40319
2.82 -0.385433
2.83 -0.37075
2.84 -0.361535
2.85 -0.358815
2.86 -0.363618
2.87 -0.376611
2.88 -0.396685
2.89 -0.423988
2.9 -0.455983
2.91 -0.491205
2.92 -0.52715
2.93 -0.561611
2.94 -0.591759
2.95 -0.616167
2.96 -0.632248
2.97 -0.639511
2.98 -0.637248
2.99 -0.625236
3 -0.605217
3.01 -0.577521
3.02 -0.545275
3.03 -0.510437
3.04 -0.47593
3.05 -0.44419
3.06 -0.418395
3.07 -0.399798
3.08 -0.391092
3.09 -0.392418
3.1 -0.404221
3.11 -0.426346
3.12 -0.456615
3.13 -0.494249
3.14 -0.535794
3.15 -0.578943
3.16 -0.620596
3.17 -0.65832
3.18 -0.68892
3.19 -0.711536
3.2 -0.7238
3.21 -0.726163
3.22 -0.718786
3.23 -0.702626
3.24 -0.680343
3.25 -0.65384
3.26 -0.626698
3.27 -0.601979
3.28 -0.582985
3.29 -0.572025
3.3 -0.572582
3.31 -0.584573
3.32 -0.610179
3.33 -0.647825
3.34 -0.696472
3.35 -0.754017
3.36 -0.816769
3.37 -0.881404
3.38 -0.943673
3.39 -0.999402
3.4 -1.0447
3.41 -1.07715
3.42 -1.09263
3.43 -1.0922
3.44 -1.07365
3.45 -1.03982
3.46 -0.992686
3.47 -0.935616
3.48 -0.873562
3.49 -0.811311
3.5 -0.753947
3.51 -0.706672
3.52 -0.673757
3.53 -0.657391
3.54 -0.661377
3.55 -0.683011
3.56 -0.722619
3.57 -0.774605
3.58 -0.833761
3.59 -0.892054
3.6 -0.941617
3.61 -0.969749
3.62 -0.969394
3.63 -0.928104
3.64 -0.83691
3.65 -0.691006
3.66 -0.477567
3.67 -0.202368
3.68 0.143309
3.69 0.550617
3.7 1.01525
3.71 1.52966
3.72 2.07809
3.73 2.65003
3.74 3.22611
3.75 3.78976
3.76 4.3222
3.77 4.80907
3.78 5.22674
3.79 5.57088
3.8 5.81935
3.81 5.97149
3.82 6.02064
3.83 5.96094
3.84 5.80586
3.85 5.54618
3.86 5.20625
3.87 4.79074
3.88 4.31697
3.89 3.80224
3.9 3.26099
3.91 2.71252
3.92 2.17279
3.93 1.65623
3.94 1.1752
3.95 0.742676
3.96 0.36041
3.97 0.0422455
3.98 -0.21924
3.99 -0.419852
4 -0.5646
4.01 -0.66105
4.02 -0.71162
4.03 -0.729949
4.04 -0.720721
4.05 -0.695117
4.06 -0.660387
4.07 -0.62409
4.08 -0.591746
4.09 -0.56918
4.1 -0.557931
4.11 -0.560388
4.12 -0.576211
4.13 -0.603579
4.14 -0.641145
4.15 -0.684631
4.16 -0.731084
4.17 -0.776419
4.18 -0.81727
4.19 -0.849911
4.2 -0.872861
4.21 -0.882334
4.22 -0.879166
4.23 -0.861921
4.24 -0.831352
4.25 -0.78904
4.26 -0.735357
4.27 -0.673547
4.28 -0.604624
4.29 -0.531244
4.3 -0.455048
4.31 -0.37766
4.32 -0.300321
4.33 -0.22403
4.34 -0.14914
4.35 -0.0759544
4.36 -0.00438596
4.37 0.0658194
4.38 0.134762
4.39 0.202752
4.4 0.269643
4.41 0.335245
4.42 0.398999
4.43 0.459835
4.44 0.516996
4.45 0.568225
4.46 0.612767
4.47 0.648388
4.48 0.673528
4.49 0.687381
4.5 0.687318
4.51 0.674472
4.52 0.646858
4.53 0.605972
4.54 0.552335
4.55 0.486841
4.56 0.412338
4.57 0.329781
4.58 0.242732
4.59 0.153303
4.6 0.0643037
4.61 -0.0220903
4.62 -0.103137
4.63 -0.177894
4.64 -0.244184
4.65 -0.30192
4.66 -0.350737
4.67 -0.390531
4.68 -0.422899
4.69 -0.447844
4.7 -0.467771
4.71 -0.483715
4.72 -0.497419
4.73 -0.510311
4.74 -0.523726
4.75 -0.538512
4.76 -0.555513
4.77 -0.574823
4.78 -0.596387
4.79 -0.619837
4.8 -0.644343
4.81 -0.669059
4.82 -0.692956
4.83 -0.714967
4.84 -0.734125
4.85 -0.749874
4.86 -0.761209
4.87 -0.768486
4.88 -0.771231
4.89 -0.770191
4.9 -0.765899
4.91 -0.759149
4.92 -0.751103
4.93 -0.742766
4.94 -0.735237
4.95 -0.729535
4.96 -0.726496
4.97 -0.726521
4.98 -0.730348
4.99 -0.737523
5 -0.748262
5.01 -0.761806
5.02 -0.777596
5.03 -0.794882
5.04 -0.812759
5.05 -0.830393
5.06 -0.847078
5.07 -0.86213
5.08 -0.875092
5.09 -0.88582
5.1 -0.893935
5.11 -0.899831
5.12 -0.903369
5.13 -0.904931
5.14 -0.904622
5.15 -0.902391
5.16 -0.898308
5.17 -0.891624
5.18 -0.882034
5.19 -0.868345
5.2 -0.849298
5.21 -0.823837
5.22 -0.789349
5.23 -0.745458
5.24 -0.689251
5.25 -0.620283
5.26 -0.537384
5.27 -0.43927
5.28 -0.327582
5.29 -0.200888
5.3 -0.0627705
5.31 0.0855502
5.32 0.240658
5.33 0.398904
5.34 0.555905
5.35 0.707535
5.36 0.848161
5.37 0.973827
5.38 1.0802
5.39 1.16201
5.4 1.21897
5.41 1.24432
5.42 1.24115
5.43 1.20684
5.44 1.14293
5.45 1.05278
5.46 0.936658
5.47 0.801714
5.48 0.65023
5.49 0.488738
5.5 0.32198
5.51 0.155469
5.52 -0.00640242
5.53 -0.157862
5.54 -0.296663
5.55 -0.418917
5.56 -0.522786
5.57 -0.608288
5.58 -0.6731
5.59 -0.720709
5.6 -0.750417
5.61 -0.765803
5.62 -0.768959
5.63 -0.762227
5.64 -0.749034
5.65 -0.731083
5.66 -0.711125
5.67 -0.690586
5.68 -0.670668
5.69 -0.651829
5.7 -0.634181
5.71 -0.617076
5.72 -0.599629
5.73 -0.580639
5.74 -0.558866
5.75 -0.532758
5.76 -0.501798
5.77 -0.464305
5.78 -0.42085
5.79 -0.371088
5.8 -0.315875
5.81 -0.256598
5.82 -0.194689
5.83 -0.132466
5.84 -0.0723306
5.85 -0.0166752
5.86 0.0321686
5.87 0.0713718
5.88 0.100245
5.89 0.115442
5.9 0.11798
5.91 0.106545
5.92 0.0817759
5.93 0.0452683
5.94 -0.0026578
5.95 -0.0585941
5.96 -0.121188
5.97 -0.187346
5.98 -0.254789
5.99 -0.320972
6 -0.384164
6.01 -0.441979
6.02 -0.493984
6.03 -0.53907
6.04 -0.577238
6.05 -0.609228
6.06 -0.635268
6.07 -0.657306
6.08 -0.676329
6.09 -0.694173
6.1 -0.712224
6.11 -0.731963
6.12 -0.754146
6.13 -0.779924
6.14 -0.809023
6.15 -0.841498
6.16 -0.876589
6.17 -0.91323
6.18 -0.950121
6.19 -0.985828
6.2 -1.01861
6.21 -1.04723
6.22 -1.07049
6.23 -1.08715
6.24 -1.09749
6.25 -1.10046
6.26 -1.09753
6.27 -1.08907
6.28 -1.0765
6.29 -1.06135
6.3 -1.04505
6.31 -1.02911
6.32 -1.01477
6.33 -1.00262
6.34 -0.992739
6.35 -0.984503
6.36 -0.976396
6.37 -0.965787
6.38 -0.949848
6.39 -0.924336
6.4 -0.884559
6.41 -0.826917
6.42 -0.743575
6.43 -0.633501
6.44 -0.488806
6.45 -0.308608
6.46 -0.0903175
6.47 0.169126
6.48 0.464802
6.49 0.800134
6.5 1.1657
6.51 1.55838
6.52 1.96984
6.53 2.39117
6.54 2.81238
6.55 3.22347
6.56 3.61176
6.57 3.96775
6.58 4.28146
6.59 4.54031
6.6 4.74298
6.61 4.87315
6.62 4.93645
6.63 4.92541
6.64 4.84128
6.65 4.69029
6.66 4.46938
6.67 4.19419
6.68 3.86623
6.69 3.49946
6.7 3.10322
6.71 2.68812
6.72 2.26609
6.73 1.84792
6.74 1.44288
6.75 1.06047
6.76 0.708331
6.77 0.389998
6.78 0.114353
6.79 -0.122146
6.8 -0.313733
6.81 -0.46474
6.82 -0.576812
6.83 -0.65159
6.84 -0.696853
6.85 -0.713077
6.86 -0.709185
6.87 -0.688409
6.88 -0.656143
6.89 -0.61696
6.9 -0.574277
6.91 -0.531464
6.92 -0.490903
6.93 -0.454075
6.94 -0.421868
6.95 -0.394899
6.96 -0.372488
6.97 -0.354871
6.98 -0.34076
6.99 -0.329769
7 -0.32119
7.01 -0.314481
7.02 -0.309631
7.03 -0.306445
7.04 -0.305477
7.05 -0.307148
7.06 -0.312178
7.07 -0.32168
7.08 -0.335934
7.09 -0.356568
7.1 -0.38328
7.11 -0.41684
7.12 -0.45712
7.13 -0.503378
7.14 -0.555475
7.15 -0.611541
7.16 -0.670592
7.17 -0.73066
7.18 -0.790069
7.19 -0.846742
7.2 -0.899395
7.21 -0.945625
7.22 -0.985048
7.23 -1.01628
7.24 -1.03894
7.25 -1.05354
7.26 -1.0596
7.27 -1.05913
7.28 -1.05258
7.29 -1.04197
7.3 -1.02881
7.31 -1.01478
7.32 -1.0014
7.33 -0.990225
7.34 -0.981905
7.35 -0.977147
7.36 -0.9759
7.37 -0.977471
7.38 -0.980981
7.39 -0.98466
7.4 -0.986449
7.41 -0.984065
7.42 -0.97513
7.43 -0.956437
7.44 -0.92684
7.45 -0.882115
7.46 -0.822538
7.47 -0.745768
7.48 -0.651397
7.49 -0.540566
7.5 -0.4122
7.51 -0.27024
7.52 -0.115369
7.53 0.0483668
7.54 0.217805
7.55 0.38897
7.56 0.557997
7.57 0.719886
7.58 0.871561
7.59 1.00856
7.6 1.1274
7.61 1.22655
7.62 1.30095
7.63 1.35251
7.64 1.37745
7.65 1.37768
7.66 1.35356
7.67 1.30518
7.68 1.23685
7.69 1.14797
7.7 1.04402
7.71 0.926792
7.72 0.79992
7.73 0.666959
7.74 0.53089
7.75 0.395158
7.76 0.262905
7.77 0.136745
7.78 0.0190111
7.79 -0.087452
7.8 -0.182272
7.81 -0.261987
7.82 -0.327603
7.83 -0.377431
7.84 -0.411401
7.85 -0.430588
7.86 -0.433708
7.87 -0.423815
7.88 -0.40054
7.89 -0.366503
7.9 -0.32336
7.91 -0.272948
7.92 -0.218142
7.93 -0.160976
7.94 -0.104279
7.95 -0.0505234
7.96 -0.00230938
7.97 0.038651
7.98 0.0691406
7.99 0.089018
8 0.0956489
8.01 0.0891978
8.02 0.0693345
8.03 0.0355932
8.04 -0.00979869
8.05 -0.0672982
8.06 -0.133584
8.07 -0.207319
8.08 -0.285901
8.09 -0.366811
8.1 -0.447508
8.11 -0.52577
8.12 -0.59909
8.13 -0.665974
8.14 -0.725136
8.15 -0.775205
8.16 -0.816905
8.17 -0.849149
8.18 -0.873927
8.19 -0.891805
8.2 -0.904466
8.21 -0.913743
8.22 -0.921173
8.23 -0.928543
8.24 -0.93723
8.25 -0.948095
8.26 -0.961498
8.27 -0.977288
8.28 -0.994331
8.29 -1.01095
8.3 -1.02482
8.31 -1.03286
8.32 -1.0314
8.33 -1.01761
8.34 -0.985484
8.35 -0.933971
8.36 -0.857098
8.37 -0.753741
8.38 -0.62185
8.39 -0.458573
8.4 -0.26739
8.41 -0.0451945
8.42 0.201408
8.43 0.470606
8.44 0.756854
8.45 1.05377
8.46 1.355
8.47 1.65298
8.48 1.93939
8.49 2.20709
8.5 2.44913
8.51 2.65648
8.52 2.82761
8.53 2.95132
8.54 3.03033
8.55 3.05933
8.56 3.03819
8.57 2.97082
8.58 2.85398
8.59 2.69808
8.6 2.50331
8.61 2.27859
8.62 2.02993
8.63 1.76375
8.64 1.48846
8.65 1.21045
8.66 0.936695
8.67 0.67332
8.68 0.425874
8.69 0.197226
8.7 -0.00648737
8.71 -0.186686
8.72 -0.339344
8.73 -0.466406
8.74 -0.56861
8.75 -0.646387
8.76 -0.704551
8.77 -0.743083
8.78 -0.767649
8.79 -0.780329
8.8 -0.784669
8.81 -0.783896
8.82 -0.780427
8.83 -0.776828
8.84 -0.774985
8.85 -0.776202
8.86 -0.781314
8.87 -0.791033
8.88 -0.80487
8.89 -0.823123
8.9 -0.84462
8.91 -0.868842
8.92 -0.894803
8.93 -0.921567
8.94 -0.948239
8.95 -0.974089
8.96 -0.99836
8.97 -1.02067
8.98 -1.04074
8.99 -1.05831
9 -1.07368
9.01 -1.08668
9.02 -1.09788
9.03 -1.10744
9.04 -1.1157
9.05 -1.12299
9.06 -1.12941
9.07 -1.13514
9.08 -1.14007
9.09 -1.14402
9.1 -1.14669
9.11 -1.14745
9.12 -1.14596
9.13 -1.14108
9.14 -1.13247
9.15 -1.11913
9.16 -1.10028
9.17 -1.07568
9.18 -1.04395
9.19 -1.00575
9.2 -0.960131
9.21 -0.907723
9.22 -0.848852
9.23 -0.783845
9.24 -0.714208
9.25 -0.640498
9.26 -0.56463
9.27 -0.487959
9.28 -0.412324
9.29 -0.339242
9.3 -0.271054
9.31 -0.208677
9.32 -0.154407
9.33 -0.109051
9.34 -0.0735938
9.35 -0.0494351
9.36 -0.0356405
9.37 -0.0338377
9.38 -0.0420626
9.39 -0.0602743
9.4 -0.0871863
9.41 -0.12097
9.42 -0.160662
9.43 -0.203732
9.44 -0.248689
9.45 -0.29348
9.46 -0.336495
9.47 -0.375899
9.48 -0.410928
9.49 -0.439795
9.5 -0.462676
9.51 -0.478911
9.52 -0.488675
9.53 -0.492809
9.54 -0.491452
9.55 -0.486354
9.56 -0.478295
9.57 -0.468849
9.58 -0.459249
9.59 -0.450898
9.6 -0.444681
9.61 -0.441974
9.62 -0.443011
9.63 -0.448456
9.64 -0.458429
9.65 -0.472525
9.66 -0.490884
9.67 -0.512388
9.68 -0.536735
9.69 -0.56296
9.7 -0.590385
9.71 -0.618345
9.72 -0.64628
9.73 -0.673747
9.74 -0.700578
9.75 -0.726661
9.76 -0.752063
9.77 -0.776948
9.78 -0.801407
9.79 -0.825551
9.8 -0.849218
9.81 -0.872033
9.82 -0.893302
9.83 -0.911614
9.84 -0.925804
9.85 -0.932818
9.86 -0.930925
9.87 -0.916536
9.88 -0.886021
9.89 -0.837185
9.9 -0.763381
9.91 -0.664748
9.92 -0.534979
9.93 -0.373487
9.94 -0.178575
9.95 0.0528158
9.96 0.316371
9.97 0.615547
9.98 0.942997
9.99 1.29672
10 1.67077
10.01 2.05795
10.02 2.45147
10.03 2.84258
10.04 3.22207
10.05 3.58146
10.06 3.91269
10.07 4.20483
10.08 4.45559
10.09 4.65145
10.1 4.79449
10.11 4.87787
10.12 4.90009
10.13 4.86528
10.14 4.76785
10.15 4.61993
10.16 4.42045
10.17 4.17948
10.18 3.90381
10.19 3.60019
10.2 3.27936
10.21 2.94795
10.22 2.61545
10.23 2.28905
10.24 1.97604
10.25 1.68065
10.26 1.41043
10.27 1.1649
10.28 0.949045
10.29 0.761521
10.3 0.601783
10.31 0.469829
10.32 0.360297
10.33 0.273282
10.34 0.202369
10.35 0.145031
10.36 0.097114
10.37 0.0547489
10.38 0.0149702
10.39 -0.025232
10.4 -0.0681644
10.41 -0.115309
10.42 -0.167553
10.43 -0.225632
10.44 -0.288725
10.45 -0.356903
10.46 -0.4285
10.47 -0.502509
10.48 -0.577358
10.49 -0.651647
10.5 -0.723634
10.51 -0.792362
10.52 -0.856243
10.53 -0.914603
10.54 -0.966783
10.55 -1.01184
10.56 -1.05033
10.57 -1.08114
10.58 -1.1053
10.59 -1.12257
10.6 -1.13325
10.61 -1.13809
10.62 -1.13668
10.63 -1.1302
10.64 -1.11838
10.65 -1.10188
10.66 -1.08098
10.67 -1.05574
10.68 -1.02694
10.69 -0.994415
10.7 -0.959058
10.71 -0.921158
10.72 -0.881364
10.73 -0.840413
10.74 -0.799028
10.75 -0.758079
10.76 -0.718543
10.77 -0.681305
10.78 -0.647223
10.79 -0.617505
10.8 -0.592404
10.81 -0.573443
10.82 -0.560432
10.83 -0.554165
10.84 -0.554878
10.85 -0.562127
10.86 -0.576634
10.87 -0.597038
10.88 -0.623515
10.89 -0.654949
10.9 -0.690567
10.91 -0.729621
10.92 -0.770827
10.93 -0.813396
10.94 -0.856142
10.95 -0.898135
10.96 -0.938382
10.97 -0.976262
10.98 -1.01063
10.99 -1.04144
11 -1.06782
11.01 -1.08976
11.02 -1.1072
11.03 -1.11989
11.04 -1.12858
11.05 -1.13304
11.06 -1.13431
11.07 -1.13279
11.08 -1.12926
11.09 -1.12454
11.1 -1.1194
11.11 -1.11464
11.12 -1.11102
11.13 -1.10908
11.14 -1.10919
11.15 -1.11173
11.16 -1.11634
11.17 -1.12292
11.18 -1.13052
11.19 -1.13817
11.2 -1.14433
11.21 -1.14754
11.22 -1.14504
11.23 -1.13548
11.24 -1.1155
11.25 -1.08318
11.26 -1.0363
11.27 -0.971356
11.28 -0.888611
11.29 -0.783565
11.3 -0.657974
11.31 -0.510157
11.32 -0.340532
11.33 -0.151647
11.34 0.0569423
11.35 0.279794
11.36 0.515031
11.37 0.757452
11.38 1.00262
11.39 1.24492
11.4 1.47977
11.41 1.69995
11.42 1.90193
11.43 2.07979
11.44 2.22872
11.45 2.34741
11.46 2.42837
11.47 2.47516
11.48 2.48281
11.49 2.4541
11.5 2.3904
11.51 2.29194
11.52 2.16559
11.53 2.01138
11.54 1.83731
11.55 1.64686
11.56 1.44563
11.57 1.23901
11.58 1.0319
11.59 0.828772
11.6 0.634206
11.61 0.45122
11.62 0.282204
11.63 0.130194
11.64 -0.00578942
11.65 -0.122932
11.66 -0.223986
11.67 -0.308937
11.68 -0.379479
11.69 -0.438366
11.7 -0.486449
11.71 -0.527436
11.72 -0.562745
11.73 -0.594904
11.74 -0.625595
11.75 -0.65634
11.76 -0.688076
11.77 -0.7216
11.78 -0.756813
11.79 -0.793505
11.8 -0.830872
11.81 -0.867887
11.82 -0.902907
11.83 -0.934674
11.84 -0.961025
11.85 -0.980419
11.86 -0.991275
11.87 -0.991169
11.88 -0.980033
11.89 -0.954821
11.9 -0.916351
11.91 -0.863255
11.92 -0.79533
11.93 -0.713833
11.94 -0.617559
11.95 -0.509606
11.96 -0.390025
11.97 -0.261421
11.98 -0.125814
11.99 0.0145913
12 0.156845
12.01 0.298154
12.02 0.43573
12.03 0.566562
12.04 0.687574
12.05 0.797086
12.06 0.890701
12.07 0.968696
12.08 1.02751
12.09 1.06708
12.1 1.08692
12.11 1.08555
12.12 1.06583
12.13 1.02606
12.14 0.970261
12.15 0.899398
12.16 0.816115
12.17 0.723777
12.18 0.624472
12.19 0.522085
12.2 0.419254
12.21 0.318914
12.22 0.223328
12.23 0.135132
12.24 0.0549015
12.25 -0.0150141
12.26 -0.075441
12.27 -0.125944
12.28 -0.167265
12.29 -0.201126
12.3 -0.228263
12.31 -0.251413
12.32 -0.272135
12.33 -0.292685
12.34 -0.314802
12.35 -0.340406
12.36 -0.370223
12.37 -0.405746
12.38 -0.446502
12.39 -0.492466
12.4 -0.542645
12.41 -0.595423
