# xPDFsuite Configuration #
[PDF]
wavelength = 0.1432
dataformat = twotheta
inputfile = 1_1Pd_CeO2_cycle-00334.chi
backgroundfile = background-00000.chi
mode = xray
bgscale = 1.007
composition = CeO2
outputtype = gr
qmaxinst = 28.8974762299
qmin = 0.5
qmax = 27.9
rmax = 50.0
rmin = 0.0
rstep = 0.01
rpoly = 1.8657

[Misc]
inputdir = G:/SankarDec16/1Pd/Chi
savedir = D:/DATA/APS_CeO2/1Pd
backgroundfilefull = G:/SankarDec16/Background/background-00000.chi

#### start data
#S 1
#L r($\AA$)  G($\AA^{-2}$)
0 0
0.01 -0.00695287
0.02 -0.0133823
0.03 -0.0187495
0.04 -0.0226483
0.05 -0.0248528
0.06 -0.0249994
0.07 -0.0233298
0.08 -0.0197267
0.09 -0.0146513
0.1 -0.00842266
0.11 -0.00152914
0.12 0.00549592
0.13 0.0120547
0.14 0.0177228
0.15 0.0219809
0.16 0.0245244
0.17 0.0252309
0.18 0.0238519
0.19 0.0207419
0.2 0.0159137
0.21 0.00990466
0.22 0.00311178
0.23 -0.00391658
0.24 -0.0106779
0.25 -0.0165281
0.26 -0.0211613
0.27 -0.0241027
0.28 -0.0251632
0.29 -0.0243302
0.3 -0.0214818
0.31 -0.0170693
0.32 -0.0112347
0.33 -0.00456721
0.34 0.00247722
0.35 0.0093155
0.36 0.0154998
0.37 0.0203698
0.38 0.0237528
0.39 0.025241
0.4 0.0247699
0.41 0.0224379
0.42 0.0182554
0.43 0.0127501
0.44 0.00618669
0.45 -0.000821266
0.46 -0.0077801
0.47 -0.0140991
0.48 -0.0194064
0.49 -0.0230568
0.5 -0.0250191
0.51 -0.024972
0.52 -0.0229793
0.53 -0.0192459
0.54 -0.0139155
0.55 -0.00756681
0.56 -0.000575712
0.57 0.00644847
0.58 0.0129977
0.59 0.0185011
0.6 0.0226808
0.61 0.0249374
0.62 0.0253828
0.63 0.0237985
0.64 0.0203739
0.65 0.0154114
0.66 0.0091819
0.67 0.00228861
0.68 -0.00479879
0.69 -0.0115034
0.7 -0.0173269
0.71 -0.0217444
0.72 -0.0245859
0.73 -0.0253252
0.74 -0.0242131
0.75 -0.0211434
0.76 -0.0164225
0.77 -0.010436
0.78 -0.00356855
0.79 0.00358076
0.8 0.010472
0.81 0.0165878
0.82 0.0214641
0.83 0.0246476
0.84 0.0260837
0.85 0.0253453
0.86 0.022808
0.87 0.0184817
0.88 0.0127722
0.89 0.00612582
0.9 -0.000983311
0.91 -0.00799411
0.92 -0.0143332
0.93 -0.0195746
0.94 -0.0233222
0.95 -0.0252299
0.96 -0.0253662
0.97 -0.0234482
0.98 -0.0199561
0.99 -0.0150335
1 -0.00917097
1.01 -0.00285349
1.02 0.00336651
1.03 0.00901285
1.04 0.0135038
1.05 0.0165523
1.06 0.0178697
1.07 0.0172661
1.08 0.0149661
1.09 0.010899
1.1 0.00566706
1.11 -0.000392943
1.12 -0.00666943
1.13 -0.012614
1.14 -0.0175208
1.15 -0.021014
1.16 -0.0224173
1.17 -0.0215925
1.18 -0.0183211
1.19 -0.0125303
1.2 -0.00464141
1.21 0.00528999
1.22 0.0164443
1.23 0.0283133
1.24 0.0401018
1.25 0.0511239
1.26 0.0604597
1.27 0.0676955
1.28 0.0719442
1.29 0.0730568
1.3 0.0707228
1.31 0.0647733
1.32 0.0557049
1.33 0.0433669
1.34 0.0287503
1.35 0.0122586
1.36 -0.00526215
1.37 -0.0230547
1.38 -0.0402518
1.39 -0.056231
1.4 -0.0701216
1.41 -0.0815554
1.42 -0.0900867
1.43 -0.095343
1.44 -0.0975787
1.45 -0.0963537
1.46 -0.0923971
1.47 -0.0857615
1.48 -0.0769726
1.49 -0.0665444
1.5 -0.0548608
1.51 -0.0425352
1.52 -0.0299535
1.53 -0.0175426
1.54 -0.00561202
1.55 0.00554443
1.56 0.0158457
1.57 0.0250135
1.58 0.0331578
1.59 0.0401537
1.6 0.04603
1.61 0.050831
1.62 0.0544303
1.63 0.056956
1.64 0.0582067
1.65 0.0582262
1.66 0.0569028
1.67 0.0540956
1.68 0.049892
1.69 0.0440064
1.7 0.0366994
1.71 0.0279007
1.72 0.0178067
1.73 0.00666679
1.74 -0.00530295
1.75 -0.0176662
1.76 -0.0300564
1.77 -0.0420383
1.78 -0.0532096
1.79 -0.0631178
1.8 -0.0716044
1.81 -0.0781587
1.82 -0.0829518
1.83 -0.0858187
1.84 -0.0869618
1.85 -0.0866897
1.86 -0.0852731
1.87 -0.0832901
1.88 -0.0812054
1.89 -0.079571
1.9 -0.0788687
1.91 -0.0796084
1.92 -0.0819321
1.93 -0.08632
1.94 -0.0924778
1.95 -0.100415
1.96 -0.109715
1.97 -0.119863
1.98 -0.130222
1.99 -0.140066
2 -0.148482
2.01 -0.154768
2.02 -0.158159
2.03 -0.157817
2.04 -0.153653
2.05 -0.14461
2.06 -0.131265
2.07 -0.113252
2.08 -0.0909674
2.09 -0.0649694
2.1 -0.0354875
2.11 -0.00358128
2.12 0.0303513
2.13 0.0654294
2.14 0.101104
2.15 0.136836
2.16 0.17229
2.17 0.207182
2.18 0.241554
2.19 0.275467
2.2 0.309178
2.21 0.342978
2.22 0.377247
2.23 0.412198
2.24 0.44812
2.25 0.484949
2.26 0.522532
2.27 0.560416
2.28 0.597952
2.29 0.633987
2.3 0.66757
2.31 0.697122
2.32 0.721169
2.33 0.738574
2.34 0.746989
2.35 0.7464
2.36 0.734538
2.37 0.711765
2.38 0.677628
2.39 0.632002
2.4 0.576745
2.41 0.511646
2.42 0.439842
2.43 0.362728
2.44 0.282972
2.45 0.202961
2.46 0.125531
2.47 0.0525953
2.48 -0.0129763
2.49 -0.0700265
2.5 -0.11715
2.51 -0.153157
2.52 -0.179055
2.53 -0.193632
2.54 -0.199557
2.55 -0.197478
2.56 -0.189632
2.57 -0.178208
2.58 -0.165366
2.59 -0.153357
2.6 -0.144422
2.61 -0.140034
2.62 -0.14149
2.63 -0.14986
2.64 -0.164632
2.65 -0.186518
2.66 -0.213626
2.67 -0.245181
2.68 -0.279314
2.69 -0.314246
2.7 -0.347909
2.71 -0.378767
2.72 -0.404768
2.73 -0.425066
2.74 -0.438783
2.75 -0.445337
2.76 -0.445669
2.77 -0.439565
2.78 -0.429157
2.79 -0.415571
2.8 -0.400821
2.81 -0.386689
2.82 -0.37534
2.83 -0.36796
2.84 -0.366472
2.85 -0.371254
2.86 -0.38278
2.87 -0.401098
2.88 -0.424846
2.89 -0.453522
2.9 -0.484759
2.91 -0.516882
2.92 -0.547614
2.93 -0.575123
2.94 -0.596888
2.95 -0.612192
2.96 -0.619001
2.97 -0.617508
2.98 -0.607605
2.99 -0.589741
3 -0.565889
3.01 -0.537095
3.02 -0.506248
3.03 -0.475528
3.04 -0.447586
3.05 -0.424427
3.06 -0.408889
3.07 -0.401433
3.08 -0.404153
3.09 -0.416435
3.1 -0.438065
3.11 -0.468156
3.12 -0.504263
3.13 -0.544822
3.14 -0.586609
3.15 -0.627054
3.16 -0.663312
3.17 -0.693386
3.18 -0.714385
3.19 -0.726285
3.2 -0.72729
3.21 -0.718645
3.22 -0.70118
3.23 -0.676597
3.24 -0.647869
3.25 -0.617684
3.26 -0.589448
3.27 -0.566508
3.28 -0.551954
3.29 -0.547699
3.3 -0.556968
3.31 -0.57888
3.32 -0.615102
3.33 -0.663301
3.34 -0.721816
3.35 -0.787848
3.36 -0.8574
3.37 -0.926435
3.38 -0.990842
3.39 -1.04619
3.4 -1.08879
3.41 -1.11655
3.42 -1.12562
3.43 -1.11774
3.44 -1.09117
3.45 -1.04941
3.46 -0.994963
3.47 -0.93178
3.48 -0.865048
3.49 -0.80011
3.5 -0.741883
3.51 -0.69571
3.52 -0.66562
3.53 -0.653442
3.54 -0.66265
3.55 -0.689934
3.56 -0.735116
3.57 -0.792055
3.58 -0.855072
3.59 -0.915637
3.6 -0.965788
3.61 -0.99236
3.62 -0.988604
3.63 -0.942052
3.64 -0.844091
3.65 -0.690362
3.66 -0.468499
3.67 -0.184885
3.68 0.168588
3.69 0.58255
3.7 1.05222
3.71 1.56955
3.72 2.1188
3.73 2.68897
3.74 3.26115
3.75 3.81881
3.76 4.3436
3.77 4.82173
3.78 5.23011
3.79 5.56509
3.8 5.80524
3.81 5.95045
3.82 5.99462
3.83 5.93241
3.84 5.77727
3.85 5.52053
3.86 5.18602
3.87 4.7784
3.88 4.31448
3.89 3.81095
3.9 3.28168
3.91 2.74522
3.92 2.21674
3.93 1.71003
3.94 1.23686
3.95 0.809532
3.96 0.429772
3.97 0.110748
3.98 -0.154486
3.99 -0.361828
4 -0.515856
4.01 -0.623574
4.02 -0.686949
4.03 -0.71878
4.04 -0.723098
4.05 -0.710355
4.06 -0.687176
4.07 -0.660438
4.08 -0.635467
4.09 -0.617374
4.1 -0.60797
4.11 -0.609422
4.12 -0.621635
4.13 -0.643185
4.14 -0.67295
4.15 -0.707386
4.16 -0.743957
4.17 -0.779235
4.18 -0.81037
4.19 -0.834204
4.2 -0.849545
4.21 -0.853183
4.22 -0.845916
4.23 -0.826566
4.24 -0.795831
4.25 -0.755098
4.26 -0.704717
4.27 -0.647452
4.28 -0.584156
4.29 -0.517044
4.3 -0.447456
4.31 -0.376681
4.32 -0.305707
4.33 -0.235228
4.34 -0.165502
4.35 -0.0966604
4.36 -0.0285646
4.37 0.0390111
4.38 0.106238
4.39 0.173257
4.4 0.239948
4.41 0.305983
4.42 0.370749
4.43 0.433141
4.44 0.492305
4.45 0.54603
4.46 0.593475
4.47 0.632439
4.48 0.661342
4.49 0.679344
4.5 0.683825
4.51 0.67581
4.52 0.653264
4.53 0.617541
4.54 0.569023
4.55 0.508409
4.56 0.438401
4.57 0.359662
4.58 0.275655
4.59 0.188255
4.6 0.100143
4.61 0.0134635
4.62 -0.069218
4.63 -0.146753
4.64 -0.217015
4.65 -0.279649
4.66 -0.334099
4.67 -0.379997
4.68 -0.418622
4.69 -0.449646
4.7 -0.475196
4.71 -0.495997
4.72 -0.513554
4.73 -0.529191
4.74 -0.544006
4.75 -0.559013
4.76 -0.574978
4.77 -0.592256
4.78 -0.610986
4.79 -0.631066
4.8 -0.652002
4.81 -0.673281
4.82 -0.694159
4.83 -0.713874
4.84 -0.731677
4.85 -0.747096
4.86 -0.759312
4.87 -0.768488
4.88 -0.774154
4.89 -0.776759
4.9 -0.776589
4.91 -0.774102
4.92 -0.770132
4.93 -0.765261
4.94 -0.760359
4.95 -0.75611
4.96 -0.753169
4.97 -0.751912
4.98 -0.752913
4.99 -0.756018
5 -0.761493
5.01 -0.768971
5.02 -0.778217
5.03 -0.788898
5.04 -0.800487
5.05 -0.812657
5.06 -0.824942
5.07 -0.837029
5.08 -0.848649
5.09 -0.859658
5.1 -0.869848
5.11 -0.879245
5.12 -0.887647
5.13 -0.894979
5.14 -0.900991
5.15 -0.905169
5.16 -0.907177
5.17 -0.905733
5.18 -0.900286
5.19 -0.889269
5.2 -0.871254
5.21 -0.845202
5.22 -0.808368
5.23 -0.76077
5.24 -0.699608
5.25 -0.62492
5.26 -0.535924
5.27 -0.431828
5.28 -0.314671
5.29 -0.183587
5.3 -0.0423589
5.31 0.107427
5.32 0.262224
5.33 0.41845
5.34 0.571634
5.35 0.718099
5.36 0.852382
5.37 0.971053
5.38 1.0702
5.39 1.14511
5.4 1.19588
5.41 1.21634
5.42 1.20978
5.43 1.17392
5.44 1.11044
5.45 1.02256
5.46 0.910653
5.47 0.781353
5.48 0.636761
5.49 0.482854
5.5 0.323932
5.51 0.164964
5.52 0.00994862
5.53 -0.135936
5.54 -0.270594
5.55 -0.390481
5.56 -0.493836
5.57 -0.580556
5.58 -0.648349
5.59 -0.700211
5.6 -0.735233
5.61 -0.75646
5.62 -0.765562
5.63 -0.764372
5.64 -0.755978
5.65 -0.741558
5.66 -0.723784
5.67 -0.703827
5.68 -0.682905
5.69 -0.66166
5.7 -0.640301
5.71 -0.618675
5.72 -0.596226
5.73 -0.572274
5.74 -0.546022
5.75 -0.516443
5.76 -0.483263
5.77 -0.445348
5.78 -0.403195
5.79 -0.35665
5.8 -0.306433
5.81 -0.253627
5.82 -0.199436
5.83 -0.145575
5.84 -0.0939765
5.85 -0.0464293
5.86 -0.00473301
5.87 0.0289089
5.88 0.0540334
5.89 0.067963
5.9 0.0715543
5.91 0.0637168
5.92 0.044905
5.93 0.0163332
5.94 -0.0219206
5.95 -0.0671884
5.96 -0.118628
5.97 -0.173863
5.98 -0.231226
5.99 -0.288882
6 -0.345401
6.01 -0.399153
6.02 -0.449589
6.03 -0.495887
6.04 -0.537909
6.05 -0.576025
6.06 -0.610284
6.07 -0.641858
6.08 -0.671268
6.09 -0.6996
6.1 -0.727622
6.11 -0.756097
6.12 -0.785422
6.13 -0.816
6.14 -0.847596
6.15 -0.879953
6.16 -0.912399
6.17 -0.944185
6.18 -0.97414
6.19 -1.00156
6.2 -1.02511
6.21 -1.04427
6.22 -1.05842
6.23 -1.06699
6.24 -1.07063
6.25 -1.06898
6.26 -1.06351
6.27 -1.0549
6.28 -1.04449
6.29 -1.03356
6.3 -1.02342
6.31 -1.01491
6.32 -1.00892
6.33 -1.00537
6.34 -1.00383
6.35 -1.00305
6.36 -1.00117
6.37 -0.994924
6.38 -0.981487
6.39 -0.956332
6.4 -0.914815
6.41 -0.85359
6.42 -0.76491
6.43 -0.648345
6.44 -0.496336
6.45 -0.308594
6.46 -0.0830083
6.47 0.18292
6.48 0.483966
6.49 0.822979
6.5 1.19053
6.51 1.58325
6.52 1.99286
6.53 2.41069
6.54 2.82682
6.55 3.23182
6.56 3.61333
6.57 3.96239
6.58 4.26949
6.59 4.52256
6.6 4.7206
6.61 4.84785
6.62 4.90994
6.63 4.89968
6.64 4.8183
6.65 4.67184
6.66 4.45719
6.67 4.18949
6.68 3.86998
6.69 3.51213
6.7 3.12483
6.71 2.7182
6.72 2.30384
6.73 1.89201
6.74 1.49187
6.75 1.11262
6.76 0.761795
6.77 0.443057
6.78 0.165168
6.79 -0.074993
6.8 -0.271583
6.81 -0.428519
6.82 -0.547141
6.83 -0.628741
6.84 -0.68077
6.85 -0.703351
6.86 -0.705209
6.87 -0.689335
6.88 -0.660995
6.89 -0.624759
6.9 -0.583932
6.91 -0.542097
6.92 -0.501654
6.93 -0.464323
6.94 -0.431163
6.95 -0.403
6.96 -0.379362
6.97 -0.360689
6.98 -0.345828
6.99 -0.334532
7 -0.32617
7.01 -0.320193
7.02 -0.316635
7.03 -0.315161
7.04 -0.316274
7.05 -0.320225
7.06 -0.32759
7.07 -0.339303
7.08 -0.355508
7.09 -0.377614
7.1 -0.405254
7.11 -0.439054
7.12 -0.478816
7.13 -0.523816
7.14 -0.573835
7.15 -0.627165
7.16 -0.682827
7.17 -0.739037
7.18 -0.794255
7.19 -0.846578
7.2 -0.89491
7.21 -0.937063
7.22 -0.972806
7.23 -1.00095
7.24 -1.02127
7.25 -1.03435
7.26 -1.03989
7.27 -1.03983
7.28 -1.03472
7.29 -1.02648
7.3 -1.01652
7.31 -1.00648
7.32 -0.997604
7.33 -0.991354
7.34 -0.98811
7.35 -0.988376
7.36 -0.991857
7.37 -0.99768
7.38 -1.00468
7.39 -1.01102
7.4 -1.01439
7.41 -1.0125
7.42 -1.00291
7.43 -0.982369
7.44 -0.949912
7.45 -0.901278
7.46 -0.837047
7.47 -0.755019
7.48 -0.655051
7.49 -0.538537
7.5 -0.404698
7.51 -0.257695
7.52 -0.0985213
7.53 0.0686104
7.54 0.240369
7.55 0.412589
7.56 0.581487
7.57 0.741874
7.58 0.890927
7.59 1.02422
7.6 1.13848
7.61 1.23244
7.62 1.30125
7.63 1.34715
7.64 1.36666
7.65 1.36194
7.66 1.33362
7.67 1.28204
7.68 1.21157
7.69 1.12189
7.7 1.01837
7.71 0.902866
7.72 0.778914
7.73 0.649882
7.74 0.518671
7.75 0.38839
7.76 0.262009
7.77 0.141841
7.78 0.0299868
7.79 -0.0709821
7.8 -0.160844
7.81 -0.236425
7.82 -0.298756
7.83 -0.346305
7.84 -0.379039
7.85 -0.397972
7.86 -0.4019
7.87 -0.39366
7.88 -0.372883
7.89 -0.341999
7.9 -0.302539
7.91 -0.256214
7.92 -0.20573
7.93 -0.153009
7.94 -0.100744
7.95 -0.0513025
7.96 -0.00718277
7.97 0.0299627
7.98 0.0570311
7.99 0.0738823
8 0.0779837
8.01 0.0695083
8.02 0.0481632
8.03 0.0135476
8.04 -0.0321563
8.05 -0.0892986
8.06 -0.154645
8.07 -0.226826
8.08 -0.303283
8.09 -0.381578
8.1 -0.4592
8.11 -0.534088
8.12 -0.603826
8.13 -0.667092
8.14 -0.722751
8.15 -0.769627
8.16 -0.808564
8.17 -0.838718
8.18 -0.862125
8.19 -0.879501
8.2 -0.892581
8.21 -0.903148
8.22 -0.912794
8.23 -0.923075
8.24 -0.935286
8.25 -0.95002
8.26 -0.967404
8.27 -0.986983
8.28 -1.00739
8.29 -1.02656
8.3 -1.04204
8.31 -1.05048
8.32 -1.04808
8.33 -1.03204
8.34 -0.996216
8.35 -0.939884
8.36 -0.857145
8.37 -0.747257
8.38 -0.608505
8.39 -0.438471
8.4 -0.241013
8.41 -0.01358
8.42 0.236966
8.43 0.508391
8.44 0.794897
8.45 1.09008
8.46 1.38732
8.47 1.67944
8.48 1.95814
8.49 2.21675
8.5 2.44877
8.51 2.64568
8.52 2.80653
8.53 2.9208
8.54 2.99168
8.55 3.01445
8.56 2.98941
8.57 2.92063
8.58 2.80536
8.59 2.6536
8.6 2.46571
8.61 2.25011
8.62 2.01238
8.63 1.75843
8.64 1.49594
8.65 1.23061
8.66 0.968743
8.67 0.715768
8.68 0.476617
8.69 0.253865
8.7 0.0529626
8.71 -0.127239
8.72 -0.283055
8.73 -0.416011
8.74 -0.526537
8.75 -0.614665
8.76 -0.684447
8.77 -0.73532
8.78 -0.772154
8.79 -0.796359
8.8 -0.810798
8.81 -0.818292
8.82 -0.820537
8.83 -0.820191
8.84 -0.81872
8.85 -0.817693
8.86 -0.818133
8.87 -0.821007
8.88 -0.826496
8.89 -0.835278
8.9 -0.846933
8.91 -0.8615
8.92 -0.878619
8.93 -0.897764
8.94 -0.918665
8.95 -0.940611
8.96 -0.96323
8.97 -0.985992
8.98 -1.0085
8.99 -1.03034
9 -1.05129
9.01 -1.07093
9.02 -1.08922
9.03 -1.10592
9.04 -1.1209
9.05 -1.13416
9.06 -1.14538
9.07 -1.15473
9.08 -1.16183
9.09 -1.16667
9.1 -1.16904
9.11 -1.16849
9.12 -1.16503
9.13 -1.15777
9.14 -1.14677
9.15 -1.1313
9.16 -1.11087
9.17 -1.08537
9.18 -1.05364
9.19 -1.01622
9.2 -0.97218
9.21 -0.921904
9.22 -0.865497
9.23 -0.802974
9.24 -0.735546
9.25 -0.663367
9.26 -0.588149
9.27 -0.510963
9.28 -0.433492
9.29 -0.357288
9.3 -0.284587
9.31 -0.216657
9.32 -0.15594
9.33 -0.103677
9.34 -0.0612386
9.35 -0.0305279
9.36 -0.0109752
9.37 -0.00480894
9.38 -0.010246
9.39 -0.0276168
9.4 -0.0557874
9.41 -0.0928152
9.42 -0.137869
9.43 -0.187885
9.44 -0.24118
9.45 -0.29511
9.46 -0.347557
9.47 -0.396054
9.48 -0.439344
9.49 -0.474909
9.5 -0.502662
9.51 -0.521474
9.52 -0.531302
9.53 -0.53309
9.54 -0.526766
9.55 -0.514687
9.56 -0.497794
9.57 -0.478327
9.58 -0.458075
9.59 -0.439128
9.6 -0.422958
9.61 -0.411734
9.62 -0.406048
9.63 -0.407103
9.64 -0.415321
9.65 -0.430245
9.66 -0.452317
9.67 -0.479822
9.68 -0.51237
9.69 -0.548334
9.7 -0.586492
9.71 -0.625514
9.72 -0.664199
9.73 -0.701335
9.74 -0.736309
9.75 -0.768443
9.76 -0.797433
9.77 -0.823423
9.78 -0.846124
9.79 -0.866166
9.8 -0.883383
9.81 -0.897986
9.82 -0.909757
9.83 -0.917855
9.84 -0.921754
9.85 -0.919063
9.86 -0.908538
9.87 -0.887132
9.88 -0.851613
9.89 -0.799879
9.9 -0.725691
9.91 -0.628803
9.92 -0.502997
9.93 -0.347229
9.94 -0.159444
9.95 0.0638429
9.96 0.318876
9.97 0.609607
9.98 0.929156
9.99 1.27597
10 1.64447
10.01 2.02761
10.02 2.41897
10.03 2.80959
10.04 3.19038
10.05 3.55259
10.06 3.88796
10.07 4.18534
10.08 4.44202
10.09 4.64424
10.1 4.79374
10.11 4.88339
10.12 4.91147
10.13 4.88197
10.14 4.78911
10.15 4.64505
10.16 4.44865
10.17 4.21008
10.18 3.93619
10.19 3.63379
10.2 3.31377
10.21 2.98278
10.22 2.65042
10.23 2.32389
10.24 2.01048
10.25 1.7144
10.26 1.44311
10.27 1.19612
10.28 0.978287
10.29 0.788237
10.3 0.625388
10.31 0.489692
10.32 0.375895
10.33 0.284102
10.34 0.208106
10.35 0.145538
10.36 0.0924904
10.37 0.0453158
10.38 0.00139393
10.39 -0.0421345
10.4 -0.0872437
10.41 -0.135306
10.42 -0.187104
10.43 -0.243251
10.44 -0.30314
10.45 -0.366803
10.46 -0.432975
10.47 -0.500888
10.48 -0.569375
10.49 -0.637426
10.5 -0.703803
10.51 -0.767855
10.52 -0.828484
10.53 -0.885234
10.54 -0.937635
10.55 -0.984966
10.56 -1.02753
10.57 -1.06431
10.58 -1.09585
10.59 -1.12159
10.6 -1.14136
10.61 -1.15537
10.62 -1.16257
10.63 -1.16373
10.64 -1.15792
10.65 -1.14547
10.66 -1.12638
10.67 -1.10036
10.68 -1.06843
10.69 -1.03021
10.7 -0.987171
10.71 -0.939875
10.72 -0.889531
10.73 -0.837498
10.74 -0.785169
10.75 -0.734023
10.76 -0.685763
10.77 -0.641752
10.78 -0.60325
10.79 -0.571953
10.8 -0.547923
10.81 -0.533068
10.82 -0.526615
10.83 -0.529179
10.84 -0.540448
10.85 -0.559319
10.86 -0.585883
10.87 -0.618044
10.88 -0.655233
10.89 -0.695734
10.9 -0.73828
10.91 -0.781521
10.92 -0.824252
10.93 -0.865173
10.94 -0.903589
10.95 -0.938646
10.96 -0.969809
10.97 -0.997092
10.98 -1.01988
10.99 -1.0389
11 -1.054
11.01 -1.06584
11.02 -1.07489
11.03 -1.08157
11.04 -1.08667
11.05 -1.09055
11.06 -1.09391
11.07 -1.09715
11.08 -1.10073
11.09 -1.10494
11.1 -1.11014
11.11 -1.11634
11.12 -1.12373
11.13 -1.13217
11.14 -1.14149
11.15 -1.1514
11.16 -1.16141
11.17 -1.17082
11.18 -1.17887
11.19 -1.18449
11.2 -1.18634
11.21 -1.1834
11.22 -1.17317
11.23 -1.15497
11.24 -1.12593
11.25 -1.08471
11.26 -1.02961
11.27 -0.957692
11.28 -0.869421
11.29 -0.760833
11.3 -0.633588
11.31 -0.486145
11.32 -0.318805
11.33 -0.133779
11.34 0.0695265
11.35 0.286256
11.36 0.514888
11.37 0.750739
11.38 0.989785
11.39 1.22691
11.4 1.45773
11.41 1.67548
11.42 1.87659
11.43 2.05527
11.44 2.20664
11.45 2.32915
11.46 2.41519
11.47 2.46785
11.48 2.48188
11.49 2.45962
11.5 2.40212
11.51 2.30918
11.52 2.18751
11.53 2.03676
11.54 1.86494
11.55 1.67542
11.56 1.47383
11.57 1.26577
11.58 1.0562
11.59 0.849968
11.6 0.651858
11.61 0.465214
11.62 0.292683
11.63 0.137585
11.64 -0.000927937
11.65 -0.119801
11.66 -0.221816
11.67 -0.306917
11.68 -0.376874
11.69 -0.43462
11.7 -0.481135
11.71 -0.520402
11.72 -0.55406
11.73 -0.584874
11.74 -0.614721
11.75 -0.645343
11.76 -0.677699
11.77 -0.712757
11.78 -0.750282
11.79 -0.790023
11.8 -0.83101
11.81 -0.871983
11.82 -0.91106
11.83 -0.94671
11.84 -0.976465
11.85 -0.998548
11.86 -1.01118
11.87 -1.0117
11.88 -1.00008
11.89 -0.973087
11.9 -0.931777
11.91 -0.874859
11.92 -0.80237
11.93 -0.715875
11.94 -0.614481
11.95 -0.501634
11.96 -0.37776
11.97 -0.245761
11.98 -0.107895
11.99 0.0333313
12 0.175032
12.01 0.314182
12.02 0.448273
12.03 0.574388
12.04 0.689742
12.05 0.793029
12.06 0.880228
12.07 0.952049
12.08 1.00539
12.09 1.04057
12.1 1.05741
12.11 1.05482
12.12 1.0356
12.13 0.998394
12.14 0.946892
12.15 0.881996
12.16 0.80603
12.17 0.721913
12.18 0.631332
12.19 0.537616
12.2 0.442868
12.21 0.349534
12.22 0.259469
12.23 0.174796
12.24 0.0960819
12.25 0.0252155
12.26 -0.0383264
12.27 -0.0941054
12.28 -0.142567
12.29 -0.184947
12.3 -0.221614
12.31 -0.254624
12.32 -0.284973
12.33 -0.314313
12.34 -0.343879
12.35 -0.374967
12.36 -0.408194
12.37 -0.444469
12.38 -0.483553
12.39 -0.52534
12.4 -0.569069
12.41 -0.613617
