# xPDFsuite Configuration #
[PDF]
wavelength = 0.1432
dataformat = twotheta
inputfile = 1_1Pd_CeO2_cycle-00364.chi
backgroundfile = background-00000.chi
mode = xray
bgscale = 1.007
composition = CeO2
outputtype = gr
qmaxinst = 28.8974762299
qmin = 0.5
qmax = 27.9
rmax = 50.0
rmin = 0.0
rstep = 0.01
rpoly = 1.8657

[Misc]
inputdir = G:/SankarDec16/1Pd/Chi
savedir = D:/DATA/APS_CeO2/1Pd
backgroundfilefull = G:/SankarDec16/Background/background-00000.chi

#### start data
#S 1
#L r($\AA$)  G($\AA^{-2}$)
0 0
0.01 -0.00569996
0.02 -0.0109688
0.03 -0.0153628
0.04 -0.0185479
0.05 -0.0203387
0.06 -0.0204375
0.07 -0.0190444
0.08 -0.0160655
0.09 -0.0118819
0.1 -0.00675843
0.11 -0.00109918
0.12 0.00465714
0.13 0.0100164
0.14 0.0146323
0.15 0.0180785
0.16 0.020108
0.17 0.0206242
0.18 0.0194279
0.19 0.0168153
0.2 0.0128036
0.21 0.00783824
0.22 0.00224987
0.23 -0.0035073
0.24 -0.00902195
0.25 -0.013762
0.26 -0.0174832
0.27 -0.0197986
0.28 -0.0205606
0.29 -0.0197666
0.3 -0.0173262
0.31 -0.0136171
0.32 -0.00876654
0.33 -0.00326246
0.34 0.00251563
0.35 0.00808592
0.36 0.0130855
0.37 0.0169712
0.38 0.0196134
0.39 0.0206843
0.4 0.0201433
0.41 0.0180824
0.42 0.0145248
0.43 0.00991095
0.44 0.00447203
0.45 -0.00128611
0.46 -0.00695421
0.47 -0.012047
0.48 -0.0162686
0.49 -0.0190926
0.5 -0.0205105
0.51 -0.0202708
0.52 -0.0184426
0.53 -0.0152079
0.54 -0.0107031
0.55 -0.00540925
0.56 0.000349856
0.57 0.00607581
0.58 0.0113505
0.59 0.0157096
0.6 0.0189399
0.61 0.0205581
0.62 0.0206784
0.63 0.0191386
0.64 0.0161142
0.65 0.0118688
0.66 0.00664562
0.67 0.000941828
0.68 -0.0048422
0.69 -0.0102406
0.7 -0.0148481
0.71 -0.0182443
0.72 -0.0203103
0.73 -0.0206307
0.74 -0.0194364
0.75 -0.0166629
0.76 -0.0125834
0.77 -0.00752888
0.78 -0.00183658
0.79 0.0040062
0.8 0.00954487
0.81 0.0143707
0.82 0.0181138
0.83 0.0204216
0.84 0.0212759
0.85 0.0203542
0.86 0.0179913
0.87 0.0142255
0.88 0.00941276
0.89 0.00393254
0.9 -0.00180311
0.91 -0.0073472
0.92 -0.0122204
0.93 -0.0161
0.94 -0.01868
0.95 -0.0197072
0.96 -0.0192734
0.97 -0.0171889
0.98 -0.0138806
0.99 -0.0095087
1 -0.00450694
1.01 0.000708632
1.02 0.0056481
1.03 0.00993817
1.04 0.0130785
1.05 0.0148641
1.06 0.0150727
1.07 0.0135749
1.08 0.0105991
1.09 0.00611797
1.1 0.000675591
1.11 -0.0054103
1.12 -0.0115945
1.13 -0.0173946
1.14 -0.0221802
1.15 -0.0256354
1.16 -0.0271553
1.17 -0.0266264
1.18 -0.0238488
1.19 -0.0187429
1.2 -0.0116748
1.21 -0.00264496
1.22 0.00762994
1.23 0.0187523
1.24 0.0300516
1.25 0.040942
1.26 0.0506681
1.27 0.0588351
1.28 0.0646975
1.29 0.0680696
1.3 0.0686436
1.31 0.066204
1.32 0.0610919
1.33 0.0530615
1.34 0.0428678
1.35 0.0307172
1.36 0.0172152
1.37 0.00292385
1.38 -0.0115882
1.39 -0.0257691
1.4 -0.0390263
1.41 -0.0509826
1.42 -0.0612575
1.43 -0.0694896
1.44 -0.0757256
1.45 -0.0795223
1.46 -0.0812453
1.47 -0.0807583
1.48 -0.0782624
1.49 -0.0739874
1.5 -0.0679579
1.51 -0.0605858
1.52 -0.0518976
1.53 -0.0422149
1.54 -0.0316889
1.55 -0.0204961
1.56 -0.00887212
1.57 0.00302888
1.58 0.0149514
1.59 0.0266601
1.6 0.0378711
1.61 0.0483314
1.62 0.0575926
1.63 0.0654907
1.64 0.0714762
1.65 0.0753899
1.66 0.0769071
1.67 0.0756935
1.68 0.0718978
1.69 0.0650301
1.7 0.0556291
1.71 0.0436497
1.72 0.0295256
1.73 0.0137543
1.74 -0.00321456
1.75 -0.0206404
1.76 -0.0378801
1.77 -0.0542615
1.78 -0.0691684
1.79 -0.0819373
1.8 -0.0923954
1.81 -0.099814
1.82 -0.104534
1.83 -0.10636
1.84 -0.105644
1.85 -0.10287
1.86 -0.0984489
1.87 -0.0932168
1.88 -0.0878261
1.89 -0.0830413
1.9 -0.0795187
1.91 -0.0779469
1.92 -0.0785178
1.93 -0.0818877
1.94 -0.087676
1.95 -0.0959349
1.96 -0.106161
1.97 -0.117724
1.98 -0.1299
1.99 -0.141777
2 -0.15231
2.01 -0.160635
2.02 -0.165854
2.03 -0.166988
2.04 -0.163899
2.05 -0.155388
2.06 -0.142082
2.07 -0.123571
2.08 -0.100303
2.09 -0.0729147
2.1 -0.0416906
2.11 -0.00783424
2.12 0.028162
2.13 0.0652833
2.14 0.10287
2.15 0.140259
2.16 0.177057
2.17 0.212842
2.18 0.247674
2.19 0.281543
2.2 0.314723
2.21 0.347544
2.22 0.380392
2.23 0.413598
2.24 0.447497
2.25 0.482151
2.26 0.517498
2.27 0.553208
2.28 0.58872
2.29 0.623025
2.3 0.655221
2.31 0.683839
2.32 0.707461
2.33 0.724967
2.34 0.73409
2.35 0.734734
2.36 0.724672
2.37 0.704162
2.38 0.672693
2.39 0.630048
2.4 0.577953
2.41 0.516082
2.42 0.447428
2.43 0.373243
2.44 0.296054
2.45 0.21815
2.46 0.142191
2.47 0.0700906
2.48 0.00456857
2.49 -0.0531763
2.5 -0.101749
2.51 -0.139942
2.52 -0.168616
2.53 -0.186529
2.54 -0.19613
2.55 -0.197937
2.56 -0.193985
2.57 -0.186295
2.58 -0.176801
2.59 -0.167647
2.6 -0.160849
2.61 -0.157828
2.62 -0.159789
2.63 -0.167732
2.64 -0.181251
2.65 -0.20098
2.66 -0.225261
2.67 -0.253389
2.68 -0.283692
2.69 -0.314577
2.7 -0.344176
2.71 -0.371138
2.72 -0.393622
2.73 -0.410911
2.74 -0.422254
2.75 -0.427188
2.76 -0.42661
2.77 -0.420428
2.78 -0.410605
2.79 -0.398244
2.8 -0.385223
2.81 -0.373172
2.82 -0.364134
2.83 -0.359122
2.84 -0.359925
2.85 -0.366808
2.86 -0.380158
2.87 -0.399949
2.88 -0.424837
2.89 -0.45428
2.9 -0.48601
2.91 -0.518397
2.92 -0.549263
2.93 -0.576866
2.94 -0.598786
2.95 -0.614365
2.96 -0.621644
2.97 -0.62082
2.98 -0.611781
2.99 -0.594928
3 -0.572149
3.01 -0.544378
3.02 -0.514386
3.03 -0.484205
3.04 -0.456355
3.05 -0.432762
3.06 -0.41611
3.07 -0.406915
3.08 -0.407198
3.09 -0.416472
3.1 -0.434626
3.11 -0.460942
3.12 -0.493195
3.13 -0.530084
3.14 -0.56861
3.15 -0.606482
3.16 -0.641079
3.17 -0.670522
3.18 -0.692171
3.19 -0.705868
3.2 -0.709927
3.21 -0.705343
3.22 -0.692762
3.23 -0.673597
3.24 -0.650447
3.25 -0.625584
3.26 -0.60205
3.27 -0.582756
3.28 -0.570453
3.29 -0.56687
3.3 -0.574863
3.31 -0.593753
3.32 -0.625053
3.33 -0.666808
3.34 -0.717639
3.35 -0.775189
3.36 -0.836018
3.37 -0.896723
3.38 -0.953739
3.39 -1.0033
3.4 -1.04223
3.41 -1.06875
3.42 -1.07959
3.43 -1.0762
3.44 -1.05717
3.45 -1.02545
3.46 -0.983199
3.47 -0.933768
3.48 -0.881523
3.49 -0.830969
3.5 -0.786159
3.51 -0.751479
3.52 -0.730123
3.53 -0.723403
3.54 -0.733814
3.55 -0.758301
3.56 -0.796059
3.57 -0.841526
3.58 -0.889347
3.59 -0.931586
3.6 -0.961397
3.61 -0.966478
3.62 -0.941403
3.63 -0.874904
3.64 -0.759613
3.65 -0.592042
3.66 -0.361276
3.67 -0.0737105
3.68 0.277643
3.69 0.683805
3.7 1.14006
3.71 1.63867
3.72 2.16514
3.73 2.70902
3.74 3.25309
3.75 3.78202
3.76 4.279
3.77 4.73145
3.78 5.118
3.79 5.43553
3.8 5.6641
3.81 5.80369
3.82 5.84852
3.83 5.79346
3.84 5.6509
3.85 5.41228
3.86 5.09967
3.87 4.71693
3.88 4.27942
3.89 3.80253
3.9 3.29866
3.91 2.78539
3.92 2.2765
3.93 1.78525
3.94 1.32283
3.95 0.90107
3.96 0.522261
3.97 0.199173
3.98 -0.0738471
3.99 -0.292266
4 -0.459583
4.01 -0.581781
4.02 -0.659792
4.03 -0.705482
4.04 -0.721879
4.05 -0.718874
4.06 -0.702594
4.07 -0.679509
4.08 -0.65526
4.09 -0.634698
4.1 -0.620493
4.11 -0.615159
4.12 -0.619382
4.13 -0.632474
4.14 -0.65411
4.15 -0.681359
4.16 -0.712432
4.17 -0.744226
4.18 -0.774186
4.19 -0.799355
4.2 -0.818187
4.21 -0.82752
4.22 -0.827406
4.23 -0.816259
4.24 -0.794088
4.25 -0.761677
4.26 -0.718645
4.27 -0.667375
4.28 -0.608091
4.29 -0.542887
4.3 -0.472958
4.31 -0.39956
4.32 -0.324124
4.33 -0.247464
4.34 -0.170575
4.35 -0.094067
4.36 -0.0184743
4.37 0.0558878
4.38 0.128484
4.39 0.199221
4.4 0.267427
4.41 0.332793
4.42 0.394676
4.43 0.452066
4.44 0.504627
4.45 0.550403
4.46 0.589296
4.47 0.619645
4.48 0.640541
4.49 0.651639
4.5 0.651017
4.51 0.639818
4.52 0.616504
4.53 0.582294
4.54 0.537511
4.55 0.482655
4.56 0.419845
4.57 0.349388
4.58 0.273996
4.59 0.194953
4.6 0.114284
4.61 0.033673
4.62 -0.044988
4.63 -0.120573
4.64 -0.191386
4.65 -0.256838
4.66 -0.316224
4.67 -0.368875
4.68 -0.415436
4.69 -0.455101
4.7 -0.489251
4.71 -0.517959
4.72 -0.542073
4.73 -0.562494
4.74 -0.579634
4.75 -0.594591
4.76 -0.607727
4.77 -0.619732
4.78 -0.630965
4.79 -0.64171
4.8 -0.652177
4.81 -0.662415
4.82 -0.672463
4.83 -0.682267
4.84 -0.691762
4.85 -0.700902
4.86 -0.709586
4.87 -0.717849
4.88 -0.725639
4.89 -0.733031
4.9 -0.740073
4.91 -0.746827
4.92 -0.753389
4.93 -0.759792
4.94 -0.766095
4.95 -0.772292
4.96 -0.778356
4.97 -0.78424
4.98 -0.789835
4.99 -0.795098
5 -0.799907
5.01 -0.804251
5.02 -0.808124
5.03 -0.811573
5.04 -0.814761
5.05 -0.817874
5.06 -0.821185
5.07 -0.825008
5.08 -0.829671
5.09 -0.835393
5.1 -0.842539
5.11 -0.850999
5.12 -0.860854
5.13 -0.871667
5.14 -0.882923
5.15 -0.893706
5.16 -0.903056
5.17 -0.909151
5.18 -0.910824
5.19 -0.90593
5.2 -0.89254
5.21 -0.869358
5.22 -0.833172
5.23 -0.784228
5.24 -0.719561
5.25 -0.639637
5.26 -0.544008
5.27 -0.432358
5.28 -0.307332
5.29 -0.168683
5.3 -0.0207302
5.31 0.134353
5.32 0.292576
5.33 0.450171
5.34 0.60223
5.35 0.745409
5.36 0.874124
5.37 0.985448
5.38 1.07586
5.39 1.14116
5.4 1.18209
5.41 1.19316
5.42 1.17818
5.43 1.1355
5.44 1.06724
5.45 0.976817
5.46 0.865071
5.47 0.738294
5.48 0.598757
5.49 0.45194
5.5 0.301793
5.51 0.15281
5.52 0.0083513
5.53 -0.126977
5.54 -0.251654
5.55 -0.362697
5.56 -0.45881
5.57 -0.54012
5.58 -0.604806
5.59 -0.655638
5.6 -0.691934
5.61 -0.716385
5.62 -0.730434
5.63 -0.735607
5.64 -0.734478
5.65 -0.727885
5.66 -0.717998
5.67 -0.705611
5.68 -0.691576
5.69 -0.676323
5.7 -0.65974
5.71 -0.641737
5.72 -0.621587
5.73 -0.59877
5.74 -0.572578
5.75 -0.542106
5.76 -0.507338
5.77 -0.467235
5.78 -0.422546
5.79 -0.373225
5.8 -0.320113
5.81 -0.264362
5.82 -0.2072
5.83 -0.15034
5.84 -0.0956795
5.85 -0.044969
5.86 2.86447e-05
5.87 0.037139
5.88 0.0658721
5.89 0.0835158
5.9 0.0908149
5.91 0.0865381
5.92 0.0709426
5.93 0.0450661
5.94 0.00865988
5.95 -0.0357099
5.96 -0.0875373
5.97 -0.144509
5.98 -0.205061
5.99 -0.267449
6 -0.330007
6.01 -0.391124
6.02 -0.4498
6.03 -0.504942
6.04 -0.555947
6.05 -0.602759
6.06 -0.644844
6.07 -0.683056
6.08 -0.717329
6.09 -0.748542
6.1 -0.777225
6.11 -0.803916
6.12 -0.829305
6.13 -0.853639
6.14 -0.877314
6.15 -0.900355
6.16 -0.922681
6.17 -0.94412
6.18 -0.964169
6.19 -0.982624
6.2 -0.998834
6.21 -1.01259
6.22 -1.02359
6.23 -1.03155
6.24 -1.03684
6.25 -1.03927
6.26 -1.03962
6.27 -1.03826
6.28 -1.03587
6.29 -1.03308
6.3 -1.03047
6.31 -1.02834
6.32 -1.02683
6.33 -1.02554
6.34 -1.02373
6.35 -1.01989
6.36 -1.01254
6.37 -0.998318
6.38 -0.975188
6.39 -0.93909
6.4 -0.886195
6.41 -0.813911
6.42 -0.715479
6.43 -0.591045
6.44 -0.434024
6.45 -0.244491
6.46 -0.0207267
6.47 0.239393
6.48 0.531124
6.49 0.857065
6.5 1.20881
6.51 1.58345
6.52 1.97367
6.53 2.37171
6.54 2.76877
6.55 3.15622
6.56 3.52286
6.57 3.86031
6.58 4.15963
6.59 4.40939
6.6 4.60821
6.61 4.7409
6.62 4.81211
6.63 4.81441
6.64 4.74821
6.65 4.61861
6.66 4.4217
6.67 4.17158
6.68 3.86861
6.69 3.52549
6.7 3.15052
6.71 2.7532
6.72 2.34523
6.73 1.93635
6.74 1.53637
6.75 1.15463
6.76 0.799254
6.77 0.474574
6.78 0.189969
6.79 -0.0569207
6.8 -0.259579
6.81 -0.421391
6.82 -0.543285
6.83 -0.626164
6.84 -0.677602
6.85 -0.697507
6.86 -0.695131
6.87 -0.673723
6.88 -0.639107
6.89 -0.596415
6.9 -0.549609
6.91 -0.502749
6.92 -0.458883
6.93 -0.420016
6.94 -0.387468
6.95 -0.36228
6.96 -0.343661
6.97 -0.332115
6.98 -0.325814
6.99 -0.32413
7 -0.325772
7.01 -0.329593
7.02 -0.334876
7.03 -0.340865
7.04 -0.347374
7.05 -0.354437
7.06 -0.362418
7.07 -0.372076
7.08 -0.383969
7.09 -0.399478
7.1 -0.418993
7.11 -0.443563
7.12 -0.473695
7.13 -0.509287
7.14 -0.550891
7.15 -0.597216
7.16 -0.64797
7.17 -0.701564
7.18 -0.756655
7.19 -0.811486
7.2 -0.864531
7.21 -0.913602
7.22 -0.957707
7.23 -0.99522
7.24 -1.02522
7.25 -1.04766
7.26 -1.06151
7.27 -1.06827
7.28 -1.06785
7.29 -1.06197
7.3 -1.05188
7.31 -1.03905
7.32 -1.02519
7.33 -1.01173
7.34 -0.999802
7.35 -0.990333
7.36 -0.983706
7.37 -0.979648
7.38 -0.977726
7.39 -0.976513
7.4 -0.974357
7.41 -0.969168
7.42 -0.958723
7.43 -0.939956
7.44 -0.911533
7.45 -0.869297
7.46 -0.813154
7.47 -0.740597
7.48 -0.650908
7.49 -0.544945
7.5 -0.421348
7.51 -0.283852
7.52 -0.132911
7.53 0.0275205
7.54 0.194339
7.55 0.363609
7.56 0.531339
7.57 0.692524
7.58 0.843892
7.59 0.980892
7.6 1.09991
7.61 1.19932
7.62 1.27401
7.63 1.32588
7.64 1.35119
7.65 1.3519
7.66 1.32852
7.67 1.28128
7.68 1.21457
7.69 1.12802
7.7 1.02714
7.71 0.913797
7.72 0.791642
7.73 0.664114
7.74 0.53413
7.75 0.404852
7.76 0.279198
7.77 0.15945
7.78 0.0476332
7.79 -0.0538038
7.8 -0.144671
7.81 -0.221975
7.82 -0.286707
7.83 -0.337398
7.84 -0.373964
7.85 -0.397289
7.86 -0.406057
7.87 -0.402833
7.88 -0.386992
7.89 -0.360654
7.9 -0.325052
7.91 -0.281513
7.92 -0.232611
7.93 -0.179822
7.94 -0.125918
7.95 -0.0730994
7.96 -0.0239479
7.97 0.0196327
7.98 0.054402
7.99 0.0796891
8 0.0925848
8.01 0.0927078
8.02 0.0792721
8.03 0.0512624
8.04 0.0105795
8.05 -0.0438198
8.06 -0.108676
8.07 -0.182932
8.08 -0.263995
8.09 -0.349134
8.1 -0.435772
8.11 -0.521121
8.12 -0.602371
8.13 -0.677446
8.14 -0.744574
8.15 -0.801791
8.16 -0.849476
8.17 -0.885893
8.18 -0.912965
8.19 -0.930928
8.2 -0.941418
8.21 -0.946467
8.22 -0.947571
8.23 -0.947101
8.24 -0.946661
8.25 -0.947699
8.26 -0.951048
8.27 -0.95712
8.28 -0.965193
8.29 -0.974202
8.3 -0.982018
8.31 -0.985933
8.32 -0.982436
8.33 -0.968647
8.34 -0.938767
8.35 -0.891307
8.36 -0.820298
8.37 -0.724197
8.38 -0.600663
8.39 -0.446532
8.4 -0.264889
8.41 -0.0523332
8.42 0.184831
8.43 0.445045
8.44 0.72298
8.45 1.01235
8.46 1.30704
8.47 1.59941
8.48 1.88134
8.49 2.14562
8.5 2.38535
8.51 2.59159
8.52 2.76273
8.53 2.88778
8.54 2.96935
8.55 3.00225
8.56 2.98638
8.57 2.9256
8.58 2.81678
8.59 2.67009
8.6 2.48572
8.61 2.27232
8.62 2.03565
8.63 1.78183
8.64 1.51886
8.65 1.25268
8.66 0.989872
8.67 0.73607
8.68 0.496383
8.69 0.273459
8.7 0.0728389
8.71 -0.106711
8.72 -0.261542
8.73 -0.393332
8.74 -0.502647
8.75 -0.589698
8.76 -0.658661
8.77 -0.70917
8.78 -0.746137
8.79 -0.771067
8.8 -0.786833
8.81 -0.796189
8.82 -0.800814
8.83 -0.803187
8.84 -0.804674
8.85 -0.806669
8.86 -0.810061
8.87 -0.815663
8.88 -0.823582
8.89 -0.834371
8.9 -0.847634
8.91 -0.863396
8.92 -0.881355
8.93 -0.901081
8.94 -0.922398
8.95 -0.94473
8.96 -0.967821
8.97 -0.991239
8.98 -1.01466
8.99 -1.03771
9 -1.06013
9.01 -1.08148
9.02 -1.10158
9.03 -1.12004
9.04 -1.13655
9.05 -1.15098
9.06 -1.1627
9.07 -1.17183
9.08 -1.17776
9.09 -1.18047
9.1 -1.17971
9.11 -1.17504
9.12 -1.16671
9.13 -1.15391
9.14 -1.13706
9.15 -1.1157
9.16 -1.08972
9.17 -1.0593
9.18 -1.02376
9.19 -0.983779
9.2 -0.938804
9.21 -0.889286
9.22 -0.835386
9.23 -0.77718
9.24 -0.715545
9.25 -0.650591
9.26 -0.583507
9.27 -0.515029
9.28 -0.446339
9.29 -0.378554
9.3 -0.313319
9.31 -0.251624
9.32 -0.195381
9.33 -0.145666
9.34 -0.10369
9.35 -0.0711786
9.36 -0.0478842
9.37 -0.0359488
9.38 -0.0341636
9.39 -0.0431447
9.4 -0.0622763
9.41 -0.0901164
9.42 -0.126405
9.43 -0.168487
9.44 -0.215234
9.45 -0.264273
9.46 -0.313727
9.47 -0.361393
9.48 -0.405785
9.49 -0.444568
9.5 -0.477154
9.51 -0.502216
9.52 -0.519268
9.53 -0.528785
9.54 -0.530228
9.55 -0.525511
9.56 -0.515095
9.57 -0.500915
9.58 -0.48451
9.59 -0.467696
9.6 -0.452084
9.61 -0.43965
9.62 -0.431365
9.63 -0.428565
9.64 -0.432014
9.65 -0.441627
9.66 -0.458196
9.67 -0.480376
9.68 -0.508131
9.69 -0.54008
9.7 -0.57518
9.71 -0.612284
9.72 -0.650081
9.73 -0.687442
9.74 -0.723462
9.75 -0.757304
9.76 -0.788374
9.77 -0.816526
9.78 -0.841145
9.79 -0.862637
9.8 -0.880545
9.81 -0.894961
9.82 -0.905591
9.83 -0.911541
9.84 -0.91248
9.85 -0.906093
9.86 -0.891489
9.87 -0.865899
9.88 -0.826483
9.89 -0.771458
9.9 -0.695085
9.91 -0.597281
9.92 -0.472268
9.93 -0.319094
9.94 -0.135802
9.95 0.0809684
9.96 0.327782
9.97 0.608549
9.98 0.916916
9.99 1.25162
10 1.60756
10.01 1.97816
10.02 2.35758
10.03 2.73723
10.04 3.10862
10.05 3.46331
10.06 3.79331
10.07 4.08788
10.08 4.34414
10.09 4.54873
10.1 4.70294
10.11 4.79966
10.12 4.83684
10.13 4.81806
10.14 4.73732
10.15 4.60619
10.16 4.42319
10.17 4.19802
10.18 3.93718
10.19 3.64705
10.2 3.33835
10.21 3.01731
10.22 2.69353
10.23 2.37402
10.24 2.06602
10.25 1.77388
10.26 1.5049
10.27 1.25895
10.28 1.04083
10.29 0.849439
10.3 0.684333
10.31 0.545589
10.32 0.42818
10.33 0.332281
10.34 0.25187
10.35 0.184663
10.36 0.12685
10.37 0.0748599
10.38 0.0261394
10.39 -0.0221218
10.4 -0.0718391
10.41 -0.124342
10.42 -0.18037
10.43 -0.240461
10.44 -0.30399
10.45 -0.370872
10.46 -0.439829
10.47 -0.510003
10.48 -0.580163
10.49 -0.64929
10.5 -0.716016
10.51 -0.77977
10.52 -0.839369
10.53 -0.894426
10.54 -0.944515
10.55 -0.988955
10.56 -1.0282
10.57 -1.06132
10.58 -1.08901
10.59 -1.1109
10.6 -1.12696
10.61 -1.13757
10.62 -1.14191
10.63 -1.14081
10.64 -1.13354
10.65 -1.12051
10.66 -1.10176
10.67 -1.07709
10.68 -1.0474
10.69 -1.01238
10.7 -0.973277
10.71 -0.930561
10.72 -0.885246
10.73 -0.838475
10.74 -0.791413
10.75 -0.745313
10.76 -0.701616
10.77 -0.661487
10.78 -0.626009
10.79 -0.596649
10.8 -0.573489
10.81 -0.558203
10.82 -0.550183
10.83 -0.550021
10.84 -0.557536
10.85 -0.571848
10.86 -0.593185
10.87 -0.619786
10.88 -0.651326
10.89 -0.686399
10.9 -0.723997
10.91 -0.763096
10.92 -0.802606
10.93 -0.841568
10.94 -0.879247
10.95 -0.914916
10.96 -0.948016
10.97 -0.978382
10.98 -1.00536
10.99 -1.02934
11 -1.04993
11.01 -1.06745
11.02 -1.08207
11.03 -1.09383
11.04 -1.1033
11.05 -1.11043
11.06 -1.11584
11.07 -1.11973
11.08 -1.12247
11.09 -1.12447
11.1 -1.12603
11.11 -1.12752
11.12 -1.12925
11.13 -1.13147
11.14 -1.13432
11.15 -1.13789
11.16 -1.14201
11.17 -1.1464
11.18 -1.1505
11.19 -1.15351
11.2 -1.15426
11.21 -1.15169
11.22 -1.14347
11.23 -1.12862
11.24 -1.10423
11.25 -1.06863
11.26 -1.01986
11.27 -0.954653
11.28 -0.873161
11.29 -0.771079
11.3 -0.649829
11.31 -0.507621
11.32 -0.344583
11.33 -0.162915
11.34 0.0381263
11.35 0.25347
11.36 0.481574
11.37 0.717513
11.38 0.957068
11.39 1.1949
11.4 1.42639
11.41 1.64457
11.42 1.84575
11.43 2.02403
11.44 2.17453
11.45 2.29574
11.46 2.3802
11.47 2.43119
11.48 2.44374
11.49 2.42046
11.5 2.36269
11.51 2.27059
11.52 2.15099
11.53 2.00392
11.54 1.83732
11.55 1.65465
11.56 1.46145
11.57 1.26302
11.58 1.06417
11.59 0.869189
11.6 0.682454
11.61 0.506759
11.62 0.34426
11.63 0.197638
11.64 0.065797
11.65 -0.0489168
11.66 -0.149256
11.67 -0.235464
11.68 -0.309317
11.69 -0.373423
11.7 -0.428783
11.71 -0.47862
11.72 -0.524241
11.73 -0.567683
11.74 -0.610208
11.75 -0.652817
11.76 -0.69597
11.77 -0.739826
11.78 -0.783934
11.79 -0.827589
11.8 -0.869628
11.81 -0.908985
11.82 -0.943579
11.83 -0.972584
11.84 -0.99373
11.85 -1.00595
11.86 -1.00807
11.87 -0.998108
11.88 -0.976663
11.89 -0.941285
11.9 -0.893384
11.91 -0.832191
11.92 -0.758051
11.93 -0.672454
11.94 -0.574824
11.95 -0.46801
11.96 -0.352361
11.97 -0.230154
11.98 -0.103125
11.99 0.0268306
12 0.157449
12.01 0.2864
12.02 0.411619
12.03 0.530707
12.04 0.64125
12.05 0.741968
12.06 0.829228
12.07 0.903284
12.08 0.961077
12.09 1.00243
12.1 1.02678
12.11 1.03257
12.12 1.02205
12.13 0.99334
12.14 0.949693
12.15 0.891586
12.16 0.820998
12.17 0.740766
12.18 0.652253
12.19 0.559067
12.2 0.463256
12.21 0.367594
12.22 0.274215
12.23 0.185552
12.24 0.10258
12.25 0.0275419
12.26 -0.0397644
12.27 -0.098608
12.28 -0.149202
12.29 -0.192729
12.3 -0.229358
12.31 -0.261346
12.32 -0.289678
12.33 -0.316248
12.34 -0.342495
12.35 -0.369949
12.36 -0.399492
12.37 -0.432292
12.38 -0.468297
12.39 -0.507587
12.4 -0.549533
