# xPDFsuite Configuration #
[PDF]
wavelength = 0.1432
dataformat = twotheta
inputfile = 1_1Pd_CeO2_cycle-00388.chi
backgroundfile = background-00000.chi
mode = xray
bgscale = 1.007
composition = CeO2
outputtype = gr
qmaxinst = 28.8974762299
qmin = 0.5
qmax = 27.9
rmax = 50.0
rmin = 0.0
rstep = 0.01
rpoly = 1.8657

[Misc]
inputdir = G:/SankarDec16/1Pd/Chi
savedir = D:/DATA/APS_CeO2/1Pd
backgroundfilefull = G:/SankarDec16/Background/background-00000.chi

#### start data
#S 1
#L r($\AA$)  G($\AA^{-2}$)
0 0
0.01 -0.00552532
0.02 -0.0106348
0.03 -0.0149004
0.04 -0.0179994
0.05 -0.0197523
0.06 -0.0198702
0.07 -0.018545
0.08 -0.0156835
0.09 -0.0116519
0.1 -0.0067035
0.11 -0.00122631
0.12 0.00435603
0.13 0.00956881
0.14 0.0140746
0.15 0.0174611
0.16 0.019486
0.17 0.020052
0.18 0.0189614
0.19 0.0164957
0.2 0.0126645
0.21 0.00789475
0.22 0.00250129
0.23 -0.00308047
0.24 -0.00845141
0.25 -0.0131002
0.26 -0.0167836
0.27 -0.0191245
0.28 -0.0199725
0.29 -0.0193172
0.3 -0.0170613
0.31 -0.013563
0.32 -0.00893452
0.33 -0.00364331
0.34 0.00194886
0.35 0.00737934
0.36 0.0122925
0.37 0.0161644
0.38 0.0188573
0.39 0.0200476
0.4 0.0196834
0.41 0.0178423
0.42 0.0145322
0.43 0.0101712
0.44 0.00496876
0.45 -0.000588539
0.46 -0.00610934
0.47 -0.0111252
0.48 -0.0153408
0.49 -0.0182447
0.5 -0.0198111
0.51 -0.0197851
0.52 -0.0182164
0.53 -0.015267
0.54 -0.0110499
0.55 -0.00602368
0.56 -0.000485438
0.57 0.00508193
0.58 0.010276
0.59 0.0146444
0.6 0.0179665
0.61 0.0197671
0.62 0.0201341
0.63 0.0188936
0.64 0.016195
0.65 0.0122769
0.66 0.00735294
0.67 0.00190035
0.68 -0.00370986
0.69 -0.00902092
0.7 -0.0136385
0.71 -0.017147
0.72 -0.0194113
0.73 -0.0200144
0.74 -0.0191538
0.75 -0.0167443
0.76 -0.0130273
0.77 -0.00830639
0.78 -0.00288446
0.79 0.00276534
0.8 0.00821778
0.81 0.0130641
0.82 0.0169382
0.83 0.0194824
0.84 0.0206528
0.85 0.020113
0.86 0.0181581
0.87 0.0147957
0.88 0.0103452
0.89 0.00515769
0.9 -0.000393998
0.91 -0.00586877
0.92 -0.0108164
0.93 -0.0149033
0.94 -0.0178195
0.95 -0.019296
0.96 -0.0193889
0.97 -0.0178821
0.98 -0.0151557
0.99 -0.0113292
1 -0.00679354
1.01 -0.00193362
1.02 0.0028073
1.03 0.00705663
1.04 0.0103487
1.05 0.0124616
1.06 0.0131685
1.07 0.0123232
1.08 0.0101125
1.09 0.00648695
1.1 0.00193705
1.11 -0.00325723
1.12 -0.00859468
1.13 -0.0136255
1.14 -0.0177633
1.15 -0.0206998
1.16 -0.0218652
1.17 -0.0211387
1.18 -0.0183255
1.19 -0.0133443
1.2 -0.00653474
1.21 0.0020961
1.22 0.0118685
1.23 0.0223895
1.24 0.0330057
1.25 0.0431438
1.26 0.0520484
1.27 0.0593367
1.28 0.0642564
1.29 0.0666278
1.3 0.0661427
1.31 0.0625889
1.32 0.0563218
1.33 0.047109
1.34 0.0357357
1.35 0.0224442
1.36 0.00788737
1.37 -0.00732749
1.38 -0.0225511
1.39 -0.0372016
1.4 -0.0505897
1.41 -0.0623146
1.42 -0.0719462
1.43 -0.0790793
1.44 -0.0838006
1.45 -0.0856137
1.46 -0.0849958
1.47 -0.0818414
1.48 -0.0764593
1.49 -0.0691902
1.5 -0.060193
1.51 -0.0500055
1.52 -0.0388245
1.53 -0.027081
1.54 -0.0150518
1.55 -0.00304286
1.56 0.00871706
1.57 0.0199155
1.58 0.0304261
1.59 0.0399868
1.6 0.0484242
1.61 0.055618
1.62 0.061235
1.63 0.0653186
1.64 0.0674887
1.65 0.0677752
1.66 0.0660225
1.67 0.0620801
1.68 0.0561547
1.69 0.0479615
1.7 0.0379644
1.71 0.0261904
1.72 0.0130024
1.73 -0.00120967
1.74 -0.0160673
1.75 -0.0310406
1.76 -0.0456155
1.77 -0.0593162
1.78 -0.0716818
1.79 -0.0822179
1.8 -0.090828
1.81 -0.0969472
1.82 -0.100876
1.83 -0.102467
1.84 -0.102006
1.85 -0.099878
1.86 -0.0964034
1.87 -0.0922433
1.88 -0.0879022
1.89 -0.0839846
1.9 -0.0810051
1.91 -0.0795056
1.92 -0.0796461
1.93 -0.0819427
1.94 -0.086111
1.95 -0.0921978
1.96 -0.0998175
1.97 -0.108483
1.98 -0.117628
1.99 -0.126538
2 -0.134385
2.01 -0.140481
2.02 -0.144103
2.03 -0.144452
2.04 -0.141399
2.05 -0.13394
2.06 -0.122542
2.07 -0.106814
2.08 -0.0870513
2.09 -0.0637073
2.1 -0.0368914
2.11 -0.00754367
2.12 0.0240852
2.13 0.0572114
2.14 0.0913878
2.15 0.126174
2.16 0.161216
2.17 0.196328
2.18 0.231427
2.19 0.266549
2.2 0.301828
2.21 0.337413
2.22 0.373536
2.23 0.410244
2.24 0.447643
2.25 0.485541
2.26 0.52366
2.27 0.561433
2.28 0.598237
2.29 0.632821
2.3 0.664397
2.31 0.691441
2.32 0.712654
2.33 0.727083
2.34 0.732603
2.35 0.729395
2.36 0.715452
2.37 0.691288
2.38 0.656614
2.39 0.611458
2.4 0.557624
2.41 0.495055
2.42 0.426651
2.43 0.353758
2.44 0.278815
2.45 0.203975
2.46 0.131814
2.47 0.0639746
2.48 0.00301777
2.49 -0.0501124
2.5 -0.0942242
2.51 -0.128339
2.52 -0.153435
2.53 -0.168519
2.54 -0.176026
2.55 -0.176598
2.56 -0.172258
2.57 -0.164964
2.58 -0.156658
2.59 -0.149288
2.6 -0.144827
2.61 -0.144511
2.62 -0.149426
2.63 -0.160436
2.64 -0.177016
2.65 -0.199682
2.66 -0.226712
2.67 -0.257321
2.68 -0.289803
2.69 -0.322559
2.7 -0.353679
2.71 -0.381866
2.72 -0.405253
2.73 -0.423169
2.74 -0.434871
2.75 -0.439902
2.76 -0.439193
2.77 -0.432615
2.78 -0.422169
2.79 -0.408934
2.8 -0.394789
2.81 -0.381379
2.82 -0.37073
2.83 -0.363908
2.84 -0.362711
2.85 -0.367472
2.86 -0.378633
2.87 -0.396252
2.88 -0.41906
2.89 -0.446637
2.9 -0.476776
2.91 -0.507955
2.92 -0.538067
2.93 -0.5654
2.94 -0.587625
2.95 -0.604015
2.96 -0.612653
2.97 -0.613633
2.98 -0.606775
2.99 -0.59238
3 -0.572198
3.01 -0.547032
3.02 -0.519517
3.03 -0.491545
3.04 -0.465517
3.05 -0.443288
3.06 -0.427416
3.07 -0.418457
3.08 -0.418359
3.09 -0.426723
3.1 -0.443486
3.11 -0.468015
3.12 -0.498226
3.13 -0.532918
3.14 -0.569245
3.15 -0.60504
3.16 -0.637803
3.17 -0.665733
3.18 -0.686307
3.19 -0.699351
3.2 -0.703252
3.21 -0.69895
3.22 -0.687061
3.23 -0.668951
3.24 -0.647114
3.25 -0.623772
3.26 -0.601855
3.27 -0.584206
3.28 -0.5735
3.29 -0.571423
3.3 -0.580775
3.31 -0.60088
3.32 -0.633224
3.33 -0.675875
3.34 -0.727463
3.35 -0.785642
3.36 -0.846995
3.37 -0.908101
3.38 -0.9654
3.39 -1.01508
3.4 -1.05393
3.41 -1.0801
3.42 -1.09023
3.43 -1.08573
3.44 -1.06505
3.45 -1.03111
3.46 -0.98602
3.47 -0.933089
3.48 -0.876765
3.49 -0.82153
3.5 -0.771636
3.51 -0.731587
3.52 -0.704804
3.53 -0.692822
3.54 -0.698455
3.55 -0.718845
3.56 -0.753568
3.57 -0.797228
3.58 -0.844697
3.59 -0.888271
3.6 -0.921009
3.61 -0.930886
3.62 -0.912127
3.63 -0.85344
3.64 -0.74715
3.65 -0.589421
3.66 -0.368997
3.67 -0.0918135
3.68 0.249576
3.69 0.646601
3.7 1.09494
3.71 1.58729
3.72 2.10923
3.73 2.65079
3.74 3.19454
3.75 3.72526
3.76 4.22596
3.77 4.68376
3.78 5.0771
3.79 5.40232
3.8 5.63915
3.81 5.78706
3.82 5.83991
3.83 5.79207
3.84 5.65578
3.85 5.42199
3.86 5.11285
3.87 4.73206
3.88 4.29505
3.89 3.81745
3.9 3.31175
3.91 2.79597
3.92 2.28415
3.93 1.78995
3.94 1.32488
3.95 0.901112
3.96 0.521099
3.97 0.197938
3.98 -0.0741052
3.99 -0.290415
4 -0.454628
4.01 -0.572943
4.02 -0.646496
4.03 -0.687517
4.04 -0.699358
4.05 -0.692248
4.06 -0.672616
4.07 -0.647259
4.08 -0.621888
4.09 -0.60168
4.1 -0.589116
4.11 -0.586759
4.12 -0.595094
4.13 -0.613161
4.14 -0.640394
4.15 -0.673457
4.16 -0.710215
4.17 -0.747214
4.18 -0.781598
4.19 -0.81009
4.2 -0.831098
4.21 -0.841161
4.22 -0.840546
4.23 -0.827657
4.24 -0.802735
4.25 -0.766855
4.26 -0.719921
4.27 -0.664707
4.28 -0.60181
4.29 -0.533651
4.3 -0.461715
4.31 -0.387555
4.32 -0.312603
4.33 -0.23794
4.34 -0.164293
4.35 -0.0922377
4.36 -0.0220261
4.37 0.0463529
4.38 0.112705
4.39 0.177336
4.4 0.240001
4.41 0.300715
4.42 0.359142
4.43 0.414585
4.44 0.466685
4.45 0.513789
4.46 0.555492
4.47 0.590115
4.48 0.616458
4.49 0.633842
4.5 0.640033
4.51 0.635746
4.52 0.619055
4.53 0.59084
4.54 0.551128
4.55 0.500121
4.56 0.439928
4.57 0.370584
4.58 0.295047
4.59 0.21461
4.6 0.131531
4.61 0.0477786
4.62 -0.034511
4.63 -0.113856
4.64 -0.188263
4.65 -0.256877
4.66 -0.318779
4.67 -0.373092
4.68 -0.420474
4.69 -0.459969
4.7 -0.493163
4.71 -0.520193
4.72 -0.542123
4.73 -0.56008
4.74 -0.574722
4.75 -0.587375
4.76 -0.598654
4.77 -0.609394
4.78 -0.620078
4.79 -0.631088
4.8 -0.642542
4.81 -0.654524
4.82 -0.666836
4.83 -0.67929
4.84 -0.691586
4.85 -0.703466
4.86 -0.714568
4.87 -0.724785
4.88 -0.733842
4.89 -0.741765
4.9 -0.748553
4.91 -0.75426
4.92 -0.759145
4.93 -0.763303
4.94 -0.767061
4.95 -0.770602
4.96 -0.774147
4.97 -0.77784
4.98 -0.781827
4.99 -0.786123
5 -0.790778
5.01 -0.795731
5.02 -0.800935
5.03 -0.806336
5.04 -0.811866
5.05 -0.817519
5.06 -0.823283
5.07 -0.829209
5.08 -0.835367
5.09 -0.841814
5.1 -0.848654
5.11 -0.855839
5.12 -0.863331
5.13 -0.870882
5.14 -0.878134
5.15 -0.884424
5.16 -0.889134
5.17 -0.890826
5.18 -0.888678
5.19 -0.880952
5.2 -0.866051
5.21 -0.84285
5.22 -0.80851
5.23 -0.76309
5.24 -0.703792
5.25 -0.630755
5.26 -0.543285
5.27 -0.440703
5.28 -0.32514
5.29 -0.195829
5.3 -0.0565748
5.31 0.0910129
5.32 0.243434
5.33 0.397191
5.34 0.547943
5.35 0.692154
5.36 0.824567
5.37 0.941904
5.38 1.04042
5.39 1.11558
5.4 1.16748
5.41 1.19015
5.42 1.18671
5.43 1.15488
5.44 1.09615
5.45 1.01356
5.46 0.90724
5.47 0.783548
5.48 0.644297
5.49 0.495213
5.5 0.34037
5.51 0.184498
5.52 0.0315854
5.53 -0.11341
5.54 -0.248199
5.55 -0.369223
5.56 -0.474521
5.57 -0.563744
5.58 -0.634367
5.59 -0.689073
5.6 -0.726665
5.61 -0.74995
5.62 -0.760397
5.63 -0.75965
5.64 -0.750839
5.65 -0.735022
5.66 -0.715121
5.67 -0.692431
5.68 -0.66846
5.69 -0.644145
5.7 -0.620074
5.71 -0.596361
5.72 -0.572855
5.73 -0.549056
5.74 -0.524351
5.75 -0.497878
5.76 -0.469177
5.77 -0.437193
5.78 -0.401984
5.79 -0.363152
5.8 -0.320959
5.81 -0.27605
5.82 -0.22906
5.83 -0.181349
5.84 -0.134265
5.85 -0.0893614
5.86 -0.0481827
5.87 -0.0126917
5.88 0.0163813
5.89 0.0365247
5.9 0.0479822
5.91 0.0493882
5.92 0.0406083
5.93 0.0222784
5.94 -0.00620932
5.95 -0.0427052
5.96 -0.0870863
5.97 -0.137337
5.98 -0.192149
5.99 -0.250044
6 -0.309335
6.01 -0.368668
6.02 -0.426815
6.03 -0.482696
6.04 -0.535524
6.05 -0.585006
6.06 -0.630446
6.07 -0.672364
6.08 -0.71047
6.09 -0.745373
6.1 -0.777383
6.11 -0.806798
6.12 -0.834228
6.13 -0.859683
6.14 -0.883629
6.15 -0.906017
6.16 -0.926835
6.17 -0.946049
6.18 -0.963233
6.19 -0.978439
6.2 -0.991187
6.21 -1.00151
6.22 -1.00933
6.23 -1.0146
6.24 -1.01782
6.25 -1.01907
6.26 -1.01913
6.27 -1.01849
6.28 -1.01784
6.29 -1.01768
6.3 -1.01856
6.31 -1.02052
6.32 -1.02352
6.33 -1.02686
6.34 -1.02955
6.35 -1.02974
6.36 -1.02575
6.37 -1.01383
6.38 -0.991913
6.39 -0.955705
6.4 -0.901347
6.41 -0.826352
6.42 -0.723952
6.43 -0.594667
6.44 -0.432113
6.45 -0.236801
6.46 -0.00740118
6.47 0.257704
6.48 0.553435
6.49 0.881753
6.5 1.23411
6.51 1.60719
6.52 1.99352
6.53 2.38544
6.54 2.77398
6.55 3.15107
6.56 3.50565
6.57 3.83004
6.58 4.11585
6.59 4.3524
6.6 4.53895
6.61 4.66128
6.62 4.72448
6.63 4.72189
6.64 4.65441
6.65 4.52723
6.66 4.33706
6.67 4.09736
6.68 3.80867
6.69 3.48293
6.7 3.12785
6.71 2.75216
6.72 2.36655
6.73 1.97979
6.74 1.60071
6.75 1.23763
6.76 0.897751
6.77 0.584938
6.78 0.307488
6.79 0.0633617
6.8 -0.141595
6.81 -0.310234
6.82 -0.443187
6.83 -0.540936
6.84 -0.609964
6.85 -0.649623
6.86 -0.6679
6.87 -0.667144
6.88 -0.652125
6.89 -0.627225
6.9 -0.595309
6.91 -0.560269
6.92 -0.524351
6.93 -0.489673
6.94 -0.457557
6.95 -0.429124
6.96 -0.404369
6.97 -0.383984
6.98 -0.367199
6.99 -0.353988
7 -0.343903
7.01 -0.336469
7.02 -0.331761
7.03 -0.329347
7.04 -0.329631
7.05 -0.332691
7.06 -0.33894
7.07 -0.34911
7.08 -0.363262
7.09 -0.382611
7.1 -0.406849
7.11 -0.436584
7.12 -0.471744
7.13 -0.511793
7.14 -0.556738
7.15 -0.605153
7.16 -0.6564
7.17 -0.708974
7.18 -0.761612
7.19 -0.812736
7.2 -0.861256
7.21 -0.905318
7.22 -0.944452
7.23 -0.977484
7.24 -1.00396
7.25 -1.0241
7.26 -1.03733
7.27 -1.04508
7.28 -1.04746
7.29 -1.04594
7.3 -1.04153
7.31 -1.03537
7.32 -1.02866
7.33 -1.02233
7.34 -1.01702
7.35 -1.0131
7.36 -1.01052
7.37 -1.00876
7.38 -1.00693
7.39 -1.00381
7.4 -0.997572
7.41 -0.986501
7.42 -0.968684
7.43 -0.94148
7.44 -0.904156
7.45 -0.853134
7.46 -0.788892
7.47 -0.709515
7.48 -0.614795
7.49 -0.505828
7.5 -0.381799
7.51 -0.246187
7.52 -0.0996844
7.53 0.0541562
7.54 0.212534
7.55 0.371921
7.56 0.528967
7.57 0.679201
7.58 0.819983
7.59 0.947344
7.6 1.05821
7.61 1.15124
7.62 1.22189
7.63 1.27189
7.64 1.29781
7.65 1.30133
7.66 1.28272
7.67 1.24197
7.68 1.18293
7.69 1.10491
7.7 1.01283
7.71 0.908168
7.72 0.794146
7.73 0.673946
7.74 0.550113
7.75 0.42584
7.76 0.303861
7.77 0.18661
7.78 0.0762247
7.79 -0.0247003
7.8 -0.115675
7.81 -0.193548
7.82 -0.259034
7.83 -0.310507
7.84 -0.347746
7.85 -0.371585
7.86 -0.380699
7.87 -0.377747
7.88 -0.362238
7.89 -0.33647
7.9 -0.301867
7.91 -0.260002
7.92 -0.213535
7.93 -0.164213
7.94 -0.114733
7.95 -0.06735
7.96 -0.0245208
7.97 0.0120802
7.98 0.0394457
7.99 0.0572926
8 0.0631139
8.01 0.0569332
8.02 0.0383471
8.03 0.00681377
8.04 -0.035674
8.05 -0.0896508
8.06 -0.152063
8.07 -0.221732
8.08 -0.296268
8.09 -0.373316
8.1 -0.45055
8.11 -0.525827
8.12 -0.596808
8.13 -0.662026
8.14 -0.720223
8.15 -0.770044
8.16 -0.812077
8.17 -0.845206
8.18 -0.871202
8.19 -0.890484
8.2 -0.904515
8.21 -0.914941
8.22 -0.923033
8.23 -0.93046
8.24 -0.938354
8.25 -0.947509
8.26 -0.958217
8.27 -0.97026
8.28 -0.982677
8.29 -0.993793
8.3 -1.00161
8.31 -1.00326
8.32 -0.995429
8.33 -0.975626
8.34 -0.938341
8.35 -0.882789
8.36 -0.803542
8.37 -0.699724
8.38 -0.569569
8.39 -0.410591
8.4 -0.226094
8.41 -0.0133636
8.42 0.221479
8.43 0.476684
8.44 0.747126
8.45 1.02696
8.46 1.31033
8.47 1.5904
8.48 1.85958
8.49 2.11142
8.5 2.33965
8.51 2.53609
8.52 2.69941
8.53 2.81943
8.54 2.89867
8.55 2.93226
8.56 2.92
8.57 2.86541
8.58 2.76531
8.59 2.62906
8.6 2.45653
8.61 2.25563
8.62 2.03157
8.63 1.7898
8.64 1.53793
8.65 1.28121
8.66 1.02612
8.67 0.777941
8.68 0.541704
8.69 0.320218
8.7 0.118926
8.71 -0.062889
8.72 -0.221455
8.73 -0.35797
8.74 -0.472654
8.75 -0.565339
8.76 -0.639865
8.77 -0.695526
8.78 -0.737063
8.79 -0.765789
8.8 -0.7845
8.81 -0.795998
8.82 -0.801916
8.83 -0.804954
8.84 -0.806546
8.85 -0.808288
8.86 -0.811217
8.87 -0.816293
8.88 -0.823739
8.89 -0.834208
8.9 -0.847325
8.91 -0.863131
8.92 -0.881286
8.93 -0.901299
8.94 -0.922911
8.95 -0.945465
8.96 -0.968614
8.97 -0.991868
8.98 -1.01487
8.99 -1.03721
9 -1.0587
9.01 -1.07891
9.02 -1.09778
9.03 -1.11502
9.04 -1.13044
9.05 -1.144
9.06 -1.15522
9.07 -1.16425
9.08 -1.17057
9.09 -1.17412
9.1 -1.17464
9.11 -1.17162
9.12 -1.16516
9.13 -1.15435
9.14 -1.13943
9.15 -1.11979
9.16 -1.09518
9.17 -1.06568
9.18 -1.03049
9.19 -0.990303
9.2 -0.944553
9.21 -0.8938
9.22 -0.838321
9.23 -0.778354
9.24 -0.71497
9.25 -0.648511
9.26 -0.580332
9.27 -0.511373
9.28 -0.442961
9.29 -0.376237
9.3 -0.312975
9.31 -0.253984
9.32 -0.201141
9.33 -0.155271
9.34 -0.11736
9.35 -0.0888265
9.36 -0.0691574
9.37 -0.0601035
9.38 -0.0602784
9.39 -0.0700165
9.4 -0.0885424
9.41 -0.114437
9.42 -0.147289
9.43 -0.184767
9.44 -0.225818
9.45 -0.268456
9.46 -0.311135
9.47 -0.352079
9.48 -0.390171
9.49 -0.423586
9.5 -0.451975
9.51 -0.474364
9.52 -0.490464
9.53 -0.500718
9.54 -0.50477
9.55 -0.504128
9.56 -0.499162
9.57 -0.491339
9.58 -0.481801
9.59 -0.471873
9.6 -0.462728
9.61 -0.45577
9.62 -0.451699
9.63 -0.451464
9.64 -0.455616
9.65 -0.464122
9.66 -0.477592
9.67 -0.495132
9.68 -0.516829
9.69 -0.541813
9.7 -0.569478
9.71 -0.599209
9.72 -0.630148
9.73 -0.66177
9.74 -0.693424
9.75 -0.724662
9.76 -0.75507
9.77 -0.78442
9.78 -0.812236
9.79 -0.838428
9.8 -0.862371
9.81 -0.883613
9.82 -0.901402
9.83 -0.914288
9.84 -0.921514
9.85 -0.920167
9.86 -0.909161
9.87 -0.8854
9.88 -0.845941
9.89 -0.789162
9.9 -0.709311
9.91 -0.606854
9.92 -0.476312
9.93 -0.317328
9.94 -0.128458
9.95 0.0930269
9.96 0.343323
9.97 0.625668
9.98 0.933641
9.99 1.26568
10 1.61669
10.01 1.98039
10.02 2.35103
10.03 2.72074
10.04 3.08147
10.05 3.4255
10.06 3.74551
10.07 4.03153
10.08 4.28107
10.09 4.48164
10.1 4.63454
10.11 4.73305
10.12 4.7751
10.13 4.76394
10.14 4.69348
10.15 4.57446
10.16 4.40495
10.17 4.19378
10.18 3.94673
10.19 3.66935
10.2 3.37182
10.21 3.05947
10.22 2.74177
10.23 2.4253
10.24 2.11722
10.25 1.8222
10.26 1.5475
10.27 1.29382
10.28 1.06635
10.29 0.864813
10.3 0.689437
10.31 0.541097
10.32 0.415296
10.33 0.31302
10.34 0.228417
10.35 0.159594
10.36 0.102815
10.37 0.0542331
10.38 0.0112955
10.39 -0.0295571
10.4 -0.0706086
10.41 -0.113934
10.42 -0.160888
10.43 -0.212738
10.44 -0.2693
10.45 -0.331226
10.46 -0.397331
10.47 -0.467078
10.48 -0.539246
10.49 -0.612514
10.5 -0.68545
10.51 -0.756762
10.52 -0.824874
10.53 -0.888698
10.54 -0.947228
10.55 -0.999096
10.56 -1.0444
10.57 -1.08152
10.58 -1.11115
10.59 -1.13265
10.6 -1.14607
10.61 -1.15211
10.62 -1.1501
10.63 -1.14158
10.64 -1.12627
10.65 -1.10524
10.66 -1.07912
10.67 -1.04837
10.68 -1.01422
10.69 -0.977016
10.7 -0.937969
10.71 -0.897767
10.72 -0.857336
10.73 -0.817446
10.74 -0.779106
10.75 -0.742839
10.76 -0.709632
10.77 -0.679958
10.78 -0.654326
10.79 -0.633507
10.8 -0.61727
10.81 -0.606587
10.82 -0.60087
10.83 -0.600438
10.84 -0.605146
10.85 -0.614443
10.86 -0.628606
10.87 -0.646579
10.88 -0.668375
10.89 -0.693237
10.9 -0.720684
10.91 -0.750303
10.92 -0.781374
10.93 -0.813555
10.94 -0.846208
10.95 -0.878906
10.96 -0.911152
10.97 -0.94259
10.98 -0.972643
10.99 -1.00115
11 -1.02758
11.01 -1.05174
11.02 -1.07342
11.03 -1.09224
11.04 -1.1084
11.05 -1.12144
11.06 -1.13178
11.07 -1.13937
11.08 -1.14446
11.09 -1.14748
11.1 -1.14857
11.11 -1.14841
11.12 -1.14731
11.13 -1.14576
11.14 -1.1441
11.15 -1.14262
11.16 -1.14138
11.17 -1.1403
11.18 -1.13901
11.19 -1.1369
11.2 -1.13294
11.21 -1.12618
11.22 -1.11449
11.23 -1.09688
11.24 -1.07062
11.25 -1.03408
11.26 -0.985339
11.27 -0.921297
11.28 -0.842007
11.29 -0.743364
11.3 -0.626639
11.31 -0.490088
11.32 -0.333762
11.33 -0.159683
11.34 0.032959
11.35 0.239417
11.36 0.458361
11.37 0.685212
11.38 0.916066
11.39 1.14601
11.4 1.37067
11.41 1.58361
11.42 1.78125
11.43 1.95803
11.44 2.10923
11.45 2.23328
11.46 2.32293
11.47 2.38102
11.48 2.40253
11.49 2.3896
11.5 2.34312
11.51 2.2628
11.52 2.1549
11.53 2.01885
11.54 1.86216
11.55 1.68777
11.56 1.50083
11.57 1.30652
11.58 1.1092
11.59 0.913509
11.6 0.723699
11.61 0.542986
11.62 0.373885
11.63 0.219493
11.64 0.0793341
11.65 -0.0437055
11.66 -0.151814
11.67 -0.244699
11.68 -0.323649
11.69 -0.391067
11.7 -0.447443
11.71 -0.496242
11.72 -0.538578
11.73 -0.576826
11.74 -0.612552
11.75 -0.647114
11.76 -0.681564
11.77 -0.716557
11.78 -0.75221
11.79 -0.788351
11.8 -0.824325
11.81 -0.859306
11.82 -0.891765
11.83 -0.920702
11.84 -0.944119
11.85 -0.960692
11.86 -0.969019
11.87 -0.966906
11.88 -0.954389
11.89 -0.9287
11.9 -0.890691
11.91 -0.839171
11.92 -0.774036
11.93 -0.696506
11.94 -0.605563
11.95 -0.504078
11.96 -0.392154
11.97 -0.272179
11.98 -0.145984
11.99 -0.0155488
12 0.116517
12.01 0.247767
12.02 0.375783
12.03 0.497972
12.04 0.6117
12.05 0.715539
12.06 0.805729
12.07 0.88251
12.08 0.942805
12.09 0.986518
12.1 1.01316
12.11 1.0213
12.12 1.01328
12.13 0.987349
12.14 0.946792
12.15 0.892123
12.16 0.825289
12.17 0.749026
12.18 0.66457
12.19 0.575341
12.2 0.483155
12.21 0.39057
12.22 0.299514
12.23 0.212147
12.24 0.129422
12.25 0.053317
12.26 -0.0162285
12.27 -0.0784942
12.28 -0.133537
12.29 -0.182262
12.3 -0.224617
12.31 -0.262459
12.32 -0.296418
12.33 -0.328017
12.34 -0.358388
12.35 -0.388672
12.36 -0.419704
12.37 -0.452308
12.38 -0.486616
12.39 -0.522702
12.4 -0.560141
