# xPDFsuite Configuration #
[PDF]
wavelength = 0.1432
dataformat = twotheta
inputfile = 1_1Pd_CeO2_cycle-00376.chi
backgroundfile = background-00000.chi
mode = xray
bgscale = 1.007
composition = CeO2
outputtype = gr
qmaxinst = 28.8974762299
qmin = 0.5
qmax = 27.9
rmax = 50.0
rmin = 0.0
rstep = 0.01
rpoly = 1.8657

[Misc]
inputdir = G:/SankarDec16/1Pd/Chi
savedir = D:/DATA/APS_CeO2/1Pd
backgroundfilefull = G:/SankarDec16/Background/background-00000.chi

#### start data
#S 1
#L r($\AA$)  G($\AA^{-2}$)
0 0
0.01 -0.0049546
0.02 -0.00953706
0.03 -0.0133641
0.04 -0.0161468
0.05 -0.0177243
0.06 -0.0178373
0.07 -0.0166572
0.08 -0.0140995
0.09 -0.0104916
0.1 -0.00605948
0.11 -0.00114965
0.12 0.00385845
0.13 0.00854055
0.14 0.0125935
0.15 0.0156475
0.16 0.0174844
0.17 0.0180156
0.18 0.0170618
0.19 0.0148736
0.2 0.011457
0.21 0.00719318
0.22 0.00236258
0.23 -0.00264603
0.24 -0.0074744
0.25 -0.0116654
0.26 -0.0149983
0.27 -0.0171342
0.28 -0.017935
0.29 -0.0173888
0.3 -0.0154046
0.31 -0.0123008
0.32 -0.00817381
0.33 -0.00344126
0.34 0.00157451
0.35 0.00645995
0.36 0.0108943
0.37 0.0144085
0.38 0.0168743
0.39 0.0179989
0.4 0.017731
0.41 0.0161361
0.42 0.0132156
0.43 0.0093415
0.44 0.0046965
0.45 -0.000284073
0.46 -0.00525081
0.47 -0.00978383
0.48 -0.0136148
0.49 -0.0162839
0.5 -0.0177613
0.51 -0.0178141
0.52 -0.0164803
0.53 -0.0138999
0.54 -0.0101672
0.55 -0.00569111
0.56 -0.000732242
0.57 0.00427572
0.58 0.00897235
0.59 0.0129503
0.6 0.016006
0.61 0.01771
0.62 0.0181328
0.63 0.0171117
0.64 0.0147729
0.65 0.0113247
0.66 0.00695064
0.67 0.00207796
0.68 -0.0029663
0.69 -0.00776954
0.7 -0.0119767
0.71 -0.0152109
0.72 -0.0173431
0.73 -0.017993
0.74 -0.017328
0.75 -0.0152631
0.76 -0.0120061
0.77 -0.00782416
0.78 -0.00298035
0.79 0.00209918
0.8 0.00703747
0.81 0.0114618
0.82 0.0150395
0.83 0.0174422
0.84 0.0186203
0.85 0.018261
0.86 0.0166188
0.87 0.0136886
0.88 0.00974781
0.89 0.00510592
0.9 8.80375e-05
0.91 -0.00490526
0.92 -0.00947431
0.93 -0.0133098
0.94 -0.016127
0.95 -0.0176735
0.96 -0.017986
0.97 -0.0168556
0.98 -0.0146098
0.99 -0.0113403
1 -0.00738534
1.01 -0.00308271
1.02 0.00118451
1.03 0.00507708
1.04 0.00818755
1.05 0.0103074
1.06 0.0112299
1.07 0.0108174
1.08 0.00922293
1.09 0.00639627
1.1 0.00275986
1.11 -0.00144531
1.12 -0.00578269
1.13 -0.00985887
1.14 -0.013161
1.15 -0.0154174
1.16 -0.0161302
1.17 -0.0151947
1.18 -0.0124441
1.19 -0.00781511
1.2 -0.00161237
1.21 0.00613744
1.22 0.0148295
1.23 0.0240947
1.24 0.0333406
1.25 0.0420498
1.26 0.0495258
1.27 0.0554375
1.28 0.0590931
1.29 0.060347
1.3 0.0589276
1.31 0.0546567
1.32 0.0478816
1.33 0.0384125
1.34 0.0269943
1.35 0.0138804
1.36 -0.000299803
1.37 -0.0149651
1.38 -0.0294734
1.39 -0.0432866
1.4 -0.055725
1.41 -0.0664237
1.42 -0.074974
1.43 -0.0809965
1.44 -0.0846035
1.45 -0.0853285
1.46 -0.0836716
1.47 -0.0795603
1.48 -0.0733321
1.49 -0.0653497
1.5 -0.0558178
1.51 -0.0452745
1.52 -0.0339618
1.53 -0.0223031
1.54 -0.0105837
1.55 0.0008919
1.56 0.0119365
1.57 0.0222467
1.58 0.0317705
1.59 0.0402965
1.6 0.0477298
1.61 0.0540204
1.62 0.0589376
1.63 0.0625717
1.64 0.0646506
1.65 0.065228
1.66 0.0641922
1.67 0.06142
1.68 0.0570578
1.69 0.0508357
1.7 0.043081
1.71 0.0337453
1.72 0.0230488
1.73 0.011247
1.74 -0.00146585
1.75 -0.014671
1.76 -0.0280602
1.77 -0.0412343
1.78 -0.0538409
1.79 -0.0654788
1.8 -0.0759787
1.81 -0.0848738
1.82 -0.0922511
1.83 -0.0978997
1.84 -0.101903
1.85 -0.104441
1.86 -0.105593
1.87 -0.105798
1.88 -0.105272
1.89 -0.104442
1.9 -0.103626
1.91 -0.103172
1.92 -0.103275
1.93 -0.104232
1.94 -0.105993
1.95 -0.108608
1.96 -0.111903
1.97 -0.115629
1.98 -0.119455
1.99 -0.122989
2 -0.125715
2.01 -0.127224
2.02 -0.127058
2.03 -0.124698
2.04 -0.120056
2.05 -0.112438
2.06 -0.102123
2.07 -0.088789
2.08 -0.0725583
2.09 -0.0536605
2.1 -0.0320191
2.11 -0.00820578
2.12 0.0178138
2.13 0.0455933
2.14 0.0749801
2.15 0.105856
2.16 0.137979
2.17 0.171515
2.18 0.206268
2.19 0.242405
2.2 0.279946
2.21 0.318866
2.22 0.359286
2.23 0.400896
2.24 0.443589
2.25 0.486837
2.26 0.53009
2.27 0.57248
2.28 0.613237
2.29 0.650795
2.3 0.684403
2.31 0.712402
2.32 0.733548
2.33 0.747008
2.34 0.750717
2.35 0.745135
2.36 0.728397
2.37 0.701281
2.38 0.663693
2.39 0.615876
2.4 0.559747
2.41 0.495438
2.42 0.425823
2.43 0.3523
2.44 0.277238
2.45 0.202676
2.46 0.131079
2.47 0.0638993
2.48 0.00352855
2.49 -0.0492555
2.5 -0.0934053
2.51 -0.128082
2.52 -0.154272
2.53 -0.17109
2.54 -0.180835
2.55 -0.184098
2.56 -0.182733
2.57 -0.178512
2.58 -0.173139
2.59 -0.168364
2.6 -0.165876
2.61 -0.166753
2.62 -0.171907
2.63 -0.182037
2.64 -0.196686
2.65 -0.21621
2.66 -0.239152
2.67 -0.264797
2.68 -0.291698
2.69 -0.318525
2.7 -0.343678
2.71 -0.36616
2.72 -0.384472
2.73 -0.398182
2.74 -0.406799
2.75 -0.410112
2.76 -0.409014
2.77 -0.403638
2.78 -0.395699
2.79 -0.386269
2.8 -0.376971
2.81 -0.369159
2.82 -0.364586
2.83 -0.363938
2.84 -0.368664
2.85 -0.378779
2.86 -0.394443
2.87 -0.415417
2.88 -0.4404
2.89 -0.468668
2.9 -0.498226
2.91 -0.52751
2.92 -0.554613
2.93 -0.578073
2.94 -0.595772
2.95 -0.607355
2.96 -0.611201
2.97 -0.607725
2.98 -0.59702
2.99 -0.579675
3 -0.557509
3.01 -0.531614
3.02 -0.504474
3.03 -0.478038
3.04 -0.454552
3.05 -0.435659
3.06 -0.423741
3.07 -0.419019
3.08 -0.423175
3.09 -0.435515
3.1 -0.455718
3.11 -0.482874
3.12 -0.514822
3.13 -0.550075
3.14 -0.585912
3.15 -0.620091
3.16 -0.650239
3.17 -0.674741
3.18 -0.691216
3.19 -0.699811
3.2 -0.69915
3.21 -0.690463
3.22 -0.674624
3.23 -0.653277
3.24 -0.629023
3.25 -0.604389
3.26 -0.582226
3.27 -0.565497
3.28 -0.556803
3.29 -0.557683
3.3 -0.570867
3.31 -0.595374
3.32 -0.63252
3.33 -0.680078
3.34 -0.73644
3.35 -0.79898
3.36 -0.864125
3.37 -0.928146
3.38 -0.987467
3.39 -1.03811
3.4 -1.07683
3.41 -1.10188
3.42 -1.10983
3.43 -1.10237
3.44 -1.07798
3.45 -1.03986
3.46 -0.990303
3.47 -0.932846
3.48 -0.872141
3.49 -0.81293
3.5 -0.759586
3.51 -0.716814
3.52 -0.688142
3.53 -0.675136
3.54 -0.680748
3.55 -0.701978
3.56 -0.738461
3.57 -0.78463
3.58 -0.835253
3.59 -0.882488
3.6 -0.919187
3.61 -0.933168
3.62 -0.918449
3.63 -0.863552
3.64 -0.760627
3.65 -0.605717
3.66 -0.387359
3.67 -0.111498
3.68 0.229482
3.69 0.626958
3.7 1.07661
3.71 1.57114
3.72 2.09595
3.73 2.64107
3.74 3.18882
3.75 3.72389
3.76 4.22908
3.77 4.69136
3.78 5.08896
3.79 5.41809
3.8 5.65829
3.81 5.80895
3.82 5.8638
3.83 5.81715
3.84 5.68127
3.85 5.44701
3.86 5.13667
3.87 4.75394
3.88 4.31442
3.89 3.83384
3.9 3.32481
3.91 2.80552
3.92 2.29016
3.93 1.79251
3.94 1.32421
3.95 0.897541
3.96 0.514998
3.97 0.189789
3.98 -0.0838708
3.99 -0.301339
4 -0.466303
4.01 -0.585033
4.02 -0.658715
4.03 -0.699694
4.04 -0.711394
4.05 -0.704137
4.06 -0.684422
4.07 -0.659111
4.08 -0.633932
4.09 -0.614101
4.1 -0.602061
4.11 -0.600351
4.12 -0.609393
4.13 -0.628156
4.14 -0.655977
4.15 -0.689451
4.16 -0.726329
4.17 -0.763103
4.18 -0.796852
4.19 -0.824242
4.2 -0.843716
4.21 -0.851759
4.22 -0.84875
4.23 -0.833127
4.24 -0.805242
4.25 -0.76628
4.26 -0.716274
4.27 -0.658115
4.28 -0.59255
4.29 -0.522094
4.3 -0.44833
4.31 -0.372911
4.32 -0.29725
4.33 -0.222538
4.34 -0.149389
4.35 -0.0783832
4.36 -0.00967807
4.37 0.0568468
4.38 0.121086
4.39 0.183496
4.4 0.243947
4.41 0.302579
4.42 0.359159
4.43 0.413102
4.44 0.464072
4.45 0.510528
4.46 0.552013
4.47 0.586875
4.48 0.613867
4.49 0.632238
4.5 0.639709
4.51 0.636875
4.52 0.621735
4.53 0.595062
4.54 0.556799
4.55 0.507047
4.56 0.447875
4.57 0.37921
4.58 0.304018
4.59 0.223537
4.6 0.140026
4.61 0.0554757
4.62 -0.0279949
4.63 -0.108823
4.64 -0.185012
4.65 -0.255628
4.66 -0.319703
4.67 -0.376301
4.68 -0.42601
4.69 -0.467804
4.7 -0.503205
4.71 -0.532273
4.72 -0.556002
4.73 -0.575469
4.74 -0.591223
4.75 -0.604586
4.76 -0.616066
4.77 -0.626493
4.78 -0.636316
4.79 -0.645875
4.8 -0.655356
4.81 -0.664787
4.82 -0.674101
4.83 -0.683147
4.84 -0.691738
4.85 -0.69974
4.86 -0.706931
4.87 -0.713352
4.88 -0.718909
4.89 -0.723766
4.9 -0.728069
4.91 -0.732046
4.92 -0.735972
4.93 -0.740155
4.94 -0.744817
4.95 -0.750209
4.96 -0.756478
4.97 -0.763638
4.98 -0.771768
4.99 -0.780631
5 -0.790128
5.01 -0.799956
5.02 -0.809865
5.03 -0.819559
5.04 -0.82884
5.05 -0.837427
5.06 -0.845301
5.07 -0.852364
5.08 -0.858674
5.09 -0.864358
5.1 -0.869488
5.11 -0.874253
5.12 -0.878673
5.13 -0.882737
5.14 -0.886256
5.15 -0.888767
5.16 -0.889821
5.17 -0.888181
5.18 -0.883108
5.19 -0.872988
5.2 -0.856272
5.21 -0.831816
5.22 -0.796812
5.23 -0.751185
5.24 -0.692103
5.25 -0.619563
5.26 -0.532775
5.27 -0.430949
5.28 -0.31613
5.29 -0.187474
5.3 -0.0487634
5.31 0.0984062
5.32 0.250501
5.33 0.403967
5.34 0.554376
5.35 0.698114
5.36 0.829801
5.37 0.946092
5.38 1.04318
5.39 1.11646
5.4 1.16608
5.41 1.18608
5.42 1.1797
5.43 1.14479
5.44 1.08303
5.45 0.997634
5.46 0.889021
5.47 0.763672
5.48 0.62369
5.49 0.47489
5.5 0.32146
5.51 0.16823
5.52 0.0190304
5.53 -0.121131
5.54 -0.250308
5.55 -0.365131
5.56 -0.463993
5.57 -0.546882
5.58 -0.611716
5.59 -0.661462
5.6 -0.69539
5.61 -0.716504
5.62 -0.726495
5.63 -0.727227
5.64 -0.721633
5.65 -0.710951
5.66 -0.697623
5.67 -0.682758
5.68 -0.667404
5.69 -0.652033
5.7 -0.636692
5.71 -0.621039
5.72 -0.604325
5.73 -0.585705
5.74 -0.564223
5.75 -0.53866
5.76 -0.508709
5.77 -0.472994
5.78 -0.43209
5.79 -0.385733
5.8 -0.334671
5.81 -0.28008
5.82 -0.223146
5.83 -0.165825
5.84 -0.11011
5.85 -0.0580246
5.86 -0.0115428
5.87 0.0269168
5.88 0.0567018
5.89 0.0748821
5.9 0.0821873
5.91 0.0773258
5.92 0.0606246
5.93 0.0332599
5.94 -0.0048574
5.95 -0.0509207
5.96 -0.104168
5.97 -0.162055
5.98 -0.222809
5.99 -0.284455
6 -0.345333
6.01 -0.403639
6.02 -0.458584
6.03 -0.509134
6.04 -0.554933
6.05 -0.596213
6.06 -0.632768
6.07 -0.665778
6.08 -0.695573
6.09 -0.723291
6.1 -0.749706
6.11 -0.775604
6.12 -0.801583
6.13 -0.828086
6.14 -0.855157
6.15 -0.882697
6.16 -0.91027
6.17 -0.937324
6.18 -0.962939
6.19 -0.986532
6.2 -1.007
6.21 -1.02387
6.22 -1.03661
6.23 -1.04471
6.24 -1.04869
6.25 -1.04823
6.26 -1.04456
6.27 -1.03822
6.28 -1.03035
6.29 -1.022
6.3 -1.01424
6.31 -1.00773
6.32 -1.0031
6.33 -1.00016
6.34 -0.998372
6.35 -0.996376
6.36 -0.992441
6.37 -0.983259
6.38 -0.966274
6.39 -0.937137
6.4 -0.891515
6.41 -0.826365
6.42 -0.734373
6.43 -0.615373
6.44 -0.462295
6.45 -0.275077
6.46 -0.0518802
6.47 0.209484
6.48 0.503932
6.49 0.833983
6.5 1.19065
6.51 1.57065
6.52 1.9661
6.53 2.36881
6.54 2.76938
6.55 3.15901
6.56 3.52602
6.57 3.86206
6.58 4.15822
6.59 4.40317
6.6 4.59602
6.61 4.7219
6.62 4.78614
6.63 4.78188
6.64 4.7102
6.65 4.57667
6.66 4.37813
6.67 4.12873
6.68 3.82935
6.69 3.4925
6.7 3.12638
6.71 2.74022
6.72 2.34502
6.73 1.95006
6.74 1.56425
6.75 1.19615
6.76 0.85304
6.77 0.538667
6.78 0.261441
6.79 0.0189424
6.8 -0.183
6.81 -0.347575
6.82 -0.475621
6.83 -0.567842
6.84 -0.630989
6.85 -0.66459
6.86 -0.676837
6.87 -0.670229
6.88 -0.649674
6.89 -0.619625
6.9 -0.583088
6.91 -0.543945
6.92 -0.504559
6.93 -0.467042
6.94 -0.432754
6.95 -0.402883
6.96 -0.377363
6.97 -0.357013
6.98 -0.340955
6.99 -0.329206
7 -0.32127
7.01 -0.316582
7.02 -0.315199
7.03 -0.316507
7.04 -0.320824
7.05 -0.328049
7.06 -0.338439
7.07 -0.352535
7.08 -0.370269
7.09 -0.392629
7.1 -0.419254
7.11 -0.450612
7.12 -0.486582
7.13 -0.526666
7.14 -0.570822
7.15 -0.617817
7.16 -0.667068
7.17 -0.717282
7.18 -0.767366
7.19 -0.815945
7.2 -0.8621
7.21 -0.904194
7.22 -0.941837
7.23 -0.973982
7.24 -1.0002
7.25 -1.02068
7.26 -1.03482
7.27 -1.04386
7.28 -1.04779
7.29 -1.04787
7.3 -1.04491
7.31 -1.03984
7.32 -1.03372
7.33 -1.02729
7.34 -1.02116
7.35 -1.01569
7.36 -1.01085
7.37 -1.0063
7.38 -1.00127
7.39 -0.994833
7.4 -0.985418
7.41 -0.971596
7.42 -0.95171
7.43 -0.923427
7.44 -0.886076
7.45 -0.836382
7.46 -0.774672
7.47 -0.699062
7.48 -0.609155
7.49 -0.505761
7.5 -0.387787
7.51 -0.258282
7.52 -0.117513
7.53 0.0313818
7.54 0.185976
7.55 0.343184
7.56 0.499719
7.57 0.651549
7.58 0.795786
7.59 0.928511
7.6 1.04638
7.61 1.14765
7.62 1.22743
7.63 1.28683
7.64 1.32189
7.65 1.33369
7.66 1.32205
7.67 1.28633
7.68 1.23027
7.69 1.15259
7.7 1.05847
7.71 0.949277
7.72 0.828487
7.73 0.699741
7.74 0.565901
7.75 0.430897
7.76 0.298009
7.77 0.170338
7.78 0.0505801
7.79 -0.0580273
7.8 -0.1548
7.81 -0.235962
7.82 -0.302434
7.83 -0.352443
7.84 -0.386001
7.85 -0.404374
7.86 -0.406521
7.87 -0.395818
7.88 -0.372276
7.89 -0.338823
7.9 -0.297392
7.91 -0.250123
7.92 -0.199837
7.93 -0.148774
7.94 -0.0994069
7.95 -0.0540318
7.96 -0.0148071
7.97 0.0170355
7.98 0.0388962
7.99 0.0511166
8 0.0517628
8.01 0.0413913
8.02 0.020046
8.03 -0.0123269
8.04 -0.0537406
8.05 -0.104348
8.06 -0.161508
8.07 -0.224169
8.08 -0.290421
8.09 -0.358481
8.1 -0.426657
8.11 -0.493459
8.12 -0.557309
8.13 -0.617271
8.14 -0.672563
8.15 -0.722356
8.16 -0.767081
8.17 -0.806041
8.18 -0.84037
8.19 -0.870275
8.2 -0.896574
8.21 -0.920175
8.22 -0.941561
8.23 -0.961605
8.24 -0.98053
8.25 -0.998503
8.26 -1.01526
8.27 -1.02997
8.28 -1.04186
8.29 -1.04877
8.3 -1.04941
8.31 -1.04115
8.32 -1.02137
8.33 -0.988416
8.34 -0.937585
8.35 -0.86899
8.36 -0.77814
8.37 -0.664841
8.38 -0.527902
8.39 -0.365457
8.4 -0.180625
8.41 0.0288462
8.42 0.257582
8.43 0.504093
8.44 0.763999
8.45 1.03229
8.46 1.30399
8.47 1.57312
8.48 1.83305
8.49 2.07797
8.5 2.30214
8.51 2.49794
8.52 2.66379
8.53 2.78986
8.54 2.87784
8.55 2.92249
8.56 2.92278
8.57 2.8813
8.58 2.7939
8.59 2.66909
8.6 2.50567
8.61 2.31097
8.62 2.08966
8.63 1.84665
8.64 1.58995
8.65 1.32445
8.66 1.05762
8.67 0.79519
8.68 0.54317
8.69 0.305357
8.7 0.088327
8.71 -0.107731
8.72 -0.277878
8.73 -0.422674
8.74 -0.541779
8.75 -0.634423
8.76 -0.704883
8.77 -0.752057
8.78 -0.781759
8.79 -0.795765
8.8 -0.797898
8.81 -0.792024
8.82 -0.780945
8.83 -0.768355
8.84 -0.756897
8.85 -0.748877
8.86 -0.745935
8.87 -0.749692
8.88 -0.759959
8.89 -0.777848
8.9 -0.80192
8.91 -0.831788
8.92 -0.866111
8.93 -0.903326
8.94 -0.942052
8.95 -0.980597
8.96 -1.01743
8.97 -1.05132
8.98 -1.08127
8.99 -1.10621
9 -1.12628
9.01 -1.14055
9.02 -1.14997
9.03 -1.15459
9.04 -1.15515
9.05 -1.15261
9.06 -1.14752
9.07 -1.14101
9.08 -1.13368
9.09 -1.12617
9.1 -1.11882
9.11 -1.11179
9.12 -1.1049
9.13 -1.09771
9.14 -1.08961
9.15 -1.07969
9.16 -1.06691
9.17 -1.05046
9.18 -1.02866
9.19 -1.00133
9.2 -0.966965
9.21 -0.925497
9.22 -0.876689
9.23 -0.820235
9.24 -0.757438
9.25 -0.688271
9.26 -0.614814
9.27 -0.53828
9.28 -0.460682
9.29 -0.3839
9.3 -0.310446
9.31 -0.241847
9.32 -0.180731
9.33 -0.128405
9.34 -0.0862254
9.35 -0.0559934
9.36 -0.0369441
9.37 -0.0310334
9.38 -0.0362309
9.39 -0.0525638
9.4 -0.0786403
9.41 -0.112424
9.42 -0.152833
9.43 -0.197019
9.44 -0.243303
9.45 -0.289395
9.46 -0.33352
9.47 -0.373687
9.48 -0.409099
9.49 -0.437896
9.5 -0.460352
9.51 -0.475864
9.52 -0.484746
9.53 -0.487977
9.54 -0.485866
9.55 -0.480274
9.56 -0.472133
9.57 -0.463075
9.58 -0.454366
9.59 -0.447434
9.6 -0.443057
9.61 -0.44258
9.62 -0.446065
9.63 -0.454058
9.64 -0.466521
9.65 -0.482927
9.66 -0.503255
9.67 -0.526348
9.68 -0.551793
9.69 -0.578636
9.7 -0.606212
9.71 -0.633868
9.72 -0.661156
9.73 -0.687657
9.74 -0.713315
9.75 -0.738064
9.76 -0.762011
9.77 -0.78534
9.78 -0.808099
9.79 -0.83037
9.8 -0.851888
9.81 -0.872193
9.82 -0.890502
9.83 -0.905282
9.84 -0.915381
9.85 -0.917652
9.86 -0.910504
9.87 -0.89044
9.88 -0.854063
9.89 -0.799452
9.9 -0.720384
9.91 -0.617328
9.92 -0.484549
9.93 -0.321844
9.94 -0.127923
9.95 0.0997171
9.96 0.356812
9.97 0.646215
9.98 0.960996
9.99 1.29912
10 1.65501
10.01 2.02213
10.02 2.39421
10.03 2.7635
10.04 3.12167
10.05 3.46127
10.06 3.77517
10.07 4.05366
10.08 4.29481
10.09 4.48652
10.1 4.63069
10.11 4.72107
10.12 4.75613
10.13 4.73938
10.14 4.66528
10.15 4.54448
10.16 4.37532
10.17 4.16642
10.18 3.92339
10.19 3.65151
10.2 3.36047
10.21 3.05523
10.22 2.74471
10.23 2.43503
10.24 2.13287
10.25 1.8426
10.26 1.57101
10.27 1.31885
10.28 1.09103
10.29 0.887434
10.3 0.708449
10.31 0.555125
10.32 0.423414
10.33 0.31458
10.34 0.223261
10.35 0.147946
10.36 0.0853072
10.37 0.0317542
10.38 -0.0148499
10.39 -0.058081
10.4 -0.0999821
10.41 -0.142741
10.42 -0.187807
10.43 -0.236558
10.44 -0.289159
10.45 -0.346439
10.46 -0.4076
10.47 -0.472376
10.48 -0.539852
10.49 -0.608912
10.5 -0.678416
10.51 -0.747098
10.52 -0.813555
10.53 -0.876647
10.54 -0.935326
10.55 -0.988175
10.56 -1.03507
10.57 -1.07432
10.58 -1.10638
10.59 -1.13047
10.6 -1.14645
10.61 -1.15492
10.62 -1.15506
10.63 -1.14837
10.64 -1.1345
10.65 -1.11453
10.66 -1.08909
10.67 -1.05865
10.68 -1.02452
10.69 -0.98703
10.7 -0.947477
10.71 -0.906555
10.72 -0.865207
10.73 -0.824217
10.74 -0.784563
10.75 -0.746783
10.76 -0.711825
10.77 -0.68017
10.78 -0.652328
10.79 -0.629081
10.8 -0.610264
10.81 -0.596903
10.82 -0.588521
10.83 -0.585555
10.84 -0.588014
10.85 -0.595461
10.86 -0.608398
10.87 -0.625815
10.88 -0.64792
10.89 -0.673981
10.9 -0.703543
10.91 -0.736227
10.92 -0.771132
10.93 -0.807882
10.94 -0.845554
10.95 -0.883515
10.96 -0.920973
10.97 -0.95731
10.98 -0.991575
10.99 -1.02344
11 -1.05203
11.01 -1.07705
11.02 -1.09818
11.03 -1.11493
11.04 -1.12774
11.05 -1.1361
11.06 -1.14084
11.07 -1.14214
11.08 -1.14063
11.09 -1.13714
11.1 -1.13229
11.11 -1.12705
11.12 -1.12218
11.13 -1.11841
11.14 -1.11626
11.15 -1.11623
11.16 -1.11819
11.17 -1.12218
11.18 -1.12739
11.19 -1.13296
11.2 -1.13746
11.21 -1.13944
11.22 -1.13627
11.23 -1.1265
11.24 -1.10685
11.25 -1.07532
11.26 -1.0297
11.27 -0.966486
11.28 -0.885881
11.29 -0.78345
11.3 -0.660897
11.31 -0.516578
11.32 -0.350927
11.33 -0.166461
11.34 0.037212
11.35 0.25475
11.36 0.484288
11.37 0.720749
11.38 0.959812
11.39 1.19606
11.4 1.42506
11.41 1.63991
11.42 1.83726
11.43 2.01147
11.44 2.15802
11.45 2.27572
11.46 2.35748
11.47 2.40675
11.48 2.41884
11.49 2.3964
11.5 2.34074
11.51 2.25202
11.52 2.13672
11.53 1.99474
11.54 1.83357
11.55 1.65636
11.56 1.46824
11.57 1.27423
11.58 1.07871
11.59 0.885904
11.6 0.699943
11.61 0.523677
11.62 0.359345
11.63 0.209744
11.64 0.0741503
11.65 -0.0448424
11.66 -0.149548
11.67 -0.239845
11.68 -0.317112
11.69 -0.383716
11.7 -0.44024
11.71 -0.489948
11.72 -0.533934
11.73 -0.574386
11.74 -0.612723
11.75 -0.650146
11.76 -0.687532
11.77 -0.725372
11.78 -0.763655
11.79 -0.802079
11.8 -0.839883
11.81 -0.876209
11.82 -0.909409
11.83 -0.938548
11.84 -0.961564
11.85 -0.977194
11.86 -0.984075
11.87 -0.980035
11.88 -0.96522
11.89 -0.936879
11.9 -0.895981
11.91 -0.841392
11.92 -0.77309
11.93 -0.692372
11.94 -0.598302
11.95 -0.493814
11.96 -0.379099
11.97 -0.256603
11.98 -0.128218
11.99 0.00398827
12 0.137404
12.01 0.269469
12.02 0.397794
12.03 0.519731
12.04 0.632634
12.05 0.735122
12.06 0.823384
12.07 0.897778
12.08 0.955229
12.09 0.995743
12.1 1.01891
12.11 1.0234
12.12 1.01167
12.13 0.982074
12.14 0.938019
12.15 0.880135
12.16 0.810486
12.17 0.731867
12.18 0.645674
12.19 0.5553
12.2 0.462677
12.21 0.370339
12.22 0.280206
12.23 0.194451
12.24 0.113899
12.25 0.0405309
12.26 -0.0258815
12.27 -0.0847037
12.28 -0.136131
12.29 -0.181205
12.3 -0.220027
12.31 -0.254568
12.32 -0.285618
12.33 -0.314796
12.34 -0.34332
12.35 -0.372451
12.36 -0.402985
12.37 -0.435861
12.38 -0.471101
12.39 -0.50877
12.4 -0.548359
