# xPDFsuite Configuration #
[PDF]
wavelength = 0.1432
dataformat = twotheta
inputfile = 1_1Pd_CeO2_cycle-00023.chi
backgroundfile = background-00000.chi
mode = xray
bgscale = 1.007
composition = CeO2
outputtype = gr
qmaxinst = 28.8974762299
qmin = 0.5
qmax = 27.9
rmax = 50.0
rmin = 0.0
rstep = 0.01
rpoly = 1.8657

[Misc]
inputdir = G:/SankarDec16/1Pd/Chi
savedir = D:/DATA/APS_CeO2/1Pd
backgroundfilefull = G:/SankarDec16/Background/background-00000.chi

#### start data
#S 1
#L r($\AA$)  G($\AA^{-2}$)
0 0
0.01 -0.00651307
0.02 -0.0125344
0.03 -0.0175577
0.04 -0.0212019
0.05 -0.0232552
0.06 -0.0233773
0.07 -0.0217959
0.08 -0.0184028
0.09 -0.0136323
0.1 -0.00778545
0.11 -0.00132254
0.12 0.0052558
0.13 0.0113867
0.14 0.0166736
0.15 0.0206298
0.16 0.0229718
0.17 0.0235878
0.18 0.0222481
0.19 0.0192889
0.2 0.014727
0.21 0.0090695
0.22 0.0026919
0.23 -0.00388866
0.24 -0.0102019
0.25 -0.0156415
0.26 -0.0199255
0.27 -0.0226109
0.28 -0.0235259
0.29 -0.0226644
0.3 -0.0199189
0.31 -0.0157179
0.32 -0.0102025
0.33 -0.00392808
0.34 0.00267389
0.35 0.00905434
0.36 0.0147968
0.37 0.0192811
0.38 0.0223543
0.39 0.0236388
0.4 0.0230834
0.41 0.0207884
0.42 0.0167744
0.43 0.0115414
0.44 0.005348
0.45 -0.00122876
0.46 -0.00772293
0.47 -0.0135801
0.48 -0.0184585
0.49 -0.0217551
0.5 -0.0234532
0.51 -0.0232606
0.52 -0.0212491
0.53 -0.0176211
0.54 -0.0125252
0.55 -0.00650841
0.56 6.52194e-05
0.57 0.00662537
0.58 0.0126946
0.59 0.0177403
0.6 0.0215129
0.61 0.0234563
0.62 0.0236919
0.63 0.0220273
0.64 0.0186551
0.65 0.0138702
0.66 0.00794251
0.67 0.00143936
0.68 -0.00518743
0.69 -0.0114022
0.7 -0.0167399
0.71 -0.0207158
0.72 -0.0231856
0.73 -0.0236678
0.74 -0.0224163
0.75 -0.0193484
0.76 -0.0147679
0.77 -0.00904729
0.78 -0.00256392
0.79 0.00412332
0.8 0.0104991
0.81 0.01609
0.82 0.0204686
0.83 0.0232246
0.84 0.0243269
0.85 0.0233967
0.86 0.0208069
0.87 0.0165905
0.88 0.0111469
0.89 0.00490563
0.9 -0.001669
0.91 -0.00806041
0.92 -0.0137218
0.93 -0.0182738
0.94 -0.0213587
0.95 -0.0226749
0.96 -0.0223154
0.97 -0.0200478
0.98 -0.0163511
0.99 -0.0113956
1 -0.00567004
1.01 0.000352116
1.02 0.00611691
1.03 0.0111869
1.04 0.0149888
1.05 0.0172725
1.06 0.0177716
1.07 0.0163208
1.08 0.0131656
1.09 0.00825209
1.1 0.00219166
1.11 -0.00467139
1.12 -0.0117239
1.13 -0.0184187
1.14 -0.0240478
1.15 -0.0282375
1.16 -0.0303024
1.17 -0.0300957
1.18 -0.0273797
1.19 -0.0220494
1.2 -0.0145038
1.21 -0.00472858
1.22 0.00647628
1.23 0.0186736
1.24 0.031113
1.25 0.0431369
1.26 0.0539016
1.27 0.0629574
1.28 0.0694729
1.29 0.0732363
1.3 0.0739058
1.31 0.0712474
1.32 0.065645
1.33 0.0568448
1.34 0.0456947
1.35 0.0324478
1.36 0.0177951
1.37 0.00237383
1.38 -0.0131557
1.39 -0.0281889
1.4 -0.0420471
1.41 -0.0543316
1.42 -0.0646319
1.43 -0.0725723
1.44 -0.0782475
1.45 -0.0812116
1.46 -0.081926
1.47 -0.0803056
1.48 -0.0766397
1.49 -0.071235
1.5 -0.0642132
1.51 -0.0560386
1.52 -0.0468318
1.53 -0.0369389
1.54 -0.0265493
1.55 -0.0158655
1.56 -0.00507976
1.57 0.00562578
1.58 0.0160904
1.59 0.0261076
1.6 0.0354707
1.61 0.0439988
1.62 0.051319
1.63 0.0573366
1.64 0.0615829
1.65 0.0639486
1.66 0.0641625
1.67 0.0619442
1.68 0.0574391
1.69 0.0502295
1.7 0.0408076
1.71 0.0291586
1.72 0.015696
1.73 0.000889242
1.74 -0.0148044
1.75 -0.0307092
1.76 -0.0461808
1.77 -0.0606049
1.78 -0.0733959
1.79 -0.08393
1.8 -0.0920861
1.81 -0.0971784
1.82 -0.0996011
1.83 -0.0992119
1.84 -0.0964164
1.85 -0.0917383
1.86 -0.0856633
1.87 -0.0790318
1.88 -0.0725657
1.89 -0.0670218
1.9 -0.0630717
1.91 -0.0614088
1.92 -0.0621711
1.93 -0.0660209
1.94 -0.0724851
1.95 -0.081575
1.96 -0.0927102
1.97 -0.105196
1.98 -0.118234
1.99 -0.13087
2 -0.142
2.01 -0.150759
2.02 -0.156247
2.03 -0.157512
2.04 -0.154482
2.05 -0.146037
2.06 -0.132901
2.07 -0.114785
2.08 -0.0922573
2.09 -0.0660407
2.1 -0.0365747
2.11 -0.00505063
2.12 0.0279277
2.13 0.0614216
2.14 0.0948166
2.15 0.127558
2.16 0.159448
2.17 0.190267
2.18 0.220331
2.19 0.249922
2.2 0.279605
2.21 0.309926
2.22 0.341662
2.23 0.375147
2.24 0.411046
2.25 0.449317
2.26 0.489906
2.27 0.532388
2.28 0.575844
2.29 0.619098
2.3 0.660706
2.31 0.698799
2.32 0.731432
2.33 0.757056
2.34 0.772772
2.35 0.778293
2.36 0.770805
2.37 0.750541
2.38 0.716838
2.39 0.669426
2.4 0.61045
2.41 0.539584
2.42 0.460573
2.43 0.37507
2.44 0.286292
2.45 0.197137
2.46 0.111044
2.47 0.0303555
2.48 -0.0414366
2.49 -0.102912
2.5 -0.152362
2.51 -0.188349
2.52 -0.212111
2.53 -0.222224
2.54 -0.221966
2.55 -0.212201
2.56 -0.195724
2.57 -0.175265
2.58 -0.153592
2.59 -0.133461
2.6 -0.11776
2.61 -0.108291
2.62 -0.106699
2.63 -0.114343
2.64 -0.130513
2.65 -0.156156
2.66 -0.188776
2.67 -0.22738
2.68 -0.269523
2.69 -0.312862
2.7 -0.354683
2.71 -0.39292
2.72 -0.42483
2.73 -0.449217
2.74 -0.464839
2.75 -0.470808
2.76 -0.468288
2.77 -0.456836
2.78 -0.439248
2.79 -0.416918
2.8 -0.392516
2.81 -0.368455
2.82 -0.347664
2.83 -0.331913
2.84 -0.323945
2.85 -0.324533
2.86 -0.334586
2.87 -0.354525
2.88 -0.382721
2.89 -0.418995
2.9 -0.460185
2.91 -0.504337
2.92 -0.548412
2.93 -0.589823
2.94 -0.625171
2.95 -0.652991
2.96 -0.670267
2.97 -0.67665
2.98 -0.671449
2.99 -0.65456
3 -0.628184
3.01 -0.592821
3.02 -0.552218
3.03 -0.508724
3.04 -0.46578
3.05 -0.426221
3.06 -0.393752
3.07 -0.369793
3.08 -0.35747
3.09 -0.356925
3.1 -0.368679
3.11 -0.392586
3.12 -0.426141
3.13 -0.468546
3.14 -0.51583
3.15 -0.565431
3.16 -0.613827
3.17 -0.658232
3.18 -0.695039
3.19 -0.723157
3.2 -0.739854
3.21 -0.745481
3.22 -0.740074
3.23 -0.724503
3.24 -0.701612
3.25 -0.673234
3.26 -0.643309
3.27 -0.615034
3.28 -0.592001
3.29 -0.576785
3.3 -0.573146
3.31 -0.581224
3.32 -0.603467
3.33 -0.638433
3.34 -0.685217
3.35 -0.741832
3.36 -0.804513
3.37 -0.870046
3.38 -0.933971
3.39 -0.99207
3.4 -1.04028
3.41 -1.07602
3.42 -1.09501
3.43 -1.0981
3.44 -1.08293
3.45 -1.05219
3.46 -1.00774
3.47 -0.952796
3.48 -0.892302
3.49 -0.830892
3.5 -0.77373
3.51 -0.725963
3.52 -0.691902
3.53 -0.673812
3.54 -0.675499
3.55 -0.694408
3.56 -0.730903
3.57 -0.779521
3.58 -0.835148
3.59 -0.889866
3.6 -0.935913
3.61 -0.960725
3.62 -0.957325
3.63 -0.913396
3.64 -0.820059
3.65 -0.672566
3.66 -0.458233
3.67 -0.182794
3.68 0.162355
3.69 0.568426
3.7 1.03113
3.71 1.54293
3.72 2.08824
3.73 2.65658
3.74 3.2288
3.75 3.78846
3.76 4.31696
3.77 4.80014
3.78 5.2146
3.79 5.55611
3.8 5.80279
3.81 5.95402
3.82 6.00327
3.83 5.94475
3.84 5.79183
3.85 5.53538
3.86 5.1995
3.87 4.78877
3.88 4.32029
3.89 3.8111
3.9 3.27536
3.91 2.73216
3.92 2.19708
3.93 1.68437
3.94 1.20616
3.95 0.775156
3.96 0.393142
3.97 0.073661
3.98 -0.190485
3.99 -0.39516
4 -0.545197
4.01 -0.647928
4.02 -0.705602
4.03 -0.731476
4.04 -0.729958
4.05 -0.711873
4.06 -0.684158
4.07 -0.654006
4.08 -0.626778
4.09 -0.607864
4.1 -0.598839
4.11 -0.601861
4.12 -0.616589
4.13 -0.641309
4.14 -0.674618
4.15 -0.712607
4.16 -0.752399
4.17 -0.790288
4.18 -0.823179
4.19 -0.847686
4.2 -0.862641
4.21 -0.86465
4.22 -0.854769
4.23 -0.831887
4.24 -0.796969
4.25 -0.751685
4.26 -0.696687
4.27 -0.635042
4.28 -0.567937
4.29 -0.497805
4.3 -0.426181
4.31 -0.354536
4.32 -0.283778
4.33 -0.214745
4.34 -0.147402
4.35 -0.0817873
4.36 -0.017486
4.37 0.0460042
4.38 0.109151
4.39 0.172365
4.4 0.235834
4.41 0.299399
4.42 0.362608
4.43 0.424485
4.44 0.484077
4.45 0.539253
4.46 0.58889
4.47 0.630656
4.48 0.662701
4.49 0.683925
4.5 0.691403
4.51 0.685949
4.52 0.665228
4.53 0.630471
4.54 0.581936
4.55 0.520223
4.56 0.448167
4.57 0.366379
4.58 0.278622
4.59 0.186912
4.6 0.0942101
4.61 0.00291846
4.62 -0.0840912
4.63 -0.165466
4.64 -0.238779
4.65 -0.303555
4.66 -0.359104
4.67 -0.404942
4.68 -0.442469
4.69 -0.471254
4.7 -0.493701
4.71 -0.510618
4.72 -0.523738
4.73 -0.534609
4.74 -0.544539
4.75 -0.554761
4.76 -0.566254
4.77 -0.579513
4.78 -0.594801
4.79 -0.612134
4.8 -0.630982
4.81 -0.650942
4.82 -0.671132
4.83 -0.690783
4.84 -0.709049
4.85 -0.725351
4.86 -0.738818
4.87 -0.749484
4.88 -0.756834
4.89 -0.761245
4.9 -0.762965
4.91 -0.762433
4.92 -0.760465
4.93 -0.757649
4.94 -0.754847
4.95 -0.752748
4.96 -0.751995
4.97 -0.75294
4.98 -0.756119
4.99 -0.76133
5 -0.768757
5.01 -0.777964
5.02 -0.788632
5.03 -0.80032
5.04 -0.812479
5.05 -0.824644
5.06 -0.836396
5.07 -0.847377
5.08 -0.857363
5.09 -0.866302
5.1 -0.874053
5.11 -0.880819
5.12 -0.886536
5.13 -0.891313
5.14 -0.895059
5.15 -0.897454
5.16 -0.898232
5.17 -0.896314
5.18 -0.891097
5.19 -0.881074
5.2 -0.864737
5.21 -0.840914
5.22 -0.806739
5.23 -0.761982
5.24 -0.703623
5.25 -0.631452
5.26 -0.544459
5.27 -0.441588
5.28 -0.324805
5.29 -0.192966
5.3 -0.0499642
5.31 0.102676
5.32 0.261274
5.33 0.422038
5.34 0.580302
5.35 0.732036
5.36 0.871448
5.37 0.994759
5.38 1.09774
5.39 1.17528
5.4 1.22739
5.41 1.2475
5.42 1.23903
5.43 1.19961
5.44 1.13105
5.45 1.03688
5.46 0.917643
5.47 0.780486
5.48 0.627883
5.49 0.466292
5.5 0.300435
5.51 0.135777
5.52 -0.0234997
5.53 -0.171676
5.54 -0.30677
5.55 -0.425033
5.56 -0.524822
5.57 -0.606309
5.58 -0.667343
5.59 -0.711492
5.6 -0.738197
5.61 -0.751064
5.62 -0.752228
5.63 -0.744068
5.64 -0.729947
5.65 -0.711627
5.66 -0.691756
5.67 -0.671764
5.68 -0.652813
5.69 -0.635316
5.7 -0.619402
5.71 -0.604356
5.72 -0.58932
5.73 -0.573051
5.74 -0.554296
5.75 -0.53149
5.76 -0.504049
5.77 -0.470268
5.78 -0.430614
5.79 -0.38466
5.8 -0.33314
5.81 -0.277327
5.82 -0.218466
5.83 -0.158792
5.84 -0.100492
5.85 -0.0458808
5.86 0.00282362
5.87 0.0429241
5.88 0.0736571
5.89 0.0918314
5.9 0.0982553
5.91 0.0915915
5.92 0.0722995
5.93 0.0417631
5.94 0.000100633
5.95 -0.0495592
5.96 -0.106139
5.97 -0.1668
5.98 -0.229503
5.99 -0.291982
6 -0.352556
6.01 -0.409159
6.02 -0.461227
6.03 -0.507752
6.04 -0.548639
6.05 -0.584441
6.06 -0.615303
6.07 -0.642815
6.08 -0.667767
6.09 -0.69166
6.1 -0.715609
6.11 -0.740776
6.12 -0.767742
6.13 -0.797312
6.14 -0.829195
6.15 -0.863266
6.16 -0.898752
6.17 -0.934681
6.18 -0.969725
6.19 -1.00275
6.2 -1.03211
6.21 -1.05684
6.22 -1.07601
6.23 -1.08862
6.24 -1.09516
6.25 -1.09488
6.26 -1.08933
6.27 -1.07909
6.28 -1.06563
6.29 -1.05047
6.3 -1.03511
6.31 -1.02085
6.32 -1.0089
6.33 -0.999629
6.34 -0.992953
6.35 -0.988042
6.36 -0.983189
6.37 -0.97554
6.38 -0.962143
6.39 -0.938591
6.4 -0.900096
6.41 -0.843043
6.42 -0.759495
6.43 -0.648553
6.44 -0.502309
6.45 -0.320035
6.46 -0.0992487
6.47 0.16298
6.48 0.461567
6.49 0.799797
6.5 1.16811
6.51 1.56327
6.52 1.97683
6.53 2.39985
6.54 2.82223
6.55 3.23401
6.56 3.62249
6.57 3.97823
6.58 4.29131
6.59 4.54918
6.6 4.75066
6.61 4.87949
6.62 4.94138
6.63 4.92895
6.64 4.84354
6.65 4.69142
6.66 4.4696
6.67 4.19374
6.68 3.86539
6.69 3.49851
6.7 3.10243
6.71 2.68775
6.72 2.26636
6.73 1.84904
6.74 1.44499
6.75 1.0637
6.76 0.71273
6.77 0.395584
6.78 0.121085
6.79 -0.114353
6.8 -0.305025
6.81 -0.455302
6.82 -0.56687
6.83 -0.641426
6.84 -0.686749
6.85 -0.703387
6.86 -0.700231
6.87 -0.68054
6.88 -0.649694
6.89 -0.612224
6.9 -0.571542
6.91 -0.530925
6.92 -0.492716
6.93 -0.4583
6.94 -0.428486
6.95 -0.403789
6.96 -0.383457
6.97 -0.367594
6.98 -0.354877
6.99 -0.344824
7 -0.336681
7.01 -0.329908
7.02 -0.324427
7.03 -0.320141
7.04 -0.317594
7.05 -0.317318
7.06 -0.320116
7.07 -0.327211
7.08 -0.339013
7.09 -0.357283
7.1 -0.381834
7.11 -0.413566
7.12 -0.452451
7.13 -0.497795
7.14 -0.549578
7.15 -0.605866
7.16 -0.665729
7.17 -0.727108
7.18 -0.788261
7.19 -0.84702
7.2 -0.901954
7.21 -0.95054
7.22 -0.992244
7.23 -1.02554
7.24 -1.04992
7.25 -1.06581
7.26 -1.07259
7.27 -1.07229
7.28 -1.06528
7.29 -1.05365
7.3 -1.03893
7.31 -1.02291
7.32 -1.00722
7.33 -0.993517
7.34 -0.982622
7.35 -0.975373
7.36 -0.971862
7.37 -0.971492
7.38 -0.973537
7.39 -0.976229
7.4 -0.977608
7.41 -0.975352
7.42 -0.96706
7.43 -0.949485
7.44 -0.921351
7.45 -0.878366
7.46 -0.820649
7.47 -0.745744
7.48 -0.653109
7.49 -0.543791
7.5 -0.41658
7.51 -0.275401
7.52 -0.120851
7.53 0.0429974
7.54 0.212961
7.55 0.385026
7.56 0.555212
7.57 0.718448
7.58 0.871519
7.59 1.00985
7.6 1.12984
7.61 1.22986
7.62 1.30473
7.63 1.35634
7.64 1.38086
7.65 1.38021
7.66 1.3548
7.67 1.30477
7.68 1.23454
7.69 1.14363
7.7 1.03765
7.71 0.918539
7.72 0.790077
7.73 0.655916
7.74 0.519209
7.75 0.383399
7.76 0.251753
7.77 0.126842
7.78 0.0109818
7.79 -0.0930177
7.8 -0.184936
7.81 -0.261382
7.82 -0.323557
7.83 -0.369919
7.84 -0.400578
7.85 -0.416747
7.86 -0.41735
7.87 -0.405493
7.88 -0.380979
7.89 -0.346437
7.9 -0.303549
7.91 -0.254174
7.92 -0.201053
7.93 -0.146216
7.94 -0.0922855
7.95 -0.0416215
7.96 0.0033568
7.97 0.0410994
7.98 0.0685816
7.99 0.0857786
8 0.0902331
8.01 0.0821783
8.02 0.0613495
8.03 0.0273468
8.04 -0.0176912
8.05 -0.0741816
8.06 -0.138981
8.07 -0.210832
8.08 -0.287297
8.09 -0.366016
8.1 -0.444631
8.11 -0.521062
8.12 -0.592987
8.13 -0.659014
8.14 -0.717952
8.15 -0.768531
8.16 -0.811413
8.17 -0.84559
8.18 -0.872887
8.19 -0.89381
8.2 -0.909884
8.21 -0.922768
8.22 -0.933812
8.23 -0.944618
8.24 -0.956341
8.25 -0.969686
8.26 -0.984869
8.27 -1.00156
8.28 -1.01865
8.29 -1.03428
8.3 -1.04627
8.31 -1.05154
8.32 -1.04651
8.33 -1.02856
8.34 -0.991797
8.35 -0.935417
8.36 -0.853641
8.37 -0.745568
8.38 -0.60934
8.39 -0.442327
8.4 -0.24808
8.41 -0.0237274
8.42 0.224178
8.43 0.493742
8.44 0.77946
8.45 1.07507
8.46 1.37425
8.47 1.66969
8.48 1.95318
8.49 2.2178
8.5 2.45679
8.51 2.66132
8.52 2.82999
8.53 2.95178
8.54 3.02946
8.55 3.0578
8.56 3.03667
8.57 2.96991
8.58 2.85426
8.59 2.69994
8.6 2.50701
8.61 2.28424
8.62 2.03744
8.63 1.77284
8.64 1.49875
8.65 1.22133
8.66 0.947552
8.67 0.683432
8.68 0.434517
8.69 0.203752
8.7 -0.00271792
8.71 -0.186108
8.72 -0.342286
8.73 -0.472984
8.74 -0.578762
8.75 -0.659831
8.76 -0.720871
8.77 -0.761614
8.78 -0.787687
8.79 -0.801032
8.8 -0.805158
8.81 -0.803353
8.82 -0.797989
8.83 -0.791846
8.84 -0.786875
8.85 -0.784595
8.86 -0.786016
8.87 -0.792054
8.88 -0.802392
8.89 -0.817553
8.9 -0.836457
8.91 -0.858729
8.92 -0.883455
8.93 -0.909675
8.94 -0.936559
8.95 -0.963214
8.96 -0.988849
8.97 -1.01291
8.98 -1.03497
8.99 -1.05461
9 -1.07197
9.01 -1.08673
9.02 -1.09935
9.03 -1.10988
9.04 -1.11863
9.05 -1.12593
9.06 -1.13186
9.07 -1.13674
9.08 -1.1405
9.09 -1.14314
9.1 -1.14445
9.11 -1.14398
9.12 -1.14147
9.13 -1.13596
9.14 -1.12714
9.15 -1.11408
9.16 -1.09602
9.17 -1.07263
9.18 -1.04254
9.19 -1.00624
9.2 -0.96266
9.21 -0.912273
9.22 -0.855255
9.23 -0.791752
9.24 -0.723188
9.25 -0.649931
9.26 -0.573908
9.27 -0.496411
9.28 -0.419311
9.29 -0.344233
9.3 -0.273585
9.31 -0.208502
9.32 -0.151444
9.33 -0.103439
9.34 -0.0656663
9.35 -0.0397668
9.36 -0.0248971
9.37 -0.0229378
9.38 -0.0318864
9.39 -0.0517851
9.4 -0.0812958
9.41 -0.118437
9.42 -0.162157
9.43 -0.209627
9.44 -0.259135
9.45 -0.308325
9.46 -0.355316
9.47 -0.397936
9.48 -0.435276
9.49 -0.465179
9.5 -0.487838
9.51 -0.502433
9.52 -0.509156
9.53 -0.509017
9.54 -0.502181
9.55 -0.490795
9.56 -0.47585
9.57 -0.459324
9.58 -0.442793
9.59 -0.428092
9.6 -0.416367
9.61 -0.409488
9.62 -0.407782
9.63 -0.412198
9.64 -0.422958
9.65 -0.439552
9.66 -0.46225
9.67 -0.489509
9.68 -0.520929
9.69 -0.555107
9.7 -0.591008
9.71 -0.62753
9.72 -0.663718
9.73 -0.698619
9.74 -0.731793
9.75 -0.762746
9.76 -0.791293
9.77 -0.817571
9.78 -0.841369
9.79 -0.86313
9.8 -0.882626
9.81 -0.899844
9.82 -0.914377
9.83 -0.925153
9.84 -0.931462
9.85 -0.930663
9.86 -0.921431
9.87 -0.900577
9.88 -0.864827
9.89 -0.812143
9.9 -0.736273
9.91 -0.637191
9.92 -0.508784
9.93 -0.350235
9.94 -0.159672
9.95 0.0661711
9.96 0.32341
9.97 0.615791
9.98 0.936419
9.99 1.28368
10 1.65201
10.01 2.03448
10.02 2.42474
10.03 2.81406
10.04 3.1935
10.05 3.55451
10.06 3.88897
10.07 4.18592
10.08 4.44268
10.09 4.64561
10.1 4.79632
10.11 4.88765
10.12 4.9177
10.13 4.89026
10.14 4.79927
10.15 4.65668
10.16 4.46104
10.17 4.22229
10.18 3.94714
10.19 3.64217
10.2 3.31838
10.21 2.98228
10.22 2.64378
10.23 2.31023
10.24 1.98925
10.25 1.68543
10.26 1.40668
10.27 1.15289
10.28 0.929419
10.29 0.735225
10.3 0.570013
10.31 0.434101
10.32 0.322097
10.33 0.234418
10.34 0.164429
10.35 0.109642
10.36 0.0657461
10.37 0.0285934
10.38 -0.0049128
10.39 -0.0382154
10.4 -0.0738771
10.41 -0.113757
10.42 -0.159053
10.43 -0.210873
10.44 -0.268573
10.45 -0.332622
10.46 -0.401373
10.47 -0.474013
10.48 -0.549013
10.49 -0.624845
10.5 -0.699845
10.51 -0.772694
10.52 -0.841714
10.53 -0.905886
10.54 -0.964276
10.55 -1.01562
10.56 -1.06017
10.57 -1.09644
10.58 -1.12529
10.59 -1.14618
10.6 -1.15925
10.61 -1.16522
10.62 -1.16345
10.63 -1.15538
10.64 -1.14067
10.65 -1.12024
10.66 -1.09457
10.67 -1.06394
10.68 -1.02947
10.69 -0.991264
10.7 -0.950512
10.71 -0.907784
10.72 -0.86398
10.73 -0.819952
10.74 -0.776703
10.75 -0.734994
10.76 -0.695939
10.77 -0.660271
10.78 -0.628729
10.79 -0.602382
10.8 -0.581191
10.81 -0.566486
10.82 -0.55777
10.83 -0.555596
10.84 -0.559937
10.85 -0.5702
10.86 -0.586835
10.87 -0.608506
10.88 -0.63524
10.89 -0.666004
10.9 -0.700103
10.91 -0.736878
10.92 -0.775293
10.93 -0.814713
10.94 -0.854227
10.95 -0.893123
10.96 -0.930651
10.97 -0.966337
10.98 -0.999296
10.99 -1.02946
11 -1.05611
11.01 -1.07919
11.02 -1.09854
11.03 -1.11385
11.04 -1.12564
11.05 -1.13353
11.06 -1.13832
11.07 -1.14018
11.08 -1.13966
11.09 -1.13747
11.1 -1.13411
11.11 -1.13041
11.12 -1.12698
11.13 -1.12445
11.14 -1.12326
11.15 -1.12386
11.16 -1.12614
11.17 -1.13015
11.18 -1.13516
11.19 -1.14044
11.2 -1.14465
11.21 -1.14646
11.22 -1.14333
11.23 -1.13386
11.24 -1.11481
11.25 -1.08413
11.26 -1.0395
11.27 -0.977264
11.28 -0.89744
11.29 -0.795292
11.3 -0.672319
11.31 -0.52658
11.32 -0.358243
11.33 -0.169741
11.34 0.039651
11.35 0.264388
11.36 0.502715
11.37 0.749263
11.38 0.999439
11.39 1.24745
11.4 1.48835
11.41 1.71463
11.42 1.92244
11.43 2.10547
11.44 2.25859
11.45 2.38033
11.46 2.46278
11.47 2.50962
11.48 2.51567
11.49 2.48385
11.5 2.41571
11.51 2.31162
11.52 2.1789
11.53 2.01784
11.54 1.8369
11.55 1.63996
11.56 1.43304
11.57 1.22178
11.58 1.01156
11.59 0.806829
11.6 0.612455
11.61 0.431338
11.62 0.265761
11.63 0.118633
11.64 -0.0114639
11.65 -0.121969
11.66 -0.216152
11.67 -0.294413
11.68 -0.358925
11.69 -0.412769
11.7 -0.457338
11.71 -0.496385
11.72 -0.531692
11.73 -0.56573
11.74 -0.600122
11.75 -0.636324
11.76 -0.674824
11.77 -0.716224
11.78 -0.759852
11.79 -0.805081
11.8 -0.85058
11.81 -0.894931
11.82 -0.935895
11.83 -0.97208
11.84 -1.00088
11.85 -1.02072
11.86 -1.03002
11.87 -1.02631
11.88 -1.00995
11.89 -0.977989
11.9 -0.931821
11.91 -0.87045
11.92 -0.794188
11.93 -0.704723
11.94 -0.601408
11.95 -0.487575
11.96 -0.363718
11.97 -0.232548
11.98 -0.0961517
11.99 0.0431803
12 0.182847
12.01 0.320093
12.02 0.452651
12.03 0.57783
12.04 0.693023
12.05 0.796952
12.06 0.885726
12.07 0.959858
12.08 1.01619
12.09 1.05476
12.1 1.07514
12.11 1.07591
12.12 1.0596
12.13 1.02442
12.14 0.973906
12.15 0.908667
12.16 0.830865
12.17 0.743475
12.18 0.648021
12.19 0.548195
12.2 0.446189
12.21 0.344857
12.22 0.246413
12.23 0.15343
12.24 0.0668728
12.25 -0.01082
12.26 -0.0798997
12.27 -0.139534
12.28 -0.189903
12.29 -0.232261
12.3 -0.266675
12.31 -0.295616
12.32 -0.320076
12.33 -0.34215
12.34 -0.363449
12.35 -0.385707
12.36 -0.410049
12.37 -0.437909
12.38 -0.469447
12.39 -0.504985
