# xPDFsuite Configuration #
[PDF]
wavelength = 0.1432
dataformat = twotheta
inputfile = 1_1Pd_CeO2_cycle-00248.chi
backgroundfile = background-00000.chi
mode = xray
bgscale = 1.007
composition = CeO2
outputtype = gr
qmaxinst = 28.8974762299
qmin = 0.5
qmax = 27.9
rmax = 50.0
rmin = 0.0
rstep = 0.01
rpoly = 1.8657

[Misc]
inputdir = G:/SankarDec16/1Pd/Chi
savedir = D:/DATA/APS_CeO2/1Pd
backgroundfilefull = G:/SankarDec16/Background/background-00000.chi

#### start data
#S 1
#L r($\AA$)  G($\AA^{-2}$)
0 0
0.01 -0.00503473
0.02 -0.00968968
0.03 -0.0135739
0.04 -0.0163929
0.05 -0.0179829
0.06 -0.0180809
0.07 -0.0168625
0.08 -0.0142435
0.09 -0.0105591
0.1 -0.00604147
0.11 -0.00104563
0.12 0.00404162
0.13 0.00878593
0.14 0.0128804
0.15 0.0159488
0.16 0.0177714
0.17 0.0182609
0.18 0.017239
0.19 0.0149642
0.2 0.0114483
0.21 0.00708222
0.22 0.00215526
0.23 -0.00293371
0.24 -0.00782097
0.25 -0.0120385
0.26 -0.0153671
0.27 -0.0174637
0.28 -0.0181938
0.29 -0.0175511
0.3 -0.0154505
0.31 -0.0122217
0.32 -0.00797127
0.33 -0.00312778
0.34 0.00197649
0.35 0.00691787
0.36 0.0113734
0.37 0.0148642
0.38 0.0172693
0.39 0.0182955
0.4 0.0179005
0.41 0.0161594
0.42 0.013085
0.43 0.00906211
0.44 0.0042876
0.45 -0.000793149
0.46 -0.00582091
0.47 -0.0103674
0.48 -0.0141664
0.49 -0.0167514
0.5 -0.0181058
0.51 -0.018001
0.52 -0.016489
0.53 -0.0137231
0.54 -0.00981417
0.55 -0.00518352
0.56 -0.000109042
0.57 0.00496826
0.58 0.0096798
0.59 0.0136132
0.6 0.0165724
0.61 0.0181259
0.62 0.0183628
0.63 0.0171305
0.64 0.0145734
0.65 0.0109162
0.66 0.00636246
0.67 0.00135011
0.68 -0.00377521
0.69 -0.00859803
0.7 -0.0127584
0.71 -0.0158797
0.72 -0.0178458
0.73 -0.0182811
0.74 -0.0173762
0.75 -0.0150619
0.76 -0.0115678
0.77 -0.00717839
0.78 -0.00217976
0.79 0.00299556
0.8 0.00795262
0.81 0.0123223
0.82 0.0157724
0.83 0.0179817
0.84 0.01892
0.85 0.0182883
0.86 0.0163679
0.87 0.0131768
0.88 0.00901702
0.89 0.00421597
0.9 -0.000875204
0.91 -0.00585579
0.92 -0.0103086
0.93 -0.0139363
0.94 -0.0164604
0.95 -0.017644
0.96 -0.0175509
0.97 -0.0159961
0.98 -0.0133398
0.99 -0.00970544
1 -0.00546157
1.01 -0.00096713
1.02 0.0033607
1.03 0.00718599
1.04 0.0100765
1.05 0.0118396
1.06 0.0122738
1.07 0.0112558
1.08 0.00897145
1.09 0.00538878
1.1 0.000971369
1.11 -0.00400991
1.12 -0.00908407
1.13 -0.0138318
1.14 -0.0177037
1.15 -0.0204213
1.16 -0.0214546
1.17 -0.0207016
1.18 -0.0179866
1.19 -0.0132411
1.2 -0.00678769
1.21 0.00136341
1.22 0.0105776
1.23 0.0204901
1.24 0.0304968
1.25 0.0400695
1.26 0.0485156
1.27 0.0554847
1.28 0.0602902
1.29 0.0627699
1.3 0.0626435
1.31 0.0597184
1.32 0.0543177
1.33 0.0462253
1.34 0.0361515
1.35 0.024306
1.36 0.0112698
1.37 -0.0024181
1.38 -0.0161944
1.39 -0.0295394
1.4 -0.0418617
1.41 -0.052807
1.42 -0.0620052
1.43 -0.0691092
1.44 -0.074187
1.45 -0.0768166
1.46 -0.0773943
1.47 -0.0758217
1.48 -0.0723448
1.49 -0.067234
1.5 -0.0605902
1.51 -0.0528473
1.52 -0.0441199
1.53 -0.0347448
1.54 -0.0249131
1.55 -0.0148326
1.56 -0.00469307
1.57 0.0053187
1.58 0.0150601
1.59 0.0243441
1.6 0.0330027
1.61 0.0408984
1.62 0.0477347
1.63 0.0534626
1.64 0.0577163
1.65 0.06043
1.66 0.0613963
1.67 0.0603936
1.68 0.0575339
1.69 0.0524553
1.7 0.0455261
1.71 0.0366796
1.72 0.0261868
1.73 0.0143684
1.74 0.00147898
1.75 -0.0119645
1.76 -0.0255733
1.77 -0.0388701
1.78 -0.0514398
1.79 -0.0628266
1.8 -0.0728645
1.81 -0.0810587
1.82 -0.0875666
1.83 -0.0922208
1.84 -0.0951971
1.85 -0.0967663
1.86 -0.0971345
1.87 -0.0968163
1.88 -0.0961644
1.89 -0.0956486
1.9 -0.0956449
1.91 -0.0965388
1.92 -0.0984517
1.93 -0.101695
1.94 -0.106053
1.95 -0.111479
1.96 -0.117628
1.97 -0.124095
1.98 -0.130338
1.99 -0.13585
2 -0.139897
2.01 -0.142012
2.02 -0.141644
2.03 -0.138215
2.04 -0.131743
2.05 -0.121494
2.06 -0.10799
2.07 -0.0910231
2.08 -0.0709482
2.09 -0.0482089
2.1 -0.0229931
2.11 0.00395258
2.12 0.0323914
2.13 0.0617756
2.14 0.0918285
2.15 0.12234
2.16 0.153182
2.17 0.184454
2.18 0.216241
2.19 0.248829
2.2 0.282506
2.21 0.317491
2.22 0.3542
2.23 0.392533
2.24 0.43268
2.25 0.474233
2.26 0.51678
2.27 0.559549
2.28 0.601642
2.29 0.641553
2.3 0.678218
2.31 0.709828
2.32 0.73484
2.33 0.752142
2.34 0.759327
2.35 0.756636
2.36 0.741862
2.37 0.715662
2.38 0.677802
2.39 0.628423
2.4 0.569607
2.41 0.501433
2.42 0.427149
2.43 0.348334
2.44 0.267716
2.45 0.18766
2.46 0.111035
2.47 0.0395465
2.48 -0.024005
2.49 -0.078703
2.5 -0.123324
2.51 -0.156899
2.52 -0.180601
2.53 -0.193443
2.54 -0.198152
2.55 -0.195493
2.56 -0.187707
2.57 -0.176922
2.58 -0.165257
2.59 -0.154764
2.6 -0.147548
2.61 -0.144863
2.62 -0.147814
2.63 -0.157247
2.64 -0.172542
2.65 -0.194164
2.66 -0.220254
2.67 -0.249937
2.68 -0.281401
2.69 -0.312982
2.7 -0.342702
2.71 -0.369284
2.72 -0.390869
2.73 -0.406879
2.74 -0.416677
2.75 -0.419963
2.76 -0.417802
2.77 -0.410313
2.78 -0.399585
2.79 -0.386904
2.8 -0.374249
2.81 -0.363285
2.82 -0.356152
2.83 -0.353724
2.84 -0.357785
2.85 -0.368394
2.86 -0.385775
2.87 -0.409672
2.88 -0.43852
2.89 -0.471471
2.9 -0.506091
2.91 -0.540483
2.92 -0.572309
2.93 -0.599765
2.94 -0.620241
2.95 -0.633261
2.96 -0.636802
2.97 -0.631322
2.98 -0.616891
2.99 -0.594176
3 -0.565389
3.01 -0.53181
3.02 -0.496508
3.03 -0.461864
3.04 -0.43067
3.05 -0.404999
3.06 -0.387844
3.07 -0.379571
3.08 -0.382364
3.09 -0.395475
3.1 -0.418627
3.11 -0.450835
3.12 -0.489474
3.13 -0.532884
3.14 -0.577644
3.15 -0.621046
3.16 -0.660089
3.17 -0.692662
3.18 -0.715711
3.19 -0.729178
3.2 -0.731132
3.21 -0.722822
3.22 -0.70505
3.23 -0.679507
3.24 -0.649266
3.25 -0.617
3.26 -0.586287
3.27 -0.560546
3.28 -0.543014
3.29 -0.535742
3.3 -0.542117
3.31 -0.561382
3.32 -0.595385
3.33 -0.641888
3.34 -0.699339
3.35 -0.765056
3.36 -0.835006
3.37 -0.905288
3.38 -0.97164
3.39 -1.02963
3.4 -1.07543
3.41 -1.10682
3.42 -1.11977
3.43 -1.11583
3.44 -1.09305
3.45 -1.05473
3.46 -1.00319
3.47 -0.942163
3.48 -0.876789
3.49 -0.812166
3.5 -0.753314
3.51 -0.705495
3.52 -0.672828
3.53 -0.657289
3.54 -0.66245
3.55 -0.685286
3.56 -0.725814
3.57 -0.778174
3.58 -0.836933
3.59 -0.893852
3.6 -0.941104
3.61 -0.965861
3.62 -0.96135
3.63 -0.915273
3.64 -0.818998
3.65 -0.668063
3.66 -0.450091
3.67 -0.171162
3.68 0.176958
3.69 0.585217
3.7 1.04908
3.71 1.56079
3.72 2.10481
3.73 2.67049
3.74 3.23897
3.75 3.79393
3.76 4.31707
3.77 4.79455
3.78 5.20332
3.79 5.5395
3.8 5.78157
3.81 5.92917
3.82 5.97598
3.83 5.91642
3.84 5.76374
3.85 5.50902
3.86 5.17598
3.87 4.76912
3.88 4.30522
3.89 3.801
3.9 3.2703
3.91 2.73189
3.92 2.20102
3.93 1.69171
3.94 1.21593
3.95 0.78623
3.96 0.404482
3.97 0.0841389
3.98 -0.181694
3.99 -0.388746
4 -0.541557
4.01 -0.647175
4.02 -0.707526
4.03 -0.735627
4.04 -0.735571
4.05 -0.718052
4.06 -0.689877
4.07 -0.658151
4.08 -0.628389
4.09 -0.605961
4.1 -0.592782
4.11 -0.591206
4.12 -0.601229
4.13 -0.62144
4.14 -0.650832
4.15 -0.685706
4.16 -0.723565
4.17 -0.76081
4.18 -0.794487
4.19 -0.821312
4.2 -0.839911
4.21 -0.846949
4.22 -0.843058
4.23 -0.826927
4.24 -0.799127
4.25 -0.760964
4.26 -0.712648
4.27 -0.656947
4.28 -0.594595
4.29 -0.527832
4.3 -0.457972
4.31 -0.386282
4.32 -0.313835
4.33 -0.241273
4.34 -0.168993
4.35 -0.0971531
4.36 -0.0257203
4.37 0.0454177
4.38 0.116315
4.39 0.186966
4.4 0.25708
4.41 0.326173
4.42 0.393468
4.43 0.457649
4.44 0.5178
4.45 0.571424
4.46 0.617731
4.47 0.654368
4.48 0.679769
4.49 0.693188
4.5 0.691996
4.51 0.677518
4.52 0.647841
4.53 0.604658
4.54 0.548633
4.55 0.480836
4.56 0.404241
4.57 0.319989
4.58 0.231694
4.59 0.141582
4.6 0.0525035
4.61 -0.0333854
4.62 -0.113297
4.63 -0.186421
4.64 -0.250597
4.65 -0.305883
4.66 -0.352018
4.67 -0.389033
4.68 -0.418654
4.69 -0.441037
4.7 -0.458679
4.71 -0.472746
4.72 -0.485062
4.73 -0.497089
4.74 -0.510261
4.75 -0.52535
4.76 -0.543249
4.77 -0.563952
4.78 -0.587344
4.79 -0.612971
4.8 -0.63987
4.81 -0.667097
4.82 -0.693484
4.83 -0.717852
4.84 -0.739118
4.85 -0.756659
4.86 -0.769353
4.87 -0.777572
4.88 -0.780771
4.89 -0.77975
4.9 -0.77507
4.91 -0.767576
4.92 -0.758542
4.93 -0.749039
4.94 -0.740293
4.95 -0.733415
4.96 -0.729339
4.97 -0.728528
4.98 -0.731805
4.99 -0.738703
5 -0.749471
5.01 -0.763294
5.02 -0.779561
5.03 -0.79744
5.04 -0.815925
5.05 -0.834062
5.06 -0.851053
5.07 -0.8661
5.08 -0.878667
5.09 -0.888582
5.1 -0.895396
5.11 -0.899586
5.12 -0.901025
5.13 -0.900228
5.14 -0.897424
5.15 -0.89273
5.16 -0.886373
5.17 -0.877839
5.18 -0.866935
5.19 -0.852658
5.2 -0.833856
5.21 -0.80949
5.22 -0.77706
5.23 -0.736013
5.24 -0.683421
5.25 -0.618598
5.26 -0.540173
5.27 -0.446586
5.28 -0.339217
5.29 -0.216268
5.3 -0.0811225
5.31 0.0653019
5.32 0.219779
5.33 0.378712
5.34 0.53793
5.35 0.693064
5.36 0.838514
5.37 0.969997
5.38 1.08292
5.39 1.17166
5.4 1.23554
5.41 1.26732
5.42 1.26977
5.43 1.23984
5.44 1.17875
5.45 1.08974
5.46 0.97272
5.47 0.835088
5.48 0.678987
5.49 0.511314
5.5 0.337074
5.51 0.162152
5.52 -0.00855331
5.53 -0.168785
5.54 -0.315808
5.55 -0.44523
5.56 -0.554776
5.57 -0.644237
5.58 -0.710814
5.59 -0.758182
5.6 -0.785397
5.61 -0.79637
5.62 -0.793418
5.63 -0.779216
5.64 -0.757749
5.65 -0.731166
5.66 -0.702807
5.67 -0.674626
5.68 -0.648338
5.69 -0.624706
5.7 -0.604382
5.71 -0.58661
5.72 -0.570822
5.73 -0.555542
5.74 -0.539347
5.75 -0.520404
5.76 -0.497628
5.77 -0.468933
5.78 -0.434255
5.79 -0.392709
5.8 -0.344593
5.81 -0.290933
5.82 -0.232564
5.83 -0.171842
5.84 -0.110778
5.85 -0.0519766
5.86 0.00211166
5.87 0.0484454
5.88 0.085779
5.89 0.110444
5.9 0.122782
5.91 0.120965
5.92 0.105042
5.93 0.0761931
5.94 0.0341053
5.95 -0.01788
5.96 -0.0788747
5.97 -0.145683
5.98 -0.216007
5.99 -0.287213
6 -0.357079
6.01 -0.423055
6.02 -0.484045
6.03 -0.538524
6.04 -0.585932
6.05 -0.626569
6.06 -0.660079
6.07 -0.688213
6.08 -0.711479
6.09 -0.731671
6.1 -0.750082
6.11 -0.768136
6.12 -0.786934
6.13 -0.807609
6.14 -0.830432
6.15 -0.855713
6.16 -0.883133
6.17 -0.912018
6.18 -0.941499
6.19 -0.970433
6.2 -0.997481
6.21 -1.02156
6.22 -1.04165
6.23 -1.05668
6.24 -1.06677
6.25 -1.07104
6.26 -1.07061
6.27 -1.06578
6.28 -1.05772
6.29 -1.04771
6.3 -1.03694
6.31 -1.02663
6.32 -1.01778
6.33 -1.01076
6.34 -1.00546
6.35 -1.00105
6.36 -0.995982
6.37 -0.987395
6.38 -0.972548
6.39 -0.947105
6.4 -0.90641
6.41 -0.846958
6.42 -0.760891
6.43 -0.647392
6.44 -0.498608
6.45 -0.313855
6.46 -0.0906824
6.47 0.173797
6.48 0.474485
6.49 0.814593
6.5 1.18454
6.51 1.58101
6.52 1.99549
6.53 2.41897
6.54 2.84122
6.55 3.25229
6.56 3.63933
6.57 3.99292
6.58 4.30313
6.59 4.55742
6.6 4.75473
6.61 4.87884
6.62 4.93571
6.63 4.9181
6.64 4.82761
6.65 4.67071
6.66 4.44472
6.67 4.16543
6.68 3.83469
6.69 3.46654
6.7 3.07041
6.71 2.65701
6.72 2.23805
6.73 1.82439
6.74 1.42488
6.75 1.04886
6.76 0.70358
6.77 0.392256
6.78 0.123366
6.79 -0.10693
6.8 -0.293268
6.81 -0.440187
6.82 -0.549528
6.83 -0.623143
6.84 -0.668672
6.85 -0.68677
6.86 -0.686002
6.87 -0.669496
6.88 -0.642334
6.89 -0.608755
6.9 -0.571851
6.91 -0.534643
6.92 -0.499163
6.93 -0.466641
6.94 -0.437754
6.95 -0.412905
6.96 -0.391481
6.97 -0.373553
6.98 -0.358106
6.99 -0.344834
7 -0.333288
7.01 -0.323204
7.02 -0.314849
7.03 -0.308315
7.04 -0.304452
7.05 -0.303879
7.06 -0.307478
7.07 -0.316517
7.08 -0.331195
7.09 -0.353227
7.1 -0.382063
7.11 -0.418352
7.12 -0.46171
7.13 -0.511143
7.14 -0.566221
7.15 -0.624858
7.16 -0.685781
7.17 -0.746893
7.18 -0.806398
7.19 -0.862113
7.2 -0.912892
7.21 -0.956289
7.22 -0.992211
7.23 -1.01943
7.24 -1.03785
7.25 -1.04823
7.26 -1.05041
7.27 -1.0466
7.28 -1.03754
7.29 -1.02536
7.3 -1.01166
7.31 -0.998238
7.32 -0.986422
7.33 -0.977821
7.34 -0.972777
7.35 -0.971845
7.36 -0.974696
7.37 -0.980385
7.38 -0.98774
7.39 -0.994807
7.4 -0.99926
7.41 -0.998719
7.42 -0.990712
7.43 -0.971957
7.44 -0.941446
7.45 -0.894923
7.46 -0.832924
7.47 -0.753237
7.48 -0.655677
7.49 -0.541591
7.5 -0.410128
7.51 -0.265377
7.52 -0.108212
7.53 0.0572496
7.54 0.227786
7.55 0.399378
7.56 0.568262
7.57 0.729431
7.58 0.879987
7.59 1.01556
7.6 1.1328
7.61 1.23031
7.62 1.30313
7.63 1.35326
7.64 1.377
7.65 1.37624
7.66 1.35139
7.67 1.30248
7.68 1.23377
7.69 1.1446
7.7 1.0404
7.71 0.922899
7.72 0.795695
7.73 0.662336
7.74 0.52581
7.75 0.389609
7.76 0.256948
7.77 0.130525
7.78 0.0127693
7.79 -0.0933495
7.8 -0.187419
7.81 -0.265836
7.82 -0.329648
7.83 -0.377139
7.84 -0.40831
7.85 -0.424361
7.86 -0.424144
7.87 -0.410928
7.88 -0.384578
7.89 -0.347946
7.9 -0.302907
7.91 -0.25157
7.92 -0.196859
7.93 -0.141091
7.94 -0.0869568
7.95 -0.0369705
7.96 0.00642756
7.97 0.0417842
7.98 0.0661154
7.99 0.07969
8 0.0802585
8.01 0.0683869
8.02 0.0441096
8.03 0.00740027
8.04 -0.0394244
8.05 -0.0963718
8.06 -0.160319
8.07 -0.229847
8.08 -0.302574
8.09 -0.376351
8.1 -0.448943
8.11 -0.518729
8.12 -0.583719
8.13 -0.642996
8.14 -0.695787
8.15 -0.741332
8.16 -0.78051
8.17 -0.812856
8.18 -0.840132
8.19 -0.863043
8.2 -0.883015
8.21 -0.901413
8.22 -0.919421
8.23 -0.938034
8.24 -0.957988
8.25 -0.979381
8.26 -1.0019
8.27 -1.0246
8.28 -1.04608
8.29 -1.06384
8.3 -1.07578
8.31 -1.07856
8.32 -1.06875
8.33 -1.04407
8.34 -0.99883
8.35 -0.932964
8.36 -0.841196
8.37 -0.723356
8.38 -0.578215
8.39 -0.403908
8.4 -0.204317
8.41 0.0226173
8.42 0.270414
8.43 0.536861
8.44 0.816554
8.45 1.10363
8.46 1.39192
8.47 1.67498
8.48 1.94512
8.49 2.19627
8.5 2.4224
8.51 2.61554
8.52 2.77475
8.53 2.88995
8.54 2.96395
8.55 2.99194
8.56 2.97379
8.57 2.91301
8.58 2.80631
8.59 2.66301
8.6 2.48279
8.61 2.27349
8.62 2.04023
8.63 1.78837
8.64 1.52563
8.65 1.25729
8.66 0.990107
8.67 0.729625
8.68 0.481267
8.69 0.248214
8.7 0.0365107
8.71 -0.154268
8.72 -0.319706
8.73 -0.460738
8.74 -0.577283
8.75 -0.668792
8.76 -0.739377
8.77 -0.787966
8.78 -0.819927
8.79 -0.836738
8.8 -0.841734
8.81 -0.838353
8.82 -0.828819
8.83 -0.816558
8.84 -0.803715
8.85 -0.79248
8.86 -0.784394
8.87 -0.781007
8.88 -0.782517
8.89 -0.790123
8.9 -0.803012
8.91 -0.82123
8.92 -0.844052
8.93 -0.870439
8.94 -0.899743
8.95 -0.930567
8.96 -0.962023
8.97 -0.993033
8.98 -1.02277
8.99 -1.05035
9 -1.07547
9.01 -1.09731
9.02 -1.11609
9.03 -1.13151
9.04 -1.14371
9.05 -1.15303
9.06 -1.15937
9.07 -1.16339
9.08 -1.16502
9.09 -1.16461
9.1 -1.1622
9.11 -1.1576
9.12 -1.15087
9.13 -1.1413
9.14 -1.12879
9.15 -1.11258
9.16 -1.09202
9.17 -1.06682
9.18 -1.03566
9.19 -0.998891
9.2 -0.955445
9.21 -0.905624
9.22 -0.849497
9.23 -0.787093
9.24 -0.71971
9.25 -0.647626
9.26 -0.572701
9.27 -0.496178
9.28 -0.419911
9.29 -0.345533
9.3 -0.275456
9.31 -0.210856
9.32 -0.154204
9.33 -0.106554
9.34 -0.0690873
9.35 -0.0434274
9.36 -0.0287107
9.37 -0.0267524
9.38 -0.0355113
9.39 -0.0549557
9.4 -0.0836851
9.41 -0.119697
9.42 -0.161869
9.43 -0.207434
9.44 -0.254682
9.45 -0.301365
9.46 -0.345714
9.47 -0.385718
9.48 -0.420627
9.49 -0.448525
9.5 -0.469744
9.51 -0.483672
9.52 -0.490651
9.53 -0.491716
9.54 -0.487203
9.55 -0.479068
9.56 -0.468308
9.57 -0.456647
9.58 -0.445435
9.59 -0.436198
9.6 -0.429761
9.61 -0.427576
9.62 -0.4297
9.63 -0.436721
9.64 -0.448597
9.65 -0.464753
9.66 -0.485164
9.67 -0.508572
9.68 -0.534532
9.69 -0.562014
9.7 -0.590307
9.71 -0.618731
9.72 -0.646823
9.73 -0.674198
9.74 -0.700843
9.75 -0.726776
9.76 -0.752217
9.77 -0.777436
9.78 -0.802671
9.79 -0.82803
9.8 -0.853412
9.81 -0.878357
9.82 -0.902075
9.83 -0.923008
9.84 -0.939795
9.85 -0.949138
9.86 -0.94911
9.87 -0.93588
9.88 -0.905618
9.89 -0.856058
9.9 -0.78033
9.91 -0.678733
9.92 -0.544908
9.93 -0.378498
9.94 -0.178014
9.95 0.059324
9.96 0.328862
9.97 0.633673
9.98 0.966101
9.99 1.32379
10 1.7005
10.01 2.08893
10.02 2.48198
10.03 2.87113
10.04 3.24705
10.05 3.60158
10.06 3.92692
10.07 4.21247
10.08 4.45638
10.09 4.64555
10.1 4.78247
10.11 4.86072
10.12 4.87913
10.13 4.84198
10.14 4.74401
10.15 4.59712
10.16 4.40035
10.17 4.16343
10.18 3.89287
10.19 3.59504
10.2 3.28022
10.21 2.95457
10.22 2.62716
10.23 2.30475
10.24 1.99427
10.25 1.69984
10.26 1.42866
10.27 1.18054
10.28 0.960389
10.29 0.76725
10.3 0.60091
10.31 0.461785
10.32 0.345019
10.33 0.251245
10.34 0.174467
10.35 0.112624
10.36 0.0619203
10.37 0.0185787
10.38 -0.0200061
10.39 -0.0571841
10.4 -0.0952144
10.41 -0.136014
10.42 -0.180844
10.43 -0.230906
10.44 -0.285919
10.45 -0.346535
10.46 -0.411523
10.47 -0.480362
10.48 -0.551842
10.49 -0.624642
10.5 -0.697371
10.51 -0.768699
10.52 -0.837055
10.53 -0.901291
10.54 -0.96034
10.55 -1.01275
10.56 -1.05852
10.57 -1.0959
10.58 -1.12551
10.59 -1.14658
10.6 -1.15908
10.61 -1.16369
10.62 -1.15965
10.63 -1.1486
10.64 -1.13026
10.65 -1.10582
10.66 -1.07604
10.67 -1.04154
10.68 -1.00369
10.69 -0.963049
10.7 -0.920951
10.71 -0.878247
10.72 -0.835978
10.73 -0.794935
10.74 -0.75625
10.75 -0.72031
10.76 -0.688117
10.77 -0.65999
10.78 -0.636303
10.79 -0.617679
10.8 -0.603705
10.81 -0.595181
10.82 -0.591388
10.83 -0.592518
10.84 -0.598345
10.85 -0.608319
10.86 -0.622673
10.87 -0.640481
10.88 -0.661818
10.89 -0.686089
10.9 -0.712956
10.91 -0.742188
10.92 -0.77318
10.93 -0.805782
10.94 -0.839383
10.95 -0.87363
10.96 -0.908013
10.97 -0.94207
10.98 -0.97515
10.99 -1.00686
11 -1.03648
11.01 -1.06358
11.02 -1.0877
11.03 -1.10819
11.04 -1.12516
11.05 -1.13786
11.06 -1.14677
11.07 -1.15179
11.08 -1.15325
11.09 -1.15182
11.1 -1.1478
11.11 -1.14228
11.12 -1.13588
11.13 -1.12951
11.14 -1.12386
11.15 -1.11966
11.16 -1.11712
11.17 -1.11661
11.18 -1.11764
11.19 -1.1197
11.2 -1.12165
11.21 -1.12216
11.22 -1.11888
11.23 -1.1102
11.24 -1.09289
11.25 -1.06469
11.26 -1.02309
11.27 -0.964259
11.28 -0.887977
11.29 -0.78931
11.3 -0.669596
11.31 -0.526745
11.32 -0.360828
11.33 -0.174269
11.34 0.0337227
11.35 0.257482
11.36 0.495225
11.37 0.741449
11.38 0.991453
11.39 1.23932
11.4 1.48001
11.41 1.70593
11.42 1.91315
11.43 2.09538
11.44 2.2475
11.45 2.36808
11.46 2.44933
11.47 2.495
11.48 2.50005
11.49 2.46753
11.5 2.39907
11.51 2.29518
11.52 2.16317
11.53 2.00342
11.54 1.8243
11.55 1.62966
11.56 1.42539
11.57 1.21701
11.58 1.00974
11.59 0.807835
11.6 0.616
11.61 0.436986
11.62 0.272959
11.63 0.12669
11.64 -0.0031994
11.65 -0.114244
11.66 -0.209562
11.67 -0.289489
11.68 -0.356036
11.69 -0.412094
11.7 -0.458853
11.71 -0.49987
11.72 -0.536704
11.73 -0.571674
11.74 -0.606285
11.75 -0.641853
11.76 -0.678942
11.77 -0.718074
11.78 -0.758783
11.79 -0.800548
11.8 -0.842262
11.81 -0.882738
11.82 -0.920022
11.83 -0.952941
11.84 -0.979185
11.85 -0.997364
11.86 -1.00603
11.87 -1.00292
11.88 -0.988274
11.89 -0.95927
11.9 -0.917043
11.91 -0.860486
11.92 -0.789655
11.93 -0.705942
11.94 -0.608395
11.95 -0.500039
11.96 -0.381022
11.97 -0.253808
11.98 -0.120276
11.99 0.017542
12 0.156974
12.01 0.295479
12.02 0.430536
12.03 0.55939
12.04 0.6792
12.05 0.788377
12.06 0.882759
12.07 0.962486
12.08 1.02405
12.09 1.0672
12.1 1.09123
12.11 1.09442
12.12 1.0793
12.13 1.04381
12.14 0.991659
12.15 0.923487
12.16 0.841634
12.17 0.749369
12.18 0.648437
12.19 0.542934
12.2 0.435384
12.21 0.328992
12.22 0.226269
12.23 0.130154
12.24 0.0416782
12.25 -0.0363707
12.26 -0.104371
12.27 -0.161424
12.28 -0.207826
12.29 -0.245101
12.3 -0.273453
12.31 -0.295796
12.32 -0.313417
12.33 -0.328814
12.34 -0.343942
12.35 -0.360954
12.36 -0.381145
12.37 -0.406386
12.38 -0.436821
12.39 -0.472944
12.4 -0.514332
