# xPDFsuite Configuration #
[PDF]
wavelength = 0.1432
dataformat = twotheta
inputfile = 1_1Pd_CeO2_cycle-00008.chi
backgroundfile = background-00000.chi
mode = xray
bgscale = 1.007
composition = CeO2
outputtype = gr
qmaxinst = 28.8974762299
qmin = 0.5
qmax = 27.9
rmax = 50.0
rmin = 0.0
rstep = 0.01
rpoly = 1.8657

[Misc]
inputdir = G:/SankarDec16/1Pd/Chi
savedir = D:/DATA/APS_CeO2/1Pd
backgroundfilefull = G:/SankarDec16/Background/background-00000.chi

#### start data
#S 1
#L r($\AA$)  G($\AA^{-2}$)
0 0
0.01 -0.00712945
0.02 -0.0137224
0.03 -0.0192265
0.04 -0.0232254
0.05 -0.0254875
0.06 -0.0256401
0.07 -0.0239306
0.08 -0.0202386
0.09 -0.0150368
0.1 -0.00865187
0.11 -0.00158435
0.12 0.00561909
0.13 0.0123459
0.14 0.0181607
0.15 0.0225312
0.16 0.0251448
0.17 0.0258757
0.18 0.0244686
0.19 0.0212866
0.2 0.0163421
0.21 0.0101857
0.22 0.0032238
0.23 -0.00398172
0.24 -0.0109157
0.25 -0.0169181
0.26 -0.0216747
0.27 -0.0246988
0.28 -0.0257958
0.29 -0.0249521
0.3 -0.0220418
0.31 -0.017527
0.32 -0.0115524
0.33 -0.00472141
0.34 0.00249899
0.35 0.00951146
0.36 0.0158565
0.37 0.0208578
0.38 0.0243368
0.39 0.0258754
0.4 0.0254063
0.41 0.0230293
0.42 0.0187542
0.43 0.0131208
0.44 0.00639957
0.45 -0.00078108
0.46 -0.00791553
0.47 -0.0143984
0.48 -0.019848
0.49 -0.023603
0.5 -0.0256297
0.51 -0.0255983
0.52 -0.0235726
0.53 -0.0197615
0.54 -0.0143108
0.55 -0.00781291
0.56 -0.00065188
0.57 0.00654792
0.58 0.0132661
0.59 0.0189173
0.6 0.023216
0.61 0.0255471
0.62 0.0260238
0.63 0.0244208
0.64 0.0209305
0.65 0.0158616
0.66 0.00948985
0.67 0.0024329
0.68 -0.00482946
0.69 -0.0117059
0.7 -0.0176858
0.71 -0.0222312
0.72 -0.0251666
0.73 -0.0259522
0.74 -0.0248432
0.75 -0.0217295
0.76 -0.0169233
0.77 -0.0108183
0.78 -0.00380711
0.79 0.00349714
0.8 0.0105428
0.81 0.0167999
0.82 0.0217938
0.83 0.0250605
0.84 0.0265438
0.85 0.0258078
0.86 0.0232366
0.87 0.0188422
0.88 0.0130413
0.89 0.00629223
0.9 -0.000915871
0.91 -0.00800806
0.92 -0.0143924
0.93 -0.0196324
0.94 -0.0233201
0.95 -0.0250992
0.96 -0.0250429
0.97 -0.02286
0.98 -0.01905
0.99 -0.0137646
1 -0.00751636
1.01 -0.000812662
1.02 0.00576335
1.03 0.0117119
1.04 0.0164118
1.05 0.0195543
1.06 0.0208218
1.07 0.0199942
1.08 0.0172974
1.09 0.0126178
1.1 0.00658672
1.11 -0.000472928
1.12 -0.00792865
1.13 -0.0152046
1.14 -0.0215754
1.15 -0.0266113
1.16 -0.0295978
1.17 -0.0303383
1.18 -0.0285601
1.19 -0.0241212
1.2 -0.0174023
1.21 -0.00835752
1.22 0.00220758
1.23 0.0138662
1.24 0.0258599
1.25 0.0375195
1.26 0.0479984
1.27 0.0568286
1.28 0.0631817
1.29 0.0668411
1.3 0.0674748
1.31 0.0648693
1.32 0.0594211
1.33 0.0509288
1.34 0.0402508
1.35 0.0276902
1.36 0.0139642
1.37 -0.000278687
1.38 -0.0143397
1.39 -0.0276569
1.4 -0.0395438
1.41 -0.0496724
1.42 -0.0576902
1.43 -0.0633134
1.44 -0.0667328
1.45 -0.0676469
1.46 -0.0666074
1.47 -0.0636778
1.48 -0.059255
1.49 -0.053711
1.5 -0.0473128
1.51 -0.0404623
1.52 -0.0333771
1.53 -0.0262882
1.54 -0.0193254
1.55 -0.0125772
1.56 -0.0060426
1.57 0.000259087
1.58 0.0063966
1.59 0.0123858
1.6 0.0182428
1.61 0.0239481
1.62 0.0293967
1.63 0.0344949
1.64 0.0389917
1.65 0.0426967
1.66 0.0453347
1.67 0.0465579
1.68 0.0462729
1.69 0.0439619
1.7 0.0397741
1.71 0.0334606
1.72 0.0251271
1.73 0.0149957
1.74 0.00318048
1.75 -0.00974882
1.76 -0.0234541
1.77 -0.0373245
1.78 -0.050845
1.79 -0.0634036
1.8 -0.0746564
1.81 -0.0839079
1.82 -0.0911687
1.83 -0.0960962
1.84 -0.09876
1.85 -0.0993954
1.86 -0.0981294
1.87 -0.0956105
1.88 -0.092221
1.89 -0.0886344
1.9 -0.0853964
1.91 -0.0831233
1.92 -0.0821296
1.93 -0.0830202
1.94 -0.085687
1.95 -0.0902972
1.96 -0.0965904
1.97 -0.10416
1.98 -0.112541
1.99 -0.121009
2 -0.128787
2.01 -0.135132
2.02 -0.139287
2.03 -0.140402
2.04 -0.138266
2.05 -0.131831
2.06 -0.121497
2.07 -0.106837
2.08 -0.0881287
2.09 -0.0658262
2.1 -0.0400612
2.11 -0.0118063
2.12 0.018634
2.13 0.0504366
2.14 0.0831141
2.15 0.116194
2.16 0.149345
2.17 0.182385
2.18 0.215324
2.19 0.24829
2.2 0.281558
2.21 0.315419
2.22 0.350334
2.23 0.386451
2.24 0.424138
2.25 0.463274
2.26 0.503698
2.27 0.544937
2.28 0.586238
2.29 0.626425
2.3 0.664389
2.31 0.698451
2.32 0.726977
2.33 0.748692
2.34 0.761039
2.35 0.763898
2.36 0.754768
2.37 0.733929
2.38 0.700802
2.39 0.655138
2.4 0.598865
2.41 0.531615
2.42 0.456751
2.43 0.375685
2.44 0.291277
2.45 0.206123
2.46 0.123267
2.47 0.0448957
2.48 -0.0258444
2.49 -0.0875534
2.5 -0.138588
2.51 -0.177498
2.52 -0.205249
2.53 -0.220321
2.54 -0.225538
2.55 -0.221455
2.56 -0.210432
2.57 -0.194848
2.58 -0.176982
2.59 -0.159432
2.6 -0.144661
2.61 -0.134472
2.62 -0.130434
2.63 -0.13393
2.64 -0.144596
2.65 -0.163489
2.66 -0.188679
2.67 -0.219548
2.68 -0.254184
2.69 -0.29068
2.7 -0.32692
2.71 -0.361047
2.72 -0.390847
2.73 -0.415151
2.74 -0.432823
2.75 -0.442984
2.76 -0.446392
2.77 -0.442517
2.78 -0.433471
2.79 -0.420219
2.8 -0.404793
2.81 -0.389069
2.82 -0.375252
2.83 -0.364812
2.84 -0.359829
2.85 -0.360984
2.86 -0.368999
2.87 -0.384215
2.88 -0.405444
2.89 -0.432513
2.9 -0.463066
2.91 -0.495597
2.92 -0.527821
2.93 -0.55781
2.94 -0.583021
2.95 -0.602444
2.96 -0.613904
2.97 -0.617287
2.98 -0.612239
2.99 -0.598913
3 -0.579098
3.01 -0.553515
3.02 -0.525018
3.03 -0.495608
3.04 -0.467925
3.05 -0.44405
3.06 -0.426814
3.07 -0.416946
3.08 -0.416643
3.09 -0.425568
3.1 -0.443719
3.11 -0.470453
3.12 -0.503496
3.13 -0.541528
3.14 -0.581369
3.15 -0.620563
3.16 -0.656257
3.17 -0.686373
3.18 -0.707965
3.19 -0.720791
3.2 -0.722903
3.21 -0.715316
3.22 -0.698662
3.23 -0.674423
3.24 -0.645471
3.25 -0.614268
3.26 -0.584275
3.27 -0.558776
3.28 -0.540953
3.29 -0.532872
3.3 -0.537911
3.31 -0.55546
3.32 -0.587446
3.33 -0.631812
3.34 -0.68716
3.35 -0.750991
3.36 -0.819392
3.37 -0.888673
3.38 -0.954598
3.39 -1.01286
3.4 -1.05963
3.41 -1.09266
3.42 -1.10794
3.43 -1.10684
3.44 -1.08736
3.45 -1.05262
3.46 -1.00482
3.47 -0.947531
3.48 -0.885771
3.49 -0.824473
3.5 -0.768598
3.51 -0.723298
3.52 -0.692647
3.53 -0.67862
3.54 -0.684732
3.55 -0.708052
3.56 -0.748573
3.57 -0.800531
3.58 -0.858539
3.59 -0.914407
3.6 -0.96039
3.61 -0.983682
3.62 -0.977579
3.63 -0.929803
3.64 -0.831751
3.65 -0.678976
3.66 -0.459107
3.67 -0.178235
3.68 0.17187
3.69 0.582147
3.7 1.04805
3.71 1.5618
3.72 2.10784
3.73 2.67548
3.74 3.24584
3.75 3.80254
3.76 4.32725
3.77 4.80611
3.78 5.21601
3.79 5.55308
3.8 5.79578
3.81 5.94376
3.82 5.99073
3.83 5.93114
3.84 5.77829
3.85 5.5233
3.86 5.18996
3.87 4.78284
3.88 4.31875
3.89 3.81446
3.9 3.28386
3.91 2.74568
3.92 2.2152
3.93 1.70639
3.94 1.23116
3.95 0.801995
3.96 0.420688
3.97 0.100567
3.98 -0.165326
3.99 -0.372839
4 -0.526587
4.01 -0.633652
4.02 -0.696061
4.03 -0.726759
4.04 -0.72988
4.05 -0.716007
4.06 -0.691866
4.07 -0.66444
4.08 -0.639081
4.09 -0.620981
4.1 -0.611886
4.11 -0.61395
4.12 -0.626992
4.13 -0.64949
4.14 -0.680209
4.15 -0.715493
4.16 -0.752675
4.17 -0.788251
4.18 -0.819298
4.19 -0.842601
4.2 -0.857013
4.21 -0.8593
4.22 -0.850393
4.23 -0.82919
4.24 -0.796535
4.25 -0.753946
4.26 -0.701944
4.27 -0.643388
4.28 -0.579287
4.29 -0.5119
4.3 -0.442608
4.31 -0.372714
4.32 -0.303094
4.33 -0.234403
4.34 -0.166692
4.35 -0.0999424
4.36 -0.0338042
4.37 0.0321225
4.38 0.0982578
4.39 0.164822
4.4 0.231905
4.41 0.299176
4.42 0.366047
4.43 0.431384
4.44 0.494136
4.45 0.55199
4.46 0.603795
4.47 0.647101
4.48 0.680014
4.49 0.701443
4.5 0.708382
4.51 0.701763
4.52 0.679217
4.53 0.642103
4.54 0.590753
4.55 0.525868
4.56 0.450434
4.57 0.365183
4.58 0.274035
4.59 0.17916
4.6 0.0836707
4.61 -0.00992131
4.62 -0.0985474
4.63 -0.180849
4.64 -0.254233
4.65 -0.31825
4.66 -0.372199
4.67 -0.415601
4.68 -0.45002
4.69 -0.475052
4.7 -0.493358
4.71 -0.505904
4.72 -0.514668
4.73 -0.521411
4.74 -0.527742
4.75 -0.535038
4.76 -0.544581
4.77 -0.556958
4.78 -0.572558
4.79 -0.591517
4.8 -0.613161
4.81 -0.637193
4.82 -0.662404
4.83 -0.687903
4.84 -0.71254
4.85 -0.735429
4.86 -0.755341
4.87 -0.772003
4.88 -0.784495
4.89 -0.792948
4.9 -0.797359
4.91 -0.797896
4.92 -0.795451
4.93 -0.790331
4.94 -0.783731
4.95 -0.776371
4.96 -0.769189
4.97 -0.762884
4.98 -0.758317
4.99 -0.755731
5 -0.755731
5.01 -0.758262
5.02 -0.763344
5.03 -0.770914
5.04 -0.780456
5.05 -0.791891
5.06 -0.804548
5.07 -0.818125
5.08 -0.832162
5.09 -0.846286
5.1 -0.860097
5.11 -0.87331
5.12 -0.885477
5.13 -0.896277
5.14 -0.905255
5.15 -0.911688
5.16 -0.915205
5.17 -0.914329
5.18 -0.90864
5.19 -0.896549
5.2 -0.876747
5.21 -0.848358
5.22 -0.80876
5.23 -0.758197
5.24 -0.694035
5.25 -0.616496
5.26 -0.524947
5.27 -0.418752
5.28 -0.299989
5.29 -0.167939
5.3 -0.0263168
5.31 0.123256
5.32 0.277291
5.33 0.432298
5.34 0.58385
5.35 0.728418
5.36 0.860607
5.37 0.977103
5.38 1.07408
5.39 1.1469
5.4 1.19571
5.41 1.21442
5.42 1.20632
5.43 1.16917
5.44 1.10464
5.45 1.01597
5.46 0.903535
5.47 0.773952
5.48 0.629352
5.49 0.475693
5.5 0.317284
5.51 0.159113
5.52 0.0051467
5.53 -0.139402
5.54 -0.272497
5.55 -0.390606
5.56 -0.492027
5.57 -0.576729
5.58 -0.64251
5.59 -0.692463
5.6 -0.725814
5.61 -0.745719
5.62 -0.753962
5.63 -0.752525
5.64 -0.744512
5.65 -0.731275
5.66 -0.715399
5.67 -0.698099
5.68 -0.680502
5.69 -0.663111
5.7 -0.64601
5.71 -0.628794
5.72 -0.610679
5.73 -0.590717
5.74 -0.567855
5.75 -0.540753
5.76 -0.509023
5.77 -0.47115
5.78 -0.4277
5.79 -0.378351
5.8 -0.323876
5.81 -0.265531
5.82 -0.204585
5.83 -0.14317
5.84 -0.0834641
5.85 -0.0277021
5.86 0.0219295
5.87 0.0627425
5.88 0.0939895
5.89 0.112406
5.9 0.118778
5.91 0.111661
5.92 0.0914211
5.93 0.0593807
5.94 0.0154941
5.95 -0.0370713
5.96 -0.0973541
5.97 -0.162431
5.98 -0.230204
5.99 -0.298298
6 -0.364809
6.01 -0.427462
6.02 -0.485407
6.03 -0.537335
6.04 -0.582831
6.05 -0.622227
6.06 -0.655247
6.07 -0.683479
6.08 -0.707382
6.09 -0.728539
6.1 -0.748074
6.11 -0.767212
6.12 -0.786904
6.13 -0.808096
6.14 -0.83102
6.15 -0.85592
6.16 -0.882512
6.17 -0.910219
6.18 -0.938282
6.19 -0.96575
6.2 -0.991478
6.21 -1.01457
6.22 -1.03419
6.23 -1.04944
6.24 -1.06046
6.25 -1.06652
6.26 -1.06859
6.27 -1.06693
6.28 -1.06253
6.29 -1.05643
6.3 -1.04958
6.31 -1.04295
6.32 -1.03721
6.33 -1.03254
6.34 -1.02865
6.35 -1.02451
6.36 -1.01865
6.37 -1.00807
6.38 -0.990307
6.39 -0.961142
6.4 -0.916208
6.41 -0.852304
6.42 -0.761917
6.43 -0.644522
6.44 -0.492629
6.45 -0.305745
6.46 -0.0815928
6.47 0.182566
6.48 0.481784
6.49 0.819218
6.5 1.18566
6.51 1.57802
6.52 1.98817
6.53 2.40747
6.54 2.82617
6.55 3.23458
6.56 3.62031
6.57 3.97409
6.58 4.28612
6.59 4.54399
6.6 4.74635
6.61 4.87698
6.62 4.9413
6.63 4.93175
6.64 4.84937
6.65 4.70017
6.66 4.48083
6.67 4.20682
6.68 3.8794
6.69 3.51244
6.7 3.1152
6.71 2.69823
6.72 2.27359
6.73 1.8521
6.74 1.44329
6.75 1.05687
6.76 0.700732
6.77 0.378656
6.78 0.0998455
6.79 -0.139107
6.8 -0.332154
6.81 -0.483577
6.82 -0.594956
6.83 -0.667894
6.84 -0.71037
6.85 -0.722877
6.86 -0.714672
6.87 -0.689183
6.88 -0.652108
6.89 -0.608278
6.9 -0.561441
6.91 -0.515125
6.92 -0.472
6.93 -0.433619
6.94 -0.400949
6.95 -0.374673
6.96 -0.353933
6.97 -0.338991
6.98 -0.328251
6.99 -0.321183
7 -0.316818
7.01 -0.314382
7.02 -0.313607
7.03 -0.314127
7.04 -0.316269
7.05 -0.320364
7.06 -0.32705
7.07 -0.337368
7.08 -0.351709
7.09 -0.371651
7.1 -0.397103
7.11 -0.428915
7.12 -0.467123
7.13 -0.511137
7.14 -0.560966
7.15 -0.614865
7.16 -0.671969
7.17 -0.730381
7.18 -0.78847
7.19 -0.844201
7.2 -0.896246
7.21 -0.942226
7.22 -0.981667
7.23 -1.01316
7.24 -1.03627
7.25 -1.05144
7.26 -1.05819
7.27 -1.05847
7.28 -1.05274
7.29 -1.04301
7.3 -1.0308
7.31 -1.01783
7.32 -1.00561
7.33 -0.995721
7.34 -0.988803
7.35 -0.985553
7.36 -0.985878
7.37 -0.989032
7.38 -0.99405
7.39 -0.999085
7.4 -1.00195
7.41 -1.00028
7.42 -0.991581
7.43 -0.972538
7.44 -0.942005
7.45 -0.895623
7.46 -0.833767
7.47 -0.754091
7.48 -0.656289
7.49 -0.541646
7.5 -0.409224
7.51 -0.263178
7.52 -0.1044
7.53 0.0628572
7.54 0.235238
7.55 0.408537
7.56 0.578844
7.57 0.740911
7.58 0.891765
7.59 1.02688
7.6 1.14286
7.61 1.23836
7.62 1.30841
7.63 1.35523
7.64 1.37526
7.65 1.37067
7.66 1.34209
7.67 1.28985
7.68 1.21841
7.69 1.12745
7.7 1.02242
7.71 0.905205
7.72 0.779423
7.73 0.648486
7.74 0.515336
7.75 0.383128
7.76 0.254866
7.77 0.132892
7.78 0.0193334
7.79 -0.0832014
7.8 -0.17448
7.81 -0.251269
7.82 -0.314591
7.83 -0.362859
7.84 -0.395997
7.85 -0.414999
7.86 -0.418571
7.87 -0.409572
7.88 -0.387559
7.89 -0.354982
7.9 -0.313377
7.91 -0.264458
7.92 -0.211027
7.93 -0.155032
7.94 -0.0993072
7.95 -0.0463196
7.96 0.00128587
7.97 0.0417311
7.98 0.0717236
7.99 0.0910426
8 0.0969698
8.01 0.0896214
8.02 0.0686367
8.03 0.0335369
8.04 -0.0133931
8.05 -0.0725619
8.06 -0.140531
8.07 -0.215843
8.08 -0.295749
8.09 -0.377619
8.1 -0.45872
8.11 -0.536808
8.12 -0.609232
8.13 -0.674532
8.14 -0.731446
8.15 -0.778663
8.16 -0.8171
8.17 -0.84581
8.18 -0.867045
8.19 -0.881607
8.2 -0.891447
8.21 -0.898586
8.22 -0.904883
8.23 -0.912136
8.24 -0.921946
8.25 -0.935103
8.26 -0.951914
8.27 -0.972131
8.28 -0.994312
8.29 -1.01657
8.3 -1.03619
8.31 -1.04973
8.32 -1.05313
8.33 -1.04329
8.34 -1.01374
8.35 -0.963376
8.36 -0.885895
8.37 -0.78024
8.38 -0.644398
8.39 -0.475592
8.4 -0.277703
8.41 -0.0478127
8.42 0.206941
8.43 0.484351
8.44 0.778376
8.45 1.08225
8.46 1.38909
8.47 1.69118
8.48 1.97978
8.49 2.24775
8.5 2.48814
8.51 2.69191
8.52 2.85796
8.53 2.97518
8.54 3.0469
8.55 3.06815
8.56 3.03932
8.57 2.96474
8.58 2.84171
8.59 2.68082
8.6 2.48269
8.61 2.2563
8.62 2.0077
8.63 1.74331
8.64 1.47118
8.65 1.19761
8.66 0.929048
8.67 0.671267
8.68 0.429349
8.69 0.205783
8.7 0.00621102
8.71 -0.17096
8.72 -0.322078
8.73 -0.449112
8.74 -0.552819
8.75 -0.633609
8.76 -0.695948
8.77 -0.739676
8.78 -0.769965
8.79 -0.788543
8.8 -0.798507
8.81 -0.802737
8.82 -0.803162
8.83 -0.802229
8.84 -0.801468
8.85 -0.802197
8.86 -0.805258
8.87 -0.811404
8.88 -0.820512
8.89 -0.83303
8.9 -0.848277
8.91 -0.866079
8.92 -0.885889
8.93 -0.907099
8.94 -0.929276
8.95 -0.951797
8.96 -0.974237
8.97 -0.996195
8.98 -1.01738
8.99 -1.0375
9 -1.0565
9.01 -1.07411
9.02 -1.09043
9.03 -1.10533
9.04 -1.11879
9.05 -1.13084
9.06 -1.14122
9.07 -1.15003
9.08 -1.1569
9.09 -1.1617
9.1 -1.16414
9.11 -1.16367
9.12 -1.16023
9.13 -1.1528
9.14 -1.14139
9.15 -1.12524
9.16 -1.10383
9.17 -1.0771
9.18 -1.04391
9.19 -1.00492
9.2 -0.95927
9.21 -0.907495
9.22 -0.849806
9.23 -0.786366
9.24 -0.718444
9.25 -0.646351
9.26 -0.571777
9.27 -0.495845
9.28 -0.420208
9.29 -0.346323
9.3 -0.27637
9.31 -0.211429
9.32 -0.153809
9.33 -0.10456
9.34 -0.0648874
9.35 -0.0364898
9.36 -0.0187123
9.37 -0.0135644
9.38 -0.019281
9.39 -0.0361072
9.4 -0.0629314
9.41 -0.0979207
9.42 -0.140281
9.43 -0.187186
9.44 -0.237094
9.45 -0.287599
9.46 -0.336787
9.47 -0.382441
9.48 -0.423438
9.49 -0.457535
9.5 -0.484668
9.51 -0.503843
9.52 -0.515037
9.53 -0.5191
9.54 -0.515981
9.55 -0.507772
9.56 -0.495305
9.57 -0.480552
9.58 -0.465077
9.59 -0.450694
9.6 -0.438678
9.61 -0.430883
9.62 -0.427803
9.63 -0.430441
9.64 -0.439122
9.65 -0.453427
9.66 -0.473679
9.67 -0.498409
9.68 -0.527249
9.69 -0.558829
9.7 -0.592131
9.71 -0.626068
9.72 -0.659698
9.73 -0.692099
9.74 -0.722855
9.75 -0.751529
9.76 -0.778
9.77 -0.802466
9.78 -0.824854
9.79 -0.845643
9.8 -0.864759
9.81 -0.882238
9.82 -0.897736
9.83 -0.910269
9.84 -0.919042
9.85 -0.921486
9.86 -0.916091
9.87 -0.899585
9.88 -0.868507
9.89 -0.820611
9.9 -0.749393
9.91 -0.654611
9.92 -0.529858
9.93 -0.374122
9.94 -0.185353
9.95 0.0399438
9.96 0.297823
9.97 0.592237
9.98 0.916057
9.99 1.26761
10 1.64113
10.01 2.02938
10.02 2.42575
10.03 2.82111
10.04 3.2062
10.05 3.57214
10.06 3.91053
10.07 4.21007
10.08 4.46808
10.09 4.67061
10.1 4.8195
10.11 4.90758
10.12 4.93314
10.13 4.90031
10.14 4.80328
10.15 4.65444
10.16 4.45272
10.17 4.20846
10.18 3.92869
10.19 3.6204
10.2 3.29465
10.21 2.95832
10.22 2.62116
10.23 2.29055
10.24 1.97396
10.25 1.67566
10.26 1.40333
10.27 1.15639
10.28 0.939847
10.29 0.752209
10.3 0.59283
10.31 0.461596
10.32 0.352995
10.33 0.267027
10.34 0.197173
10.35 0.140842
10.36 0.0938374
10.37 0.0522873
10.38 0.013227
10.39 -0.0263106
10.4 -0.0685978
10.41 -0.115073
10.42 -0.166592
10.43 -0.223869
10.44 -0.286094
10.45 -0.353359
10.46 -0.424057
10.47 -0.497253
10.48 -0.571476
10.49 -0.645402
10.5 -0.717434
10.51 -0.786641
10.52 -0.851547
10.53 -0.911469
10.54 -0.965735
10.55 -1.01337
10.56 -1.05477
10.57 -1.08871
10.58 -1.11601
10.59 -1.13622
10.6 -1.1494
10.61 -1.15612
10.62 -1.15565
10.63 -1.14917
10.64 -1.13616
10.65 -1.11731
10.66 -1.09293
10.67 -1.06313
10.68 -1.02897
10.69 -0.990445
10.7 -0.948824
10.71 -0.904718
10.72 -0.859166
10.73 -0.813201
10.74 -0.768026
10.75 -0.724606
10.76 -0.684291
10.77 -0.647984
10.78 -0.616557
10.79 -0.591242
10.8 -0.57193
10.81 -0.560054
10.82 -0.554908
10.83 -0.556941
10.84 -0.565904
10.85 -0.580953
10.86 -0.602251
10.87 -0.62822
10.88 -0.658573
10.89 -0.692082
10.9 -0.727883
10.91 -0.765112
10.92 -0.802826
10.93 -0.84023
10.94 -0.876671
10.95 -0.911522
10.96 -0.944271
10.97 -0.974734
10.98 -1.00229
10.99 -1.02719
11 -1.04901
11.01 -1.06795
11.02 -1.08405
11.03 -1.09724
11.04 -1.10797
11.05 -1.11608
11.06 -1.12214
11.07 -1.12629
11.08 -1.12887
11.09 -1.13034
11.1 -1.13098
11.11 -1.13129
11.12 -1.13165
11.13 -1.13241
11.14 -1.13381
11.15 -1.13608
11.16 -1.1391
11.17 -1.14272
11.18 -1.14638
11.19 -1.14932
11.2 -1.15036
11.21 -1.14839
11.22 -1.14103
11.23 -1.12716
11.24 -1.10376
11.25 -1.06904
11.26 -1.02086
11.27 -0.955825
11.28 -0.873999
11.29 -0.770885
11.3 -0.647915
11.31 -0.503213
11.32 -0.336905
11.33 -0.151281
11.34 0.0544042
11.35 0.274866
11.36 0.508457
11.37 0.750031
11.38 0.995174
11.39 1.23829
11.4 1.4746
11.41 1.69681
11.42 1.90114
11.43 2.08145
11.44 2.2327
11.45 2.35342
11.46 2.43587
11.47 2.48358
11.48 2.49145
11.49 2.46229
11.5 2.39756
11.51 2.29757
11.52 2.16943
11.53 2.01334
11.54 1.83753
11.55 1.6457
11.56 1.44366
11.57 1.23688
11.58 1.03049
11.59 0.828817
11.6 0.636509
11.61 0.456396
11.62 0.29069
11.63 0.142185
11.64 0.00962741
11.65 -0.104504
11.66 -0.203196
11.67 -0.28672
11.68 -0.356987
11.69 -0.41679
11.7 -0.467197
11.71 -0.511673
11.72 -0.55163
11.73 -0.589285
11.74 -0.626035
11.75 -0.66304
11.76 -0.700858
11.77 -0.739823
11.78 -0.779542
11.79 -0.819435
11.8 -0.858435
11.81 -0.895487
11.82 -0.928681
11.83 -0.957097
11.84 -0.978584
11.85 -0.99201
11.86 -0.996155
11.87 -0.989043
11.88 -0.971078
11.89 -0.93977
11.9 -0.896295
11.91 -0.839719
11.92 -0.770149
11.93 -0.688859
11.94 -0.594949
11.95 -0.491103
11.96 -0.377334
11.97 -0.255753
11.98 -0.127939
11.99 0.00445785
12 0.13904
12.01 0.273702
12.02 0.406069
12.03 0.533656
12.04 0.653758
12.05 0.764707
12.06 0.862485
12.07 0.946856
12.08 1.01422
12.09 1.06392
12.1 1.09493
12.11 1.1051
12.12 1.09659
12.13 1.06685
12.14 1.01938
12.15 0.954449
12.16 0.874194
12.17 0.781907
12.18 0.679104
12.19 0.570243
12.2 0.457873
12.21 0.345591
12.22 0.236235
12.23 0.133133
12.24 0.0377326
12.25 -0.046728
12.26 -0.120319
12.27 -0.181796
12.28 -0.231201
12.29 -0.270032
12.3 -0.298244
12.31 -0.319048
12.32 -0.333728
12.33 -0.345121
12.34 -0.355473
12.35 -0.367281
12.36 -0.382229
12.37 -0.402589
12.38 -0.428801
12.39 -0.461674
12.4 -0.501021
