# xPDFsuite Configuration #
[PDF]
wavelength = 0.1432
dataformat = twotheta
inputfile = 1_1Pd_CeO2_cycle-00006.chi
backgroundfile = background-00000.chi
mode = xray
bgscale = 1.007
composition = CeO2
outputtype = gr
qmaxinst = 28.8974762299
qmin = 0.5
qmax = 27.9
rmax = 50.0
rmin = 0.0
rstep = 0.01
rpoly = 1.8657

[Misc]
inputdir = G:/SankarDec16/1Pd/Chi
savedir = D:/DATA/APS_CeO2/1Pd
backgroundfilefull = G:/SankarDec16/Background/background-00000.chi

#### start data
#S 1
#L r($\AA$)  G($\AA^{-2}$)
0 0
0.01 -0.00466164
0.02 -0.00897156
0.03 -0.0125677
0.04 -0.0151773
0.05 -0.0166489
0.06 -0.0167388
0.07 -0.0156099
0.08 -0.0131842
0.09 -0.00977236
0.1 -0.00558934
0.11 -0.000964082
0.12 0.0037453
0.13 0.00813649
0.14 0.0119255
0.15 0.0147641
0.16 0.016449
0.17 0.0168998
0.18 0.0159514
0.19 0.0138437
0.2 0.0105878
0.21 0.00654582
0.22 0.0019858
0.23 -0.00272295
0.24 -0.00724391
0.25 -0.0111439
0.26 -0.0142204
0.27 -0.0161562
0.28 -0.0168273
0.29 -0.0162283
0.3 -0.0142812
0.31 -0.0112912
0.32 -0.00735764
0.33 -0.00287701
0.34 0.00184309
0.35 0.00641071
0.36 0.0105275
0.37 0.0137506
0.38 0.0159689
0.39 0.0169119
0.4 0.016541
0.41 0.0149264
0.42 0.0120806
0.43 0.00835988
0.44 0.00394671
0.45 -0.000747205
0.46 -0.00538984
0.47 -0.00958557
0.48 -0.0130891
0.49 -0.0154697
0.5 -0.016713
0.51 -0.0166088
0.52 -0.0152059
0.53 -0.0126468
0.54 -0.00903459
0.55 -0.00475857
0.56 -7.59055e-05
0.57 0.00460657
0.58 0.00894882
0.59 0.0125708
0.6 0.0152923
0.61 0.0167163
0.62 0.0169258
0.63 0.0157813
0.64 0.013417
0.65 0.0100407
0.66 0.00584112
0.67 0.00122187
0.68 -0.00349796
0.69 -0.0079361
0.7 -0.0117613
0.71 -0.0146275
0.72 -0.0164286
0.73 -0.01682
0.74 -0.0159782
0.75 -0.0138407
0.76 -0.0106197
0.77 -0.00657731
0.78 -0.00197744
0.79 0.00278253
0.8 0.00733955
0.81 0.0113553
0.82 0.0145254
0.83 0.0165562
0.84 0.0174211
0.85 0.0168474
0.86 0.0150942
0.87 0.0121792
0.88 0.00838006
0.89 0.00399691
0.9 -0.000648582
0.91 -0.00519086
0.92 -0.0092497
0.93 -0.0125556
0.94 -0.0148573
0.95 -0.0159425
0.96 -0.0158727
0.97 -0.0144865
0.98 -0.0121147
0.99 -0.00887644
1 -0.00511127
1.01 -0.0011479
1.02 0.00262884
1.03 0.00591799
1.04 0.00832495
1.05 0.00968295
1.06 0.00981596
1.07 0.00862373
1.08 0.00628802
1.09 0.00280005
1.1 -0.0014049
1.11 -0.00605714
1.12 -0.0107092
1.13 -0.0149655
1.14 -0.0182961
1.15 -0.0204504
1.16 -0.0209176
1.17 -0.0196128
1.18 -0.0163723
1.19 -0.0111359
1.2 -0.00422431
1.21 0.00434904
1.22 0.0139597
1.23 0.0242461
1.24 0.0346092
1.25 0.0445228
1.26 0.0532878
1.27 0.0605466
1.28 0.0655892
1.29 0.0682319
1.3 0.0681618
1.31 0.0651415
1.32 0.0594743
1.33 0.0508703
1.34 0.0400437
1.35 0.0271559
1.36 0.0127838
1.37 -0.00251817
1.38 -0.0181898
1.39 -0.0336342
1.4 -0.0482192
1.41 -0.0614879
1.42 -0.0729753
1.43 -0.0822053
1.44 -0.0891526
1.45 -0.0932078
1.46 -0.0947174
1.47 -0.0934323
1.48 -0.0895298
1.49 -0.0832596
1.5 -0.0746228
1.51 -0.0641789
1.52 -0.0520092
1.53 -0.038623
1.54 -0.0243277
1.55 -0.00950708
1.56 0.00544341
1.57 0.020099
1.58 0.034121
1.59 0.0470702
1.6 0.058579
1.61 0.0683821
1.62 0.0759266
1.63 0.0812338
1.64 0.0837453
1.65 0.0835395
1.66 0.0804551
1.67 0.0743834
1.68 0.065709
1.69 0.0542107
1.7 0.0406117
1.71 0.0251046
1.72 0.00827725
1.73 -0.00929998
1.74 -0.0270084
1.75 -0.0442361
1.76 -0.0602582
1.77 -0.0745916
1.78 -0.0867253
1.79 -0.096153
1.8 -0.102924
1.81 -0.106471
1.82 -0.107345
1.83 -0.105514
1.84 -0.101475
1.85 -0.0957898
1.86 -0.0889872
1.87 -0.0818523
1.88 -0.0750831
1.89 -0.0693412
1.9 -0.0652186
1.91 -0.0633102
1.92 -0.0636895
1.93 -0.0669265
1.94 -0.0725516
1.95 -0.0805584
1.96 -0.0904176
1.97 -0.101513
1.98 -0.113155
1.99 -0.124512
2 -0.134645
2.01 -0.142804
2.02 -0.14821
2.03 -0.150029
2.04 -0.148162
2.05 -0.141585
2.06 -0.13085
2.07 -0.115594
2.08 -0.0961796
2.09 -0.0731156
2.1 -0.0465573
2.11 -0.0174789
2.12 0.0138495
2.13 0.0466501
2.14 0.080496
2.15 0.114991
2.16 0.149826
2.17 0.184901
2.18 0.220175
2.19 0.255769
2.2 0.291865
2.21 0.328635
2.22 0.366369
2.23 0.405053
2.24 0.444809
2.25 0.48535
2.26 0.526325
2.27 0.56706
2.28 0.60682
2.29 0.644209
2.3 0.678339
2.31 0.707548
2.32 0.730444
2.33 0.746024
2.34 0.752051
2.35 0.748774
2.36 0.734125
2.37 0.708723
2.38 0.672339
2.39 0.625093
2.4 0.56893
2.41 0.503892
2.42 0.433023
2.43 0.357778
2.44 0.2807
2.45 0.203999
2.46 0.130333
2.47 0.0613117
2.48 -0.000475712
2.49 -0.0541636
2.5 -0.0986192
2.51 -0.132952
2.52 -0.158241
2.53 -0.173601
2.54 -0.181543
2.55 -0.182795
2.56 -0.179425
2.57 -0.173395
2.58 -0.166656
2.59 -0.161065
2.6 -0.158532
2.61 -0.160151
2.62 -0.166874
2.63 -0.179383
2.64 -0.197038
2.65 -0.220103
2.66 -0.246819
2.67 -0.276232
2.68 -0.306587
2.69 -0.336308
2.7 -0.363426
2.71 -0.386852
2.72 -0.404769
2.73 -0.416765
2.74 -0.422306
2.75 -0.42121
2.76 -0.414655
2.77 -0.402874
2.78 -0.388033
2.79 -0.371515
2.8 -0.355377
2.81 -0.341329
2.82 -0.33163
2.83 -0.327144
2.84 -0.329782
2.85 -0.339606
2.86 -0.356901
2.87 -0.381489
2.88 -0.411757
2.89 -0.447007
2.9 -0.484678
2.91 -0.522927
2.92 -0.559343
2.93 -0.592016
2.94 -0.618278
2.95 -0.637439
2.96 -0.647329
2.97 -0.648174
2.98 -0.639819
2.99 -0.622651
3 -0.598712
3.01 -0.568892
3.02 -0.536208
3.03 -0.502766
3.04 -0.471265
3.05 -0.44379
3.06 -0.423184
3.07 -0.410113
3.08 -0.406758
3.09 -0.412737
3.1 -0.428038
3.11 -0.452046
3.12 -0.48252
3.13 -0.518269
3.14 -0.556193
3.15 -0.594016
3.16 -0.629041
3.17 -0.659303
3.18 -0.682104
3.19 -0.697156
3.2 -0.702703
3.21 -0.699637
3.22 -0.688532
3.23 -0.670728
3.24 -0.648796
3.25 -0.624952
3.26 -0.602263
3.27 -0.583633
3.28 -0.571844
3.29 -0.568665
3.3 -0.576983
3.31 -0.596169
3.32 -0.627762
3.33 -0.669828
3.34 -0.720987
3.35 -0.778863
3.36 -0.839981
3.37 -0.900861
3.38 -0.957878
3.39 -1.00716
3.4 -1.04545
3.41 -1.07089
3.42 -1.08009
3.43 -1.07455
3.44 -1.05276
3.45 -1.01778
3.46 -0.971819
3.47 -0.918386
3.48 -0.862042
3.49 -0.807549
3.5 -0.759205
3.51 -0.721725
3.52 -0.698606
3.53 -0.691374
3.54 -0.702949
3.55 -0.730236
3.56 -0.772771
3.57 -0.824845
3.58 -0.881058
3.59 -0.933326
3.6 -0.974356
3.61 -0.991565
3.62 -0.978882
3.63 -0.924487
3.64 -0.820333
3.65 -0.662388
3.66 -0.438847
3.67 -0.155891
3.68 0.194318
3.69 0.602854
3.7 1.06524
3.71 1.57392
3.72 2.11381
3.73 2.6746
3.74 3.23801
3.75 3.78822
3.76 4.30745
3.77 4.7822
3.78 5.18995
3.79 5.52681
3.8 5.77157
3.81 5.92361
3.82 5.97646
3.83 5.92421
3.84 5.77958
3.85 5.53314
3.86 5.20802
3.87 4.8081
3.88 4.3496
3.89 3.8489
3.9 3.31923
3.91 2.77948
3.92 2.24456
3.93 1.72886
3.94 1.24457
3.95 0.804632
3.96 0.411612
3.97 0.0795187
3.98 -0.19779
3.99 -0.415349
4 -0.577034
4.01 -0.689476
4.02 -0.753893
4.03 -0.783431
4.04 -0.781756
4.05 -0.759936
4.06 -0.725006
4.07 -0.684466
4.08 -0.644571
4.09 -0.611241
4.1 -0.587224
4.11 -0.575585
4.12 -0.577032
4.13 -0.590611
4.14 -0.616043
4.15 -0.649538
4.16 -0.68904
4.17 -0.730591
4.18 -0.77102
4.19 -0.806653
4.2 -0.835381
4.21 -0.85332
4.22 -0.860279
4.23 -0.854236
4.24 -0.835062
4.25 -0.803616
4.26 -0.759395
4.27 -0.705264
4.28 -0.641537
4.29 -0.570813
4.3 -0.494631
4.31 -0.414643
4.32 -0.332641
4.33 -0.249795
4.34 -0.167289
4.35 -0.0859465
4.36 -0.0063773
4.37 0.0711348
4.38 0.146022
4.39 0.218408
4.4 0.287685
4.41 0.353753
4.42 0.416106
4.43 0.473864
4.44 0.526782
4.45 0.57295
4.46 0.612255
4.47 0.642977
4.48 0.664096
4.49 0.675152
4.5 0.674016
4.51 0.661755
4.52 0.636617
4.53 0.599791
4.54 0.551548
4.55 0.492376
4.56 0.424565
4.57 0.348489
4.58 0.267172
4.59 0.182141
4.6 0.095754
4.61 0.00997702
4.62 -0.0728761
4.63 -0.151542
4.64 -0.22394
4.65 -0.289444
4.66 -0.347262
4.67 -0.396684
4.68 -0.438642
4.69 -0.472351
4.7 -0.499682
4.71 -0.520991
4.72 -0.537575
4.73 -0.550722
4.74 -0.561339
4.75 -0.57077
4.76 -0.579827
4.77 -0.589305
4.78 -0.599698
4.79 -0.61138
4.8 -0.624288
4.81 -0.638499
4.82 -0.653556
4.83 -0.669149
4.84 -0.684776
4.85 -0.700005
4.86 -0.714281
4.87 -0.727372
4.88 -0.738826
4.89 -0.748601
4.9 -0.756624
4.91 -0.762884
4.92 -0.767714
4.93 -0.771151
4.94 -0.773685
4.95 -0.775548
4.96 -0.777095
4.97 -0.778606
4.98 -0.780359
4.99 -0.782508
5 -0.785249
5.01 -0.788625
5.02 -0.792687
5.03 -0.797489
5.04 -0.802953
5.05 -0.809191
5.06 -0.816099
5.07 -0.82375
5.08 -0.832145
5.09 -0.841245
5.1 -0.851093
5.11 -0.86149
5.12 -0.872289
5.13 -0.883095
5.14 -0.893419
5.15 -0.902437
5.16 -0.909443
5.17 -0.912787
5.18 -0.911624
5.19 -0.904065
5.2 -0.888452
5.21 -0.863661
5.22 -0.826725
5.23 -0.777853
5.24 -0.71418
5.25 -0.636007
5.26 -0.542736
5.27 -0.43382
5.28 -0.311606
5.29 -0.175506
5.3 -0.0295643
5.31 0.124376
5.32 0.282569
5.33 0.441341
5.34 0.596024
5.35 0.743059
5.36 0.876894
5.37 0.994269
5.38 1.09138
5.39 1.16364
5.4 1.21137
5.41 1.22856
5.42 1.21867
5.43 1.17959
5.44 1.11312
5.45 1.02258
5.46 0.908428
5.47 0.777286
5.48 0.631303
5.49 0.47639
5.5 0.316807
5.51 0.157476
5.52 0.00229961
5.53 -0.143583
5.54 -0.27816
5.55 -0.397927
5.56 -0.501161
5.57 -0.587781
5.58 -0.655504
5.59 -0.707317
5.6 -0.7423
5.61 -0.763479
5.62 -0.772505
5.63 -0.771193
5.64 -0.762625
5.65 -0.747969
5.66 -0.729912
5.67 -0.709636
5.68 -0.688379
5.69 -0.666805
5.7 -0.64515
5.71 -0.623273
5.72 -0.600633
5.73 -0.576541
5.74 -0.550185
5.75 -0.520504
5.76 -0.487181
5.77 -0.449011
5.78 -0.40644
5.79 -0.359234
5.8 -0.308049
5.81 -0.253935
5.82 -0.198016
5.83 -0.142052
5.84 -0.0879441
5.85 -0.0375655
5.86 0.00721212
5.87 0.0440722
5.88 0.0724113
5.89 0.0893695
5.9 0.0956567
5.91 0.0899839
5.92 0.0726344
5.93 0.0447265
5.94 0.0061086
5.95 -0.0404854
5.96 -0.0943686
5.97 -0.153051
5.98 -0.214806
5.99 -0.277701
6 -0.340054
6.01 -0.400087
6.02 -0.456943
6.03 -0.509551
6.04 -0.557484
6.05 -0.600898
6.06 -0.639498
6.07 -0.674401
6.08 -0.705837
6.09 -0.734901
6.1 -0.762313
6.11 -0.788803
6.12 -0.814997
6.13 -0.841272
6.14 -0.867748
6.15 -0.894323
6.16 -0.92061
6.17 -0.946121
6.18 -0.96997
6.19 -0.991661
6.2 -1.01015
6.21 -1.02503
6.22 -1.03584
6.23 -1.04216
6.24 -1.04456
6.25 -1.04284
6.26 -1.03826
6.27 -1.0315
6.28 -1.02375
6.29 -1.0161
6.3 -1.00979
6.31 -1.00542
6.32 -1.00373
6.33 -1.00447
6.34 -1.00708
6.35 -1.01015
6.36 -1.01176
6.37 -1.00846
6.38 -0.997432
6.39 -0.974041
6.4 -0.933609
6.41 -0.8728
6.42 -0.783769
6.43 -0.666187
6.44 -0.512424
6.45 -0.322273
6.46 -0.0936554
6.47 0.175897
6.48 0.481026
6.49 0.824549
6.5 1.19686
6.51 1.59448
6.52 2.00896
6.53 2.43147
6.54 2.85187
6.55 3.26058
6.56 3.645
6.57 3.99604
6.58 4.30403
6.59 4.55673
6.6 4.75318
6.61 4.87738
6.62 4.9352
6.63 4.91938
6.64 4.83136
6.65 4.67739
6.66 4.45454
6.67 4.17829
6.68 3.85019
6.69 3.48404
6.7 3.08905
6.71 2.67572
6.72 2.25579
6.73 1.83997
6.74 1.43738
6.75 1.05745
6.76 0.707706
6.77 0.391657
6.78 0.118115
6.79 -0.116464
6.8 -0.30636
6.81 -0.455903
6.82 -0.566757
6.83 -0.640595
6.84 -0.685187
6.85 -0.701082
6.86 -0.697186
6.87 -0.676783
6.88 -0.645288
6.89 -0.607264
6.9 -0.566179
6.91 -0.525326
6.92 -0.487099
6.93 -0.452888
6.94 -0.423508
6.95 -0.39948
6.96 -0.380008
6.97 -0.365186
6.98 -0.35362
6.99 -0.344784
7 -0.337856
7.01 -0.332242
7.02 -0.327788
7.03 -0.324366
7.04 -0.322452
7.05 -0.322563
7.06 -0.325483
7.07 -0.332414
7.08 -0.343803
7.09 -0.361393
7.1 -0.385063
7.11 -0.415732
7.12 -0.453421
7.13 -0.497482
7.14 -0.547936
7.15 -0.602896
7.16 -0.661475
7.17 -0.721646
7.18 -0.781698
7.19 -0.8395
7.2 -0.893627
7.21 -0.941602
7.22 -0.982884
7.23 -1.01598
7.24 -1.04039
7.25 -1.05654
7.26 -1.06386
7.27 -1.06433
7.28 -1.05837
7.29 -1.04803
7.3 -1.03484
7.31 -1.02056
7.32 -1.00676
7.33 -0.995084
7.34 -0.986261
7.35 -0.981066
7.36 -0.979508
7.37 -0.98092
7.38 -0.984458
7.39 -0.988322
7.4 -0.990438
7.41 -0.988464
7.42 -0.979961
7.43 -0.961649
7.44 -0.932319
7.45 -0.887657
7.46 -0.827913
7.47 -0.750694
7.48 -0.655583
7.49 -0.543748
7.5 -0.414125
7.51 -0.270747
7.52 -0.11436
7.53 0.0508852
7.54 0.221731
7.55 0.394089
7.56 0.564033
7.57 0.726439
7.58 0.878237
7.59 1.01491
7.6 1.133
7.61 1.23104
7.62 1.30399
7.63 1.3539
7.64 1.37711
7.65 1.37564
7.66 1.35
7.67 1.3004
7.68 1.23123
7.69 1.14203
7.7 1.03827
7.71 0.921786
7.72 0.796182
7.73 0.664928
7.74 0.530949
7.75 0.39752
7.76 0.267662
7.77 0.143818
7.78 0.0281763
7.79 -0.0765932
7.8 -0.170188
7.81 -0.249331
7.82 -0.314998
7.83 -0.365568
7.84 -0.400934
7.85 -0.422073
7.86 -0.427651
7.87 -0.42052
7.88 -0.400185
7.89 -0.369068
7.9 -0.328659
7.91 -0.280594
7.92 -0.227658
7.93 -0.171668
7.94 -0.115461
7.95 -0.061417
7.96 -0.0121451
7.97 0.0305554
7.98 0.0634549
7.99 0.0862024
8 0.0960642
8.01 0.0929989
8.02 0.0765083
8.03 0.0459243
8.04 0.003345
8.05 -0.05191
8.06 -0.116565
8.07 -0.189413
8.08 -0.267898
8.09 -0.349465
8.1 -0.43164
8.11 -0.512031
8.12 -0.588118
8.13 -0.658243
8.14 -0.721002
8.15 -0.774889
8.16 -0.820478
8.17 -0.856542
8.18 -0.884957
8.19 -0.90617
8.2 -0.921771
8.21 -0.933554
8.22 -0.942942
8.23 -0.951769
8.24 -0.961332
8.25 -0.972535
8.26 -0.985745
8.27 -1.0008
8.28 -1.01665
8.29 -1.03156
8.3 -1.04332
8.31 -1.04882
8.32 -1.04444
8.33 -1.02741
8.34 -0.991722
8.35 -0.936409
8.36 -0.855526
8.37 -0.748034
8.38 -0.611955
8.39 -0.444533
8.4 -0.249335
8.41 -0.0233992
8.42 0.22659
8.43 0.498681
8.44 0.787212
8.45 1.08574
8.46 1.38774
8.47 1.68568
8.48 1.97113
8.49 2.23699
8.5 2.47634
8.51 2.68019
8.52 2.84718
8.53 2.96615
8.54 3.04007
8.55 3.06379
8.56 3.03738
8.57 2.96495
8.58 2.84349
8.59 2.68354
8.6 2.4855
8.61 2.25838
8.62 2.00827
8.63 1.74169
8.64 1.46693
8.65 1.19045
8.66 0.919016
8.67 0.658658
8.68 0.414738
8.69 0.189914
8.7 -0.00987783
8.71 -0.186275
8.72 -0.335475
8.73 -0.459592
8.74 -0.559508
8.75 -0.635823
8.76 -0.693324
8.77 -0.732146
8.78 -0.757803
8.79 -0.77236
8.8 -0.779228
8.81 -0.781452
8.82 -0.781299
8.83 -0.781094
8.84 -0.78252
8.85 -0.786675
8.86 -0.794216
8.87 -0.805648
8.88 -0.820448
8.89 -0.838708
8.9 -0.859353
8.91 -0.881822
8.92 -0.90522
8.93 -0.928772
8.94 -0.951684
8.95 -0.973492
8.96 -0.993627
8.97 -1.01196
8.98 -1.02842
8.99 -1.04299
9 -1.0561
9.01 -1.06784
9.02 -1.07876
9.03 -1.08911
9.04 -1.09924
9.05 -1.10934
9.06 -1.11947
9.07 -1.12956
9.08 -1.13933
9.09 -1.14833
9.1 -1.15601
9.11 -1.16146
9.12 -1.16415
9.13 -1.1626
9.14 -1.15642
9.15 -1.1444
9.16 -1.12569
9.17 -1.10011
9.18 -1.06619
9.19 -1.02487
9.2 -0.975239
9.21 -0.918211
9.22 -0.854336
9.23 -0.784208
9.24 -0.709588
9.25 -0.631339
9.26 -0.551547
9.27 -0.471797
9.28 -0.394074
9.29 -0.319906
9.3 -0.251791
9.31 -0.190445
9.32 -0.138176
9.33 -0.0955584
9.34 -0.0633938
9.35 -0.0428598
9.36 -0.0327622
9.37 -0.0344676
9.38 -0.0458075
9.39 -0.0665226
9.4 -0.0951635
9.41 -0.12986
9.42 -0.169493
9.43 -0.211689
9.44 -0.254942
9.45 -0.297399
9.46 -0.337621
9.47 -0.373988
9.48 -0.405973
9.49 -0.432054
9.5 -0.452596
9.51 -0.467156
9.52 -0.476065
9.53 -0.480197
9.54 -0.479842
9.55 -0.476578
9.56 -0.47119
9.57 -0.465034
9.58 -0.459156
9.59 -0.454724
9.6 -0.45237
9.61 -0.453178
9.62 -0.457188
9.63 -0.464827
9.64 -0.476052
9.65 -0.490429
9.66 -0.507932
9.67 -0.527644
9.68 -0.549258
9.69 -0.572054
9.7 -0.595564
9.71 -0.619383
9.72 -0.643235
9.73 -0.667002
9.74 -0.690731
9.75 -0.714577
9.76 -0.738795
9.77 -0.763585
9.78 -0.789228
9.79 -0.815625
9.8 -0.842631
9.81 -0.869607
9.82 -0.895638
9.83 -0.91904
9.84 -0.938332
9.85 -0.950121
9.86 -0.952422
9.87 -0.941355
9.88 -0.913071
9.89 -0.865316
9.9 -0.791208
9.91 -0.691085
9.92 -0.558584
9.93 -0.393363
9.94 -0.193922
9.95 0.0425601
9.96 0.31145
9.97 0.615923
9.98 0.94836
9.99 1.30651
10 1.6842
10.01 2.07417
10.02 2.46944
10.03 2.86141
10.04 3.24083
10.05 3.5994
10.06 3.92924
10.07 4.21963
10.08 4.46851
10.09 4.6626
10.1 4.80417
10.11 4.88657
10.12 4.9084
10.13 4.87382
10.14 4.7773
10.15 4.6308
10.16 4.43317
10.17 4.19427
10.18 3.92069
10.19 3.61891
10.2 3.29948
10.21 2.96875
10.22 2.63612
10.23 2.30862
10.24 1.99349
10.25 1.69506
10.26 1.42085
10.27 1.1707
10.28 0.949742
10.29 0.756964
10.3 0.592106
10.31 0.455519
10.32 0.342058
10.33 0.252213
10.34 0.17963
10.35 0.121978
10.36 0.0751398
10.37 0.0351057
10.38 -0.00108331
10.39 -0.0368313
10.4 -0.0746438
10.41 -0.116412
10.42 -0.163373
10.43 -0.216694
10.44 -0.275818
10.45 -0.341284
10.46 -0.411504
10.47 -0.485704
10.48 -0.562358
10.49 -0.639903
10.5 -0.716605
10.51 -0.79105
10.52 -0.861414
10.53 -0.926545
10.54 -0.985373
10.55 -1.03644
10.56 -1.07998
10.57 -1.11432
10.58 -1.14037
10.59 -1.15758
10.6 -1.16619
10.61 -1.16707
10.62 -1.15975
10.63 -1.14594
10.64 -1.12556
10.65 -1.09983
10.66 -1.06949
10.67 -1.03514
10.68 -0.998006
10.69 -0.958553
10.7 -0.917899
10.71 -0.876736
10.72 -0.835916
10.73 -0.796092
10.74 -0.758217
10.75 -0.722656
10.76 -0.690316
10.77 -0.66156
10.78 -0.636819
10.79 -0.6168
10.8 -0.60125
10.81 -0.591118
10.82 -0.585851
10.83 -0.585805
10.84 -0.590901
10.85 -0.600653
10.86 -0.615433
10.87 -0.634235
10.88 -0.657154
10.89 -0.683456
10.9 -0.712669
10.91 -0.744383
10.92 -0.777792
10.93 -0.812502
10.94 -0.84774
10.95 -0.88295
10.96 -0.917479
10.97 -0.95085
10.98 -0.982275
10.99 -1.01155
11 -1.03799
11.01 -1.0614
11.02 -1.08156
11.03 -1.0981
11.04 -1.11142
11.05 -1.12115
11.06 -1.12797
11.07 -1.13206
11.08 -1.13395
11.09 -1.13432
11.1 -1.13368
11.11 -1.13281
11.12 -1.13233
11.13 -1.13279
11.14 -1.13456
11.15 -1.138
11.16 -1.14289
11.17 -1.14911
11.18 -1.15585
11.19 -1.16216
11.2 -1.16659
11.21 -1.16775
11.22 -1.16291
11.23 -1.15078
11.24 -1.12805
11.25 -1.09281
11.26 -1.0429
11.27 -0.974856
11.28 -0.888991
11.29 -0.78087
11.3 -0.652312
11.31 -0.501716
11.32 -0.329591
11.33 -0.138537
11.34 0.0717552
11.35 0.295845
11.36 0.53175
11.37 0.774275
11.38 1.01898
11.39 1.26026
11.4 1.49362
11.41 1.71189
11.42 1.9117
11.43 2.08722
11.44 2.23382
11.45 2.3503
11.46 2.42937
11.47 2.47464
11.48 2.4813
11.49 2.45216
11.5 2.38862
11.51 2.29092
11.52 2.16583
11.53 2.01335
11.54 1.84129
11.55 1.65302
11.56 1.45395
11.57 1.24931
11.58 1.04382
11.59 0.84184
11.6 0.647791
11.61 0.464647
11.62 0.29477
11.63 0.141158
11.64 0.00296774
11.65 -0.116971
11.66 -0.221201
11.67 -0.309578
11.68 -0.383595
11.69 -0.44584
11.7 -0.496936
11.71 -0.540487
11.72 -0.577717
11.73 -0.61109
11.74 -0.64224
11.75 -0.672622
11.76 -0.703294
11.77 -0.735027
11.78 -0.767918
11.79 -0.801856
11.8 -0.836208
11.81 -0.870112
11.82 -0.902099
11.83 -0.931046
11.84 -0.954949
11.85 -0.972356
11.86 -0.981752
11.87 -0.980795
11.88 -0.969355
11.89 -0.944446
11.9 -0.906759
11.91 -0.854889
11.92 -0.788536
11.93 -0.708845
11.94 -0.614529
11.95 -0.508571
11.96 -0.390935
11.97 -0.264145
11.98 -0.130158
11.99 0.0088939
12 0.150071
12.01 0.290658
12.02 0.427848
12.03 0.558668
12.04 0.680054
12.05 0.790306
12.06 0.885085
12.07 0.964603
12.08 1.02533
12.09 1.06717
12.1 1.0896
12.11 1.09109
12.12 1.07442
12.13 1.03781
12.14 0.985138
12.15 0.917248
12.16 0.836608
12.17 0.746456
12.18 0.648618
12.19 0.546924
12.2 0.443771
12.21 0.342037
12.22 0.243923
12.23 0.151966
12.24 0.0669245
12.25 -0.00889499
12.26 -0.0760041
12.27 -0.13378
12.28 -0.182635
12.29 -0.22396
12.3 -0.258049
12.31 -0.28734
12.32 -0.312918
12.33 -0.336767
12.34 -0.360383
12.35 -0.385344
12.36 -0.412538
12.37 -0.443172
12.38 -0.477183
12.39 -0.514677
