# xPDFsuite Configuration #
[PDF]
wavelength = 0.1432
dataformat = twotheta
inputfile = 1_1Pd_CeO2_cycle-00016.chi
backgroundfile = background-00000.chi
mode = xray
bgscale = 1.007
composition = CeO2
outputtype = gr
qmaxinst = 28.8974762299
qmin = 0.5
qmax = 27.9
rmax = 50.0
rmin = 0.0
rstep = 0.01
rpoly = 1.8657

[Misc]
inputdir = G:/SankarDec16/1Pd/Chi
savedir = D:/DATA/APS_CeO2/1Pd
backgroundfilefull = G:/SankarDec16/Background/background-00000.chi

#### start data
#S 1
#L r($\AA$)  G($\AA^{-2}$)
0 0
0.01 -0.0059824
0.02 -0.011514
0.03 -0.0161308
0.04 -0.0194831
0.05 -0.0213764
0.06 -0.0214982
0.07 -0.0200567
0.08 -0.0169514
0.09 -0.01258
0.1 -0.00721762
0.11 -0.00128525
0.12 0.00475793
0.13 0.0103967
0.14 0.0152662
0.15 0.0189198
0.16 0.0210958
0.17 0.0216899
0.18 0.0204892
0.19 0.0178002
0.2 0.0136352
0.21 0.00845778
0.22 0.00261058
0.23 -0.0034336
0.24 -0.00924262
0.25 -0.0142615
0.26 -0.0182286
0.27 -0.020736
0.28 -0.0216229
0.29 -0.0208803
0.3 -0.0184054
0.31 -0.0145883
0.32 -0.00955388
0.33 -0.00380995
0.34 0.00224985
0.35 0.00812308
0.36 0.0134255
0.37 0.0175888
0.38 0.0204671
0.39 0.0217114
0.4 0.021269
0.41 0.0192273
0.42 0.0155989
0.43 0.0108395
0.44 0.00518025
0.45 -0.000850386
0.46 -0.00682667
0.47 -0.0122402
0.48 -0.0167734
0.49 -0.0198718
0.5 -0.0215128
0.51 -0.0214229
0.52 -0.019661
0.53 -0.016407
0.54 -0.0117888
0.55 -0.00630609
0.56 -0.000285932
0.57 0.0057478
0.58 0.0113577
0.59 0.0160535
0.6 0.0195999
0.61 0.0214832
0.62 0.0218053
0.63 0.0203823
0.64 0.0173822
0.65 0.0130691
0.66 0.0076813
0.67 0.00173825
0.68 -0.00435211
0.69 -0.0100953
0.7 -0.0150632
0.71 -0.0188069
0.72 -0.0211852
0.73 -0.0217492
0.74 -0.020721
0.75 -0.0180145
0.76 -0.0138988
0.77 -0.00870903
0.78 -0.00278136
0.79 0.00336995
0.8 0.00927784
0.81 0.0145012
0.82 0.0186438
0.83 0.0213205
0.84 0.022491
0.85 0.0217949
0.86 0.0195615
0.87 0.0158066
0.88 0.0108842
0.89 0.00518053
0.9 -0.000892326
0.91 -0.00685641
0.92 -0.012219
0.93 -0.0166224
0.94 -0.0197333
0.95 -0.0212655
0.96 -0.0212879
0.97 -0.0195739
0.98 -0.0165442
0.99 -0.0123371
1 -0.00738274
1.01 -0.00210223
1.02 0.00301876
1.03 0.00758094
1.04 0.0110801
1.05 0.0132853
1.06 0.0139594
1.07 0.0129573
1.08 0.010493
1.09 0.00653245
1.1 0.0016151
1.11 -0.00393916
1.12 -0.00957901
1.13 -0.0148145
1.14 -0.0190015
1.15 -0.0218199
1.16 -0.0226531
1.17 -0.0213919
1.18 -0.0178423
1.19 -0.0119418
1.2 -0.00408275
1.21 0.00569027
1.22 0.0166212
1.23 0.0282492
1.24 0.0398437
1.25 0.0507707
1.26 0.0601803
1.27 0.0676745
1.28 0.0724168
1.29 0.0742395
1.3 0.0728207
1.31 0.0679535
1.32 0.0600641
1.33 0.0489298
1.34 0.0354509
1.35 0.0199327
1.36 0.00312935
1.37 -0.0142655
1.38 -0.0314908
1.39 -0.0479075
1.4 -0.0627144
1.41 -0.0754805
1.42 -0.0857249
1.43 -0.0930006
1.44 -0.0974378
1.45 -0.098484
1.46 -0.0967227
1.47 -0.0920612
1.48 -0.0848887
1.49 -0.075626
1.5 -0.0645042
1.51 -0.0521588
1.52 -0.0388729
1.53 -0.0251577
1.54 -0.011365
1.55 0.00211872
1.56 0.0150447
1.57 0.0269995
1.58 0.0378922
1.59 0.0474132
1.6 0.0554072
1.61 0.0617893
1.62 0.0662285
1.63 0.0688636
1.64 0.0693456
1.65 0.0678049
1.66 0.0641631
1.67 0.05837
1.68 0.050714
1.69 0.0410419
1.7 0.0298712
1.71 0.0173416
1.72 0.00388044
1.73 -0.0100917
1.74 -0.0241031
1.75 -0.0376935
1.76 -0.0502941
1.77 -0.0615316
1.78 -0.0710042
1.79 -0.0783167
1.8 -0.0835209
1.81 -0.086192
1.82 -0.0867985
1.83 -0.0853712
1.84 -0.0823681
1.85 -0.0782979
1.86 -0.0736986
1.87 -0.0692246
1.88 -0.0655627
1.89 -0.0632503
1.9 -0.0628009
1.91 -0.0647055
1.92 -0.0689239
1.93 -0.0758924
1.94 -0.0850326
1.95 -0.0961894
1.96 -0.108705
1.97 -0.121872
1.98 -0.134809
1.99 -0.1467
2 -0.156429
2.01 -0.163295
2.02 -0.166499
2.03 -0.165224
2.04 -0.159542
2.05 -0.148459
2.06 -0.132803
2.07 -0.11238
2.08 -0.0878173
2.09 -0.0598545
2.1 -0.028966
2.11 0.0037184
2.12 0.0376018
2.13 0.0718231
2.14 0.105818
2.15 0.139088
2.16 0.171484
2.17 0.202816
2.18 0.233408
2.19 0.263533
2.2 0.293715
2.21 0.324455
2.22 0.356439
2.23 0.389954
2.24 0.425551
2.25 0.463145
2.26 0.502622
2.27 0.543507
2.28 0.584931
2.29 0.625681
2.3 0.664452
2.31 0.699442
2.32 0.728858
2.33 0.751295
2.34 0.764049
2.35 0.766964
2.36 0.757445
2.37 0.735816
2.38 0.701536
2.39 0.654437
2.4 0.596591
2.41 0.527777
2.42 0.451517
2.43 0.369403
2.44 0.284445
2.45 0.199332
2.46 0.117269
2.47 0.0403795
2.48 -0.0281142
2.49 -0.0869561
2.5 -0.134608
2.51 -0.169796
2.52 -0.193712
2.53 -0.205096
2.54 -0.207002
2.55 -0.200265
2.56 -0.187474
2.57 -0.171142
2.58 -0.153819
2.59 -0.138005
2.6 -0.126327
2.61 -0.12039
2.62 -0.121653
2.63 -0.131298
2.64 -0.148628
2.65 -0.17442
2.66 -0.206365
2.67 -0.243482
2.68 -0.283504
2.69 -0.324279
2.7 -0.363277
2.71 -0.398666
2.72 -0.427917
2.73 -0.45001
2.74 -0.463849
2.75 -0.468684
2.76 -0.465659
2.77 -0.454432
2.78 -0.437634
2.79 -0.416604
2.8 -0.393836
2.81 -0.371568
2.82 -0.352527
2.83 -0.338306
2.84 -0.331433
2.85 -0.332568
2.86 -0.342509
2.87 -0.361595
2.88 -0.388274
2.89 -0.422325
2.9 -0.460803
2.91 -0.501866
2.92 -0.542701
2.93 -0.580927
2.94 -0.613411
2.95 -0.63885
2.96 -0.654499
2.97 -0.660101
2.98 -0.655081
2.99 -0.639424
3 -0.615207
3.01 -0.582994
3.02 -0.546252
3.03 -0.50721
3.04 -0.46905
3.05 -0.434364
3.06 -0.406575
3.07 -0.386894
3.08 -0.378158
3.09 -0.380378
3.1 -0.393932
3.11 -0.418545
3.12 -0.451811
3.13 -0.49281
3.14 -0.537832
3.15 -0.584376
3.16 -0.629139
3.17 -0.669546
3.18 -0.70219
3.19 -0.726197
3.2 -0.739037
3.21 -0.741201
3.22 -0.732841
3.23 -0.714927
3.24 -0.690263
3.25 -0.660756
3.26 -0.630194
3.27 -0.601733
3.28 -0.578837
3.29 -0.56396
3.3 -0.560757
3.31 -0.569263
3.32 -0.591848
3.33 -0.627035
3.34 -0.673912
3.35 -0.730519
3.36 -0.793156
3.37 -0.858706
3.38 -0.922801
3.39 -0.981351
3.4 -1.0304
3.41 -1.06742
3.42 -1.08826
3.43 -1.09371
3.44 -1.08145
3.45 -1.05405
3.46 -1.01326
3.47 -0.962137
3.48 -0.905435
3.49 -0.847538
3.5 -0.793429
3.51 -0.748005
3.52 -0.715394
3.53 -0.697766
3.54 -0.698708
3.55 -0.715794
3.56 -0.749282
3.57 -0.793925
3.58 -0.844752
3.59 -0.894067
3.6 -0.934422
3.61 -0.953555
3.62 -0.944805
3.63 -0.896186
3.64 -0.799109
3.65 -0.648991
3.66 -0.433471
3.67 -0.158178
3.68 0.185302
3.69 0.588394
3.7 1.04693
3.71 1.5536
3.72 2.09315
3.73 2.65541
3.74 3.22161
3.75 3.77569
3.76 4.29937
3.77 4.77871
3.78 5.19069
3.79 5.53104
3.8 5.77809
3.81 5.93105
3.82 5.9833
3.83 5.92888
3.84 5.78079
3.85 5.52965
3.86 5.19913
3.87 4.79348
3.88 4.32944
3.89 3.8238
3.9 3.29037
3.91 2.74823
3.92 2.21277
3.93 1.69836
3.94 1.21723
3.95 0.782273
3.96 0.39562
3.97 0.0710842
3.98 -0.198111
3.99 -0.407463
4 -0.561429
4.01 -0.667088
4.02 -0.726285
4.03 -0.752298
4.04 -0.749269
4.05 -0.728181
4.06 -0.696058
4.07 -0.66027
4.08 -0.626573
4.09 -0.600629
4.1 -0.584502
4.11 -0.58076
4.12 -0.589511
4.13 -0.609358
4.14 -0.639409
4.15 -0.675785
4.16 -0.716001
4.17 -0.75624
4.18 -0.793399
4.19 -0.823999
4.2 -0.846452
4.21 -0.857207
4.22 -0.856729
4.23 -0.843518
4.24 -0.818011
4.25 -0.781455
4.26 -0.733916
4.27 -0.678256
4.28 -0.615138
4.29 -0.54693
4.3 -0.475022
4.31 -0.400777
4.32 -0.32544
4.33 -0.249752
4.34 -0.174276
4.35 -0.099293
4.36 -0.0248873
4.37 0.0489761
4.38 0.122244
4.39 0.194915
4.4 0.266635
4.41 0.336959
4.42 0.40513
4.43 0.469863
4.44 0.530326
4.45 0.584049
4.46 0.630336
4.47 0.666877
4.48 0.692158
4.49 0.705466
4.5 0.704192
4.51 0.689657
4.52 0.659936
4.53 0.616683
4.54 0.560524
4.55 0.492462
4.56 0.415436
4.57 0.330493
4.58 0.241233
4.59 0.149822
4.6 0.0590941
4.61 -0.0287793
4.62 -0.111025
4.63 -0.186746
4.64 -0.253744
4.65 -0.311966
4.66 -0.361056
4.67 -0.400912
4.68 -0.433161
4.69 -0.457782
4.7 -0.477216
4.71 -0.492489
4.72 -0.505354
4.73 -0.517259
4.74 -0.52954
4.75 -0.543086
4.76 -0.558758
4.77 -0.576695
4.78 -0.596884
4.79 -0.619006
4.8 -0.642274
4.81 -0.665913
4.82 -0.688919
4.83 -0.710282
4.84 -0.729066
4.85 -0.744723
4.86 -0.75629
4.87 -0.764076
4.88 -0.767622
4.89 -0.767615
4.9 -0.764545
4.91 -0.759148
4.92 -0.752508
4.93 -0.745555
4.94 -0.739314
4.95 -0.734719
4.96 -0.732535
4.97 -0.733119
4.98 -0.737118
4.99 -0.744098
5 -0.75421
5.01 -0.766734
5.02 -0.781126
5.03 -0.796666
5.04 -0.812539
5.05 -0.827954
5.06 -0.842323
5.07 -0.855051
5.08 -0.865792
5.09 -0.874493
5.1 -0.880912
5.11 -0.885487
5.12 -0.888209
5.13 -0.889482
5.14 -0.889456
5.15 -0.888124
5.16 -0.885482
5.17 -0.880826
5.18 -0.873705
5.19 -0.862873
5.2 -0.846944
5.21 -0.824726
5.22 -0.79346
5.23 -0.752628
5.24 -0.699141
5.25 -0.632437
5.26 -0.55122
5.27 -0.454067
5.28 -0.342631
5.29 -0.215321
5.3 -0.0758423
5.31 0.0746037
5.32 0.232496
5.33 0.394043
5.34 0.554746
5.35 0.710254
5.36 0.854753
5.37 0.984076
5.38 1.0937
5.39 1.17813
5.4 1.23702
5.41 1.26334
5.42 1.26027
5.43 1.22506
5.44 1.15935
5.45 1.06659
5.46 0.947136
5.47 0.808409
5.48 0.652861
5.49 0.4873
5.5 0.316703
5.51 0.146865
5.52 -0.0176768
5.53 -0.170834
5.54 -0.310363
5.55 -0.432226
5.56 -0.5346
5.57 -0.61762
5.58 -0.678998
5.59 -0.722534
5.6 -0.747707
5.61 -0.758431
5.62 -0.757084
5.63 -0.74636
5.64 -0.729894
5.65 -0.709798
5.66 -0.688866
5.67 -0.668746
5.68 -0.650675
5.69 -0.635002
5.7 -0.62186
5.71 -0.610228
5.72 -0.599061
5.73 -0.586746
5.74 -0.5717
5.75 -0.551945
5.76 -0.526658
5.77 -0.493652
5.78 -0.453366
5.79 -0.405126
5.8 -0.34967
5.81 -0.288441
5.82 -0.222738
5.83 -0.155282
5.84 -0.0885556
5.85 -0.0254092
5.86 0.0314664
5.87 0.0787868
5.88 0.115453
5.89 0.137576
5.9 0.145906
5.91 0.138716
5.92 0.116407
5.93 0.0805387
5.94 0.0311648
5.95 -0.0279592
5.96 -0.0955234
5.97 -0.168013
5.98 -0.242841
5.99 -0.317063
6 -0.388485
6.01 -0.45425
6.02 -0.51354
6.03 -0.564821
6.04 -0.60777
6.05 -0.642993
6.06 -0.670368
6.07 -0.692067
6.08 -0.708922
6.09 -0.72308
6.1 -0.73613
6.11 -0.74983
6.12 -0.76536
6.13 -0.784192
6.14 -0.806466
6.15 -0.832587
6.16 -0.862124
6.17 -0.894195
6.18 -0.927827
6.19 -0.961508
6.2 -0.993687
6.21 -1.02295
6.22 -1.04802
6.23 -1.0675
6.24 -1.0814
6.25 -1.08848
6.26 -1.08991
6.27 -1.08585
6.28 -1.07747
6.29 -1.06618
6.3 -1.0532
6.31 -1.04003
6.32 -1.0278
6.33 -1.01716
6.34 -1.00823
6.35 -1.00045
6.36 -0.992424
6.37 -0.981582
6.38 -0.965231
6.39 -0.939187
6.4 -0.898823
6.41 -0.840566
6.42 -0.756578
6.43 -0.645803
6.44 -0.500291
6.45 -0.3191
6.46 -0.099566
6.47 0.161461
6.48 0.459076
6.49 0.796801
6.5 1.16515
6.51 1.56101
6.52 1.97596
6.53 2.40097
6.54 2.82591
6.55 3.24062
6.56 3.63222
6.57 3.99104
6.58 4.30693
6.59 4.5671
6.6 4.77024
6.61 4.89981
6.62 4.96156
6.63 4.948
6.64 4.8605
6.65 4.70549
6.66 4.48002
6.67 4.20004
6.68 3.86728
6.69 3.49597
6.7 3.09566
6.71 2.67722
6.72 2.25263
6.73 1.83294
6.74 1.42733
6.75 1.04536
6.76 0.694536
6.77 0.378247
6.78 0.105242
6.79 -0.12831
6.8 -0.316848
6.81 -0.464957
6.82 -0.574488
6.83 -0.647307
6.84 -0.691256
6.85 -0.707009
6.86 -0.703395
6.87 -0.683662
6.88 -0.653082
6.89 -0.616051
6.9 -0.575823
6.91 -0.535518
6.92 -0.497291
6.93 -0.462411
6.94 -0.431588
6.95 -0.405249
6.96 -0.382713
6.97 -0.364062
6.98 -0.34817
6.99 -0.334694
7 -0.323109
7.01 -0.313089
7.02 -0.30486
7.03 -0.298472
7.04 -0.29476
7.05 -0.29434
7.06 -0.298106
7.07 -0.307352
7.08 -0.322301
7.09 -0.344714
7.1 -0.374051
7.11 -0.410994
7.12 -0.455163
7.13 -0.505548
7.14 -0.56171
7.15 -0.621505
7.16 -0.683614
7.17 -0.745869
7.18 -0.806413
7.19 -0.86298
7.2 -0.91439
7.21 -0.95811
7.22 -0.994065
7.23 -1.021
7.24 -1.03885
7.25 -1.04845
7.26 -1.04968
7.27 -1.04488
7.28 -1.03488
7.29 -1.02195
7.3 -1.00777
7.31 -0.994291
7.32 -0.98285
7.33 -0.975182
7.34 -0.971563
7.35 -0.972551
7.36 -0.977729
7.37 -0.986025
7.38 -0.996131
7.39 -1.00591
7.4 -1.01282
7.41 -1.01431
7.42 -1.00774
7.43 -0.989617
7.44 -0.95893
7.45 -0.911219
7.46 -0.847159
7.47 -0.764531
7.48 -0.663304
7.49 -0.545036
7.5 -0.40908
7.51 -0.259832
7.52 -0.0984687
7.53 0.0706088
7.54 0.243918
7.55 0.417132
7.56 0.586455
7.57 0.746571
7.58 0.894768
7.59 1.02665
7.6 1.13906
7.61 1.23088
7.62 1.29745
7.63 1.34117
7.64 1.35876
7.65 1.35255
7.66 1.32328
7.67 1.27147
7.68 1.20145
7.69 1.11303
7.7 1.01145
7.71 0.898534
7.72 0.777687
7.73 0.652103
7.74 0.524522
7.75 0.397843
7.76 0.274823
7.77 0.157593
7.78 0.0480878
7.79 -0.0513182
7.8 -0.140418
7.81 -0.216247
7.82 -0.279724
7.83 -0.329362
7.84 -0.365043
7.85 -0.387628
7.86 -0.395833
7.87 -0.392235
7.88 -0.376304
7.89 -0.350228
7.9 -0.315339
7.91 -0.273096
7.92 -0.226086
7.93 -0.175944
7.94 -0.12535
7.95 -0.0765107
7.96 -0.031886
7.97 0.00680673
7.98 0.0365434
7.99 0.0569398
8 0.065431
8.01 0.0619439
8.02 0.0459968
8.03 0.0169571
8.04 -0.0232292
8.05 -0.0751918
8.06 -0.135881
8.07 -0.20417
8.08 -0.277683
8.09 -0.354049
8.1 -0.430988
8.11 -0.506301
8.12 -0.577691
8.13 -0.643666
8.14 -0.702978
8.15 -0.754311
8.16 -0.798228
8.17 -0.833703
8.18 -0.862477
8.19 -0.885026
8.2 -0.902828
8.21 -0.917504
8.22 -0.930372
8.23 -0.942996
8.24 -0.956492
8.25 -0.971528
8.26 -0.988279
8.27 -1.00636
8.28 -1.02465
8.29 -1.0412
8.3 -1.05386
8.31 -1.05947
8.32 -1.05448
8.33 -1.03626
8.34 -0.998907
8.35 -0.941703
8.36 -0.858884
8.37 -0.749628
8.38 -0.612143
8.39 -0.44388
8.4 -0.248456
8.41 -0.0230896
8.42 0.225631
8.43 0.495754
8.44 0.781756
8.45 1.07739
8.46 1.37633
8.47 1.67133
8.48 1.95425
8.49 2.21824
8.5 2.45663
8.51 2.66068
8.52 2.82905
8.53 2.95085
8.54 3.02885
8.55 3.05786
8.56 3.03775
8.57 2.9723
8.58 2.85823
8.59 2.70561
8.6 2.51443
8.61 2.29329
8.62 2.0479
8.63 1.78432
8.64 1.51078
8.65 1.23328
8.66 0.958791
8.67 0.693261
8.68 0.442259
8.69 0.208822
8.7 -0.000865255
8.71 -0.187809
8.72 -0.347741
8.73 -0.482176
8.74 -0.591481
8.75 -0.675622
8.76 -0.739153
8.77 -0.781528
8.78 -0.808352
8.79 -0.821422
8.8 -0.824221
8.81 -0.820121
8.82 -0.811458
8.83 -0.801279
8.84 -0.791626
8.85 -0.78429
8.86 -0.780502
8.87 -0.781452
8.88 -0.787035
8.89 -0.798086
8.9 -0.813643
8.91 -0.833539
8.92 -0.85697
8.93 -0.882955
8.94 -0.910795
8.95 -0.939367
8.96 -0.967876
8.97 -0.995521
8.98 -1.0217
8.99 -1.04575
9 -1.0676
9.01 -1.08663
9.02 -1.10315
9.03 -1.11701
9.04 -1.12833
9.05 -1.13744
9.06 -1.14424
9.07 -1.14921
9.08 -1.15225
9.09 -1.15352
9.1 -1.15296
9.11 -1.15027
9.12 -1.14543
9.13 -1.13766
9.14 -1.12685
9.15 -1.11222
9.16 -1.09317
9.17 -1.06942
9.18 -1.03974
9.19 -1.0045
9.2 -0.962688
9.21 -0.914605
9.22 -0.86031
9.23 -0.79979
9.24 -0.734267
9.25 -0.663897
9.26 -0.590429
9.27 -0.514951
9.28 -0.439165
9.29 -0.364623
9.3 -0.293532
9.31 -0.227123
9.32 -0.167755
9.33 -0.116584
9.34 -0.0748834
9.35 -0.0444094
9.36 -0.0245519
9.37 -0.0173526
9.38 -0.021061
9.39 -0.0359351
9.4 -0.0608713
9.41 -0.0940402
9.42 -0.134672
9.43 -0.179948
9.44 -0.228373
9.45 -0.277571
9.46 -0.325672
9.47 -0.370532
9.48 -0.411041
9.49 -0.445055
9.5 -0.472491
9.51 -0.4924
9.52 -0.504751
9.53 -0.510341
9.54 -0.509108
9.55 -0.503021
9.56 -0.492839
9.57 -0.480405
9.58 -0.467171
9.59 -0.454811
9.6 -0.444522
9.61 -0.438007
9.62 -0.435747
9.63 -0.438678
9.64 -0.447128
9.65 -0.460742
9.66 -0.479866
9.67 -0.503188
9.68 -0.530436
9.69 -0.560401
9.7 -0.592198
9.71 -0.624901
9.72 -0.657644
9.73 -0.689655
9.74 -0.720503
9.75 -0.749786
9.76 -0.777334
9.77 -0.803232
9.78 -0.827309
9.79 -0.849853
9.8 -0.870608
9.81 -0.889422
9.82 -0.905781
9.83 -0.918497
9.84 -0.926741
9.85 -0.927753
9.86 -0.920126
9.87 -0.900584
9.88 -0.865793
9.89 -0.81371
9.9 -0.738023
9.91 -0.638781
9.92 -0.509867
9.93 -0.350547
9.94 -0.159019
9.95 0.0679016
9.96 0.326237
9.97 0.619635
9.98 0.941126
9.99 1.28901
10 1.65766
10.01 2.04013
10.02 2.43001
10.03 2.81859
10.04 3.19695
10.05 3.55658
10.06 3.88944
10.07 4.18462
10.08 4.43955
10.09 4.64068
10.1 4.78973
10.11 4.87963
10.12 4.90855
10.13 4.88036
10.14 4.78909
10.15 4.64668
10.16 4.45172
10.17 4.21413
10.18 3.94057
10.19 3.6376
10.2 3.3161
10.21 2.98252
10.22 2.64664
10.23 2.3157
10.24 1.99719
10.25 1.6956
10.26 1.4187
10.27 1.16632
10.28 0.943689
10.29 0.749744
10.3 0.584159
10.31 0.447199
10.32 0.333567
10.33 0.243639
10.34 0.170932
10.35 0.113022
10.36 0.0657257
10.37 0.0250344
10.38 -0.0120032
10.39 -0.0486902
10.4 -0.0874231
10.41 -0.129941
10.42 -0.177331
10.43 -0.230557
10.44 -0.288991
10.45 -0.35295
10.46 -0.420887
10.47 -0.491968
10.48 -0.564735
10.49 -0.63779
10.5 -0.709534
10.51 -0.778853
10.52 -0.844196
10.53 -0.904727
10.54 -0.959662
10.55 -1.00791
10.56 -1.04982
10.57 -1.08409
10.58 -1.11155
10.59 -1.13176
10.6 -1.14483
10.61 -1.15141
10.62 -1.15085
10.63 -1.14439
10.64 -1.13159
10.65 -1.11319
10.66 -1.08951
10.67 -1.06065
10.68 -1.02761
10.69 -0.99032
10.7 -0.949933
10.71 -0.906938
10.72 -0.862232
10.73 -0.816752
10.74 -0.771526
10.75 -0.727522
10.76 -0.685985
10.77 -0.647867
10.78 -0.614101
10.79 -0.586006
10.8 -0.563666
10.81 -0.548695
10.82 -0.540615
10.83 -0.54011
10.84 -0.547177
10.85 -0.561109
10.86 -0.582364
10.87 -0.609313
10.88 -0.641834
10.89 -0.678587
10.9 -0.718604
10.91 -0.760884
10.92 -0.804167
10.93 -0.847415
10.94 -0.889612
10.95 -0.929804
10.96 -0.967123
10.97 -1.00117
10.98 -1.03092
10.99 -1.05665
11 -1.07769
11.01 -1.09434
11.02 -1.10675
11.03 -1.11495
11.04 -1.1198
11.05 -1.12134
11.06 -1.12061
11.07 -1.11809
11.08 -1.11455
11.09 -1.11073
11.1 -1.10735
11.11 -1.10496
11.12 -1.10423
11.13 -1.10546
11.14 -1.10884
11.15 -1.11452
11.16 -1.12201
11.17 -1.13103
11.18 -1.14055
11.19 -1.1495
11.2 -1.15631
11.21 -1.15959
11.22 -1.15656
11.23 -1.14601
11.24 -1.12466
11.25 -1.09073
11.26 -1.04211
11.27 -0.975443
11.28 -0.891072
11.29 -0.784609
11.3 -0.657841
11.31 -0.509125
11.32 -0.338876
11.33 -0.149592
11.34 0.0592067
11.35 0.282177
11.36 0.517517
11.37 0.760114
11.38 1.0056
11.39 1.24845
11.4 1.48406
11.41 1.70528
11.42 1.90852
11.43 2.08781
11.44 2.23825
11.45 2.35843
11.46 2.44073
11.47 2.48861
11.48 2.49696
11.49 2.46846
11.5 2.40443
11.51 2.305
11.52 2.17715
11.53 2.02084
11.54 1.84425
11.55 1.65096
11.56 1.44675
11.57 1.23717
11.58 1.02736
11.59 0.821939
11.6 0.62571
11.61 0.441799
11.62 0.272678
11.63 0.121486
11.64 -0.0128818
11.65 -0.127577
11.66 -0.225601
11.67 -0.307092
11.68 -0.374004
11.69 -0.429344
11.7 -0.474291
11.71 -0.51275
11.72 -0.546455
11.73 -0.578073
11.74 -0.609397
11.75 -0.642083
11.76 -0.676886
11.77 -0.714646
11.78 -0.754913
11.79 -0.797261
11.8 -0.840525
11.81 -0.883324
11.82 -0.923559
11.83 -0.959692
11.84 -0.989114
11.85 -1.01007
11.86 -1.02082
11.87 -1.01871
11.88 -1.00391
11.89 -0.973245
11.9 -0.928002
11.91 -0.867053
11.92 -0.790652
11.93 -0.700525
11.94 -0.596028
11.95 -0.480681
11.96 -0.355109
11.97 -0.222252
11.98 -0.0844035
11.99 0.0558764
12 0.195853
12.01 0.332482
12.02 0.463483
12.03 0.586053
12.04 0.697597
12.05 0.796995
12.06 0.880418
12.07 0.948719
12.08 0.998971
12.09 1.03158
12.1 1.04642
12.11 1.04249
12.12 1.02251
12.13 0.985122
12.14 0.93389
12.15 0.869629
12.16 0.794527
12.17 0.711371
12.18 0.62172
12.19 0.528802
12.2 0.434619
12.21 0.341577
12.22 0.251518
12.23 0.166568
12.24 0.0873762
12.25 0.0158977
12.26 -0.0482646
12.27 -0.104554
12.28 -0.15328
12.29 -0.195592
12.3 -0.2317
12.31 -0.263671
12.32 -0.292416
12.33 -0.319642
12.34 -0.346648
12.35 -0.37482
12.36 -0.404949
12.37 -0.438113
12.38 -0.474271
12.39 -0.513521
12.4 -0.555309
12.41 -0.598618
