# xPDFsuite Configuration #
[PDF]
wavelength = 0.1432
dataformat = twotheta
inputfile = 1_1Pd_CeO2_cycle-00011.chi
backgroundfile = background-00000.chi
mode = xray
bgscale = 1.007
composition = CeO2
outputtype = gr
qmaxinst = 28.8974762299
qmin = 0.5
qmax = 27.9
rmax = 50.0
rmin = 0.0
rstep = 0.01
rpoly = 1.8657

[Misc]
inputdir = G:/SankarDec16/1Pd/Chi
savedir = D:/DATA/APS_CeO2/1Pd
backgroundfilefull = G:/SankarDec16/Background/background-00000.chi

#### start data
#S 1
#L r($\AA$)  G($\AA^{-2}$)
0 0
0.01 -0.00614674
0.02 -0.0118297
0.03 -0.0165713
0.04 -0.0200122
0.05 -0.0219524
0.06 -0.0220708
0.07 -0.020582
0.08 -0.0173836
0.09 -0.0128849
0.1 -0.0073697
0.11 -0.00127177
0.12 0.00493667
0.13 0.010725
0.14 0.015719
0.15 0.0194593
0.16 0.0216781
0.17 0.0222693
0.18 0.0210157
0.19 0.0182338
0.2 0.0139383
0.21 0.0086071
0.22 0.00259366
0.23 -0.00361483
0.24 -0.00957463
0.25 -0.0147144
0.26 -0.0187673
0.27 -0.0213152
0.28 -0.0221949
0.29 -0.0213998
0.3 -0.018827
0.31 -0.0148798
0.32 -0.00968943
0.33 -0.00377911
0.34 0.00244521
0.35 0.00846641
0.36 0.0138912
0.37 0.0181354
0.38 0.021053
0.39 0.0222874
0.4 0.0217884
0.41 0.0196491
0.42 0.0158869
0.43 0.0109719
0.44 0.00514576
0.45 -0.00104828
0.46 -0.00717186
0.47 -0.0127029
0.48 -0.0173181
0.49 -0.0204494
0.5 -0.0220785
0.51 -0.0219287
0.52 -0.0200652
0.53 -0.0166768
0.54 -0.0119006
0.55 -0.00625085
0.56 -6.78675e-05
0.57 0.00611135
0.58 0.0118377
0.59 0.0166096
0.6 0.0201901
0.61 0.022055
0.62 0.0223153
0.63 0.0207877
0.64 0.0176506
0.65 0.0131791
0.66 0.00762395
0.67 0.0015183
0.68 -0.00471534
0.69 -0.0105724
0.7 -0.0156154
0.71 -0.0193874
0.72 -0.0217499
0.73 -0.0222482
0.74 -0.0211171
0.75 -0.0182757
0.76 -0.014006
0.77 -0.0086555
0.78 -0.00257504
0.79 0.00371018
0.8 0.0097187
0.81 0.015004
0.82 0.0191638
0.83 0.0218106
0.84 0.0229113
0.85 0.0221066
0.86 0.0197421
0.87 0.0158437
0.88 0.0107818
0.89 0.00495598
0.9 -0.00120372
0.91 -0.0072125
0.92 -0.0125622
0.93 -0.0168952
0.94 -0.0198763
0.95 -0.0212217
0.96 -0.0210144
0.97 -0.0190356
0.98 -0.0157279
0.99 -0.0112477
1 -0.00604757
1.01 -0.000566834
1.02 0.0046814
1.03 0.00929075
1.04 0.012731
1.05 0.0147712
1.06 0.015167
1.07 0.01377
1.08 0.0108116
1.09 0.00625331
1.1 0.000666223
1.11 -0.00561714
1.12 -0.0120184
1.13 -0.0180227
1.14 -0.0229554
1.15 -0.0264731
1.16 -0.0279231
1.17 -0.0271757
1.18 -0.0240099
1.19 -0.0183327
1.2 -0.0105339
1.21 -0.000609485
1.22 0.0106663
1.23 0.0228615
1.24 0.0352434
1.25 0.0471686
1.26 0.0578009
1.27 0.0666999
1.28 0.0730304
1.29 0.0765763
1.3 0.0769824
1.31 0.0739927
1.32 0.0679787
1.33 0.0586453
1.34 0.0468368
1.35 0.0327756
1.36 0.017145
1.37 0.000586515
1.38 -0.0162464
1.39 -0.0327077
1.4 -0.0480992
1.41 -0.0619636
1.42 -0.0738366
1.43 -0.0832681
1.44 -0.0902965
1.45 -0.0943664
1.46 -0.095906
1.47 -0.094739
1.48 -0.0911091
1.49 -0.0853044
1.5 -0.0773775
1.51 -0.0678574
1.52 -0.0568261
1.53 -0.0447165
1.54 -0.0317644
1.55 -0.0182455
1.56 -0.00445956
1.57 0.00932602
1.58 0.0228373
1.59 0.0357647
1.6 0.0478028
1.61 0.0587018
1.62 0.0679747
1.63 0.0755289
1.64 0.0807994
1.65 0.083705
1.66 0.083962
1.67 0.0812911
1.68 0.0759159
1.69 0.0673968
1.7 0.0563429
1.71 0.0427637
1.72 0.0271454
1.73 0.0100201
1.74 -0.00810903
1.75 -0.0265028
1.76 -0.0444752
1.77 -0.0613683
1.78 -0.0765613
1.79 -0.0893915
1.8 -0.099721
1.81 -0.106809
1.82 -0.111048
1.83 -0.112248
1.84 -0.110788
1.85 -0.107175
1.86 -0.101832
1.87 -0.0956181
1.88 -0.0891892
1.89 -0.0833234
1.9 -0.0786809
1.91 -0.0759532
1.92 -0.0753386
1.93 -0.0774929
1.94 -0.082047
1.95 -0.0890616
1.96 -0.0980509
1.97 -0.108407
1.98 -0.119441
1.99 -0.13027
2 -0.139908
2.01 -0.147531
2.02 -0.152296
2.03 -0.153295
2.04 -0.150407
2.05 -0.142544
2.06 -0.130301
2.07 -0.113332
2.08 -0.0920751
2.09 -0.0671313
2.1 -0.0387837
2.11 -0.00811604
2.12 0.024436
2.13 0.0580024
2.14 0.0920513
2.15 0.126091
2.16 0.159856
2.17 0.193168
2.18 0.226158
2.19 0.259019
2.2 0.292121
2.21 0.325828
2.22 0.360675
2.23 0.396837
2.24 0.43471
2.25 0.474141
2.26 0.514933
2.27 0.556537
2.28 0.598122
2.29 0.638386
2.3 0.67615
2.31 0.709621
2.32 0.737099
2.33 0.757288
2.34 0.767565
2.35 0.767911
2.36 0.755837
2.37 0.731774
2.38 0.695274
2.39 0.646269
2.4 0.586852
2.41 0.516909
2.42 0.439917
2.43 0.357501
2.44 0.272637
2.45 0.187959
2.46 0.106648
2.47 0.0307255
2.48 -0.03663
2.49 -0.0942496
2.5 -0.140654
2.51 -0.174631
2.52 -0.197408
2.53 -0.20777
2.54 -0.20877
2.55 -0.20125
2.56 -0.18778
2.57 -0.170845
2.58 -0.152966
2.59 -0.1366
2.6 -0.12434
2.61 -0.117765
2.62 -0.118313
2.63 -0.127162
2.64 -0.143633
2.65 -0.168526
2.66 -0.199583
2.67 -0.235884
2.68 -0.275231
2.69 -0.315535
2.7 -0.354368
2.71 -0.389916
2.72 -0.419745
2.73 -0.44282
2.74 -0.458053
2.75 -0.464672
2.76 -0.463722
2.77 -0.454801
2.78 -0.440379
2.79 -0.42166
2.8 -0.400968
2.81 -0.380398
2.82 -0.362459
2.83 -0.348692
2.84 -0.341426
2.85 -0.341327
2.86 -0.349161
2.87 -0.365275
2.88 -0.388292
2.89 -0.418046
2.9 -0.451889
2.91 -0.488184
2.92 -0.524415
2.93 -0.558452
2.94 -0.587529
2.95 -0.61048
2.96 -0.624913
2.97 -0.630619
2.98 -0.627133
2.99 -0.614503
3 -0.594576
3.01 -0.567941
3.02 -0.537625
3.03 -0.505626
3.04 -0.474709
3.05 -0.447091
3.06 -0.425708
3.07 -0.411489
3.08 -0.406777
3.09 -0.411422
3.1 -0.425586
3.11 -0.448829
3.12 -0.478972
3.13 -0.514968
3.14 -0.553637
3.15 -0.59271
3.16 -0.629387
3.17 -0.661577
3.18 -0.686455
3.19 -0.703578
3.2 -0.71104
3.21 -0.709619
3.22 -0.699795
3.23 -0.682823
3.24 -0.661299
3.25 -0.637383
3.26 -0.614253
3.27 -0.594853
3.28 -0.582067
3.29 -0.57776
3.3 -0.584908
3.31 -0.602957
3.32 -0.633504
3.33 -0.674632
3.34 -0.724955
3.35 -0.782059
3.36 -0.842405
3.37 -0.902422
3.38 -0.958409
3.39 -1.0064
3.4 -1.04307
3.41 -1.06654
3.42 -1.07339
3.43 -1.0652
3.44 -1.04051
3.45 -1.00255
3.46 -0.953699
3.47 -0.897689
3.48 -0.839247
3.49 -0.783464
3.5 -0.734718
3.51 -0.697959
3.52 -0.67677
3.53 -0.672653
3.54 -0.688611
3.55 -0.721261
3.56 -0.770049
3.57 -0.828893
3.58 -0.892079
3.59 -0.951104
3.6 -0.998332
3.61 -1.02063
3.62 -1.01174
3.63 -0.959431
3.64 -0.855463
3.65 -0.695796
3.66 -0.468424
3.67 -0.179928
3.68 0.177491
3.69 0.594391
3.7 1.0659
3.71 1.58391
3.72 2.13284
3.73 2.70169
3.74 3.27185
3.75 3.82693
3.76 4.34883
3.77 4.82398
3.78 5.22952
3.79 5.56197
3.8 5.80007
3.81 5.94377
3.82 5.98702
3.83 5.92448
3.84 5.76949
3.85 5.5133
3.86 5.17956
3.87 4.77275
3.88 4.30951
3.89 3.80638
3.9 3.27701
3.91 2.73991
3.92 2.21011
3.93 1.70146
3.94 1.22573
3.95 0.795336
3.96 0.412178
3.97 0.0895952
3.98 -0.179111
3.99 -0.389595
4 -0.546183
4.01 -0.655703
4.02 -0.719819
4.03 -0.751337
4.04 -0.754062
4.05 -0.738541
4.06 -0.711433
4.07 -0.67971
4.08 -0.648983
4.09 -0.624521
4.1 -0.608515
4.11 -0.603424
4.12 -0.609504
4.13 -0.6256
4.14 -0.65099
4.15 -0.682209
4.16 -0.717051
4.17 -0.752063
4.18 -0.78443
4.19 -0.810985
4.2 -0.830242
4.21 -0.838938
4.22 -0.837423
4.23 -0.824261
4.24 -0.799757
4.25 -0.764972
4.26 -0.71983
4.27 -0.6669
4.28 -0.606648
4.29 -0.541209
4.3 -0.471796
4.31 -0.399607
4.32 -0.325853
4.33 -0.251161
4.34 -0.176206
4.35 -0.101299
4.36 -0.0266612
4.37 0.0476
4.38 0.121277
4.39 0.19423
4.4 0.265958
4.41 0.335947
4.42 0.403391
4.43 0.466993
4.44 0.526013
4.45 0.578046
4.46 0.622569
4.47 0.657429
4.48 0.681299
4.49 0.693607
4.5 0.691961
4.51 0.6777
4.52 0.649048
4.53 0.607592
4.54 0.553912
4.55 0.488908
4.56 0.4153
4.57 0.333952
4.58 0.248197
4.59 0.159952
4.6 0.0718045
4.61 -0.014229
4.62 -0.0956353
4.63 -0.171464
4.64 -0.239657
4.65 -0.299999
4.66 -0.352014
4.67 -0.395401
4.68 -0.431485
4.69 -0.459951
4.7 -0.482925
4.71 -0.501109
4.72 -0.51598
4.73 -0.528837
4.74 -0.540739
4.75 -0.552709
4.76 -0.565504
4.77 -0.579527
4.78 -0.59497
4.79 -0.611824
4.8 -0.629689
4.81 -0.648219
4.82 -0.666763
4.83 -0.684731
4.84 -0.701503
4.85 -0.716674
4.86 -0.729613
4.87 -0.740399
4.88 -0.748681
4.89 -0.754781
4.9 -0.758912
4.91 -0.761413
4.92 -0.762882
4.93 -0.763729
4.94 -0.764544
4.95 -0.765766
4.96 -0.767782
4.97 -0.770779
4.98 -0.775012
4.99 -0.78031
5 -0.786682
5.01 -0.793815
5.02 -0.801463
5.03 -0.809321
5.04 -0.817116
5.05 -0.824579
5.06 -0.831609
5.07 -0.838116
5.08 -0.844147
5.09 -0.84983
5.1 -0.855306
5.11 -0.860757
5.12 -0.866299
5.13 -0.871928
5.14 -0.877491
5.15 -0.882557
5.16 -0.8866
5.17 -0.888393
5.18 -0.887033
5.19 -0.880796
5.2 -0.867939
5.21 -0.847131
5.22 -0.815281
5.23 -0.772157
5.24 -0.714602
5.25 -0.642477
5.26 -0.554815
5.27 -0.450635
5.28 -0.332085
5.29 -0.198112
5.3 -0.0528144
5.31 0.102152
5.32 0.262962
5.33 0.425729
5.34 0.585675
5.35 0.738768
5.36 0.879163
5.37 1.00313
5.38 1.10646
5.39 1.18411
5.4 1.23616
5.41 1.25607
5.42 1.24734
5.43 1.20762
5.44 1.13874
5.45 1.0442
5.46 0.924521
5.47 0.786805
5.48 0.63345
5.49 0.470867
5.5 0.303724
5.51 0.137431
5.52 -0.0238025
5.53 -0.174287
5.54 -0.311936
5.55 -0.432931
5.56 -0.53549
5.57 -0.619646
5.58 -0.683043
5.59 -0.729124
5.6 -0.757104
5.61 -0.770494
5.62 -0.771323
5.63 -0.761868
5.64 -0.745597
5.65 -0.724205
5.66 -0.700598
5.67 -0.676337
5.68 -0.652853
5.69 -0.63082
5.7 -0.610703
5.71 -0.592015
5.72 -0.574251
5.73 -0.556327
5.74 -0.53715
5.75 -0.51531
5.76 -0.490065
5.77 -0.459804
5.78 -0.42462
5.79 -0.383897
5.8 -0.33799
5.81 -0.287802
5.82 -0.234117
5.83 -0.178853
5.84 -0.12372
5.85 -0.0708194
5.86 -0.0221527
5.87 0.0197845
5.88 0.0540196
5.89 0.077486
5.9 0.0904921
5.91 0.0914577
5.92 0.0803435
5.93 0.0580465
5.94 0.0240853
5.95 -0.0188359
5.96 -0.0702677
5.97 -0.127665
5.98 -0.189293
5.99 -0.253184
6 -0.317415
6.01 -0.38015
6.02 -0.440209
6.03 -0.496346
6.04 -0.547881
6.05 -0.59477
6.06 -0.636484
6.07 -0.674038
6.08 -0.70749
6.09 -0.737918
6.1 -0.766024
6.11 -0.79255
6.12 -0.81827
6.13 -0.843619
6.14 -0.868933
6.15 -0.894258
6.16 -0.919395
6.17 -0.944002
6.18 -0.967385
6.19 -0.989094
6.2 -1.00821
6.21 -1.0243
6.22 -1.03688
6.23 -1.04546
6.24 -1.05044
6.25 -1.05148
6.26 -1.04962
6.27 -1.04532
6.28 -1.03958
6.29 -1.03333
6.3 -1.02754
6.31 -1.02283
6.32 -1.01977
6.33 -1.01821
6.34 -1.01763
6.35 -1.01673
6.36 -1.01384
6.37 -1.00573
6.38 -0.989865
6.39 -0.961918
6.4 -0.91752
6.41 -0.853547
6.42 -0.762521
6.43 -0.644118
6.44 -0.490969
6.45 -0.302777
6.46 -0.0774203
6.47 0.187666
6.48 0.487458
6.49 0.824958
6.5 1.19099
6.51 1.58244
6.52 1.99124
6.53 2.40887
6.54 2.82566
6.55 3.23211
6.56 3.61596
6.57 3.96809
6.58 4.27882
6.59 4.53586
6.6 4.73789
6.61 4.86877
6.62 4.93384
6.63 4.92551
6.64 4.84471
6.65 4.69734
6.66 4.47993
6.67 4.20783
6.68 3.88214
6.69 3.51665
6.7 3.1205
6.71 2.70419
6.72 2.27982
6.73 1.85816
6.74 1.44887
6.75 1.0617
6.76 0.704668
6.77 0.381666
6.78 0.102014
6.79 -0.137621
6.8 -0.331104
6.81 -0.482702
6.82 -0.594003
6.83 -0.666646
6.84 -0.708713
6.85 -0.72081
6.86 -0.712331
6.87 -0.686855
6.88 -0.650228
6.89 -0.607364
6.9 -0.562168
6.91 -0.518108
6.92 -0.47791
6.93 -0.442985
6.94 -0.414164
6.95 -0.391924
6.96 -0.375158
6.97 -0.363797
6.98 -0.356002
6.99 -0.350908
7 -0.347285
7.01 -0.344238
7.02 -0.34118
7.03 -0.337931
7.04 -0.334686
7.05 -0.332064
7.06 -0.330935
7.07 -0.332671
7.08 -0.338125
7.09 -0.34936
7.1 -0.366752
7.11 -0.391673
7.12 -0.424619
7.13 -0.465242
7.14 -0.514091
7.15 -0.569227
7.16 -0.630079
7.17 -0.694409
7.18 -0.760347
7.19 -0.825501
7.2 -0.887907
7.21 -0.944669
7.22 -0.994621
7.23 -1.03571
7.24 -1.06686
7.25 -1.08813
7.26 -1.09833
7.27 -1.09952
7.28 -1.09174
7.29 -1.0773
7.3 -1.05793
7.31 -1.03568
7.32 -1.0128
7.33 -0.991376
7.34 -0.972897
7.35 -0.958779
7.36 -0.949696
7.37 -0.945398
7.38 -0.945763
7.39 -0.948908
7.4 -0.953187
7.41 -0.955962
7.42 -0.954577
7.43 -0.945406
7.44 -0.926513
7.45 -0.89304
7.46 -0.844402
7.47 -0.777478
7.48 -0.691089
7.49 -0.585932
7.5 -0.460116
7.51 -0.317758
7.52 -0.159105
7.53 0.0113719
7.54 0.190185
7.55 0.37288
7.56 0.554714
7.57 0.729977
7.58 0.894649
7.59 1.0434
7.6 1.1719
7.61 1.27812
7.62 1.35608
7.63 1.40788
7.64 1.42924
7.65 1.4225
7.66 1.38837
7.67 1.3274
7.68 1.24487
7.69 1.1409
7.7 1.02204
7.71 0.890992
7.72 0.752347
7.73 0.610242
7.74 0.468685
7.75 0.331004
7.76 0.200966
7.77 0.0807929
7.78 -0.0274503
7.79 -0.121324
7.8 -0.201452
7.81 -0.265005
7.82 -0.314139
7.83 -0.348097
7.84 -0.367827
7.85 -0.375083
7.86 -0.369683
7.87 -0.3547
7.88 -0.330502
7.89 -0.29945
7.9 -0.263046
7.91 -0.222866
7.92 -0.180842
7.93 -0.138541
7.94 -0.0976223
7.95 -0.0597104
7.96 -0.0263842
7.97 0.00138135
7.98 0.0214548
7.99 0.0338789
8 0.0368029
8.01 0.0302969
8.02 0.0140019
8.03 -0.0126522
8.04 -0.0482558
8.05 -0.093555
8.06 -0.146324
8.07 -0.20595
8.08 -0.270784
8.09 -0.339049
8.1 -0.409214
8.11 -0.479367
8.12 -0.547785
8.13 -0.613026
8.14 -0.673887
8.15 -0.729036
8.16 -0.778532
8.17 -0.82117
8.18 -0.857966
8.19 -0.888908
8.2 -0.914831
8.21 -0.936859
8.22 -0.955636
8.23 -0.972538
8.24 -0.988189
8.25 -1.00327
8.26 -1.01795
8.27 -1.0319
8.28 -1.04448
8.29 -1.05395
8.3 -1.05879
8.31 -1.05632
8.32 -1.04353
8.33 -1.01826
8.34 -0.975184
8.35 -0.913722
8.36 -0.828539
8.37 -0.718785
8.38 -0.582654
8.39 -0.417538
8.4 -0.226624
8.41 -0.00696093
8.42 0.235429
8.43 0.498973
8.44 0.778626
8.45 1.06849
8.46 1.36272
8.47 1.65418
8.48 1.93503
8.49 2.19839
8.5 2.43754
8.51 2.64366
8.52 2.81506
8.53 2.94065
8.54 3.02277
8.55 3.05591
8.56 3.03957
8.57 2.97728
8.58 2.86539
8.59 2.71397
8.6 2.52279
8.61 2.30058
8.62 2.05313
8.63 1.78667
8.64 1.50975
8.65 1.22861
8.66 0.950595
8.67 0.681956
8.68 0.428573
8.69 0.193653
8.7 -0.0163068
8.71 -0.202399
8.72 -0.360216
8.73 -0.491461
8.74 -0.59666
8.75 -0.676002
8.76 -0.734392
8.77 -0.771603
8.78 -0.79359
8.79 -0.802495
8.8 -0.802113
8.81 -0.79597
8.82 -0.786738
8.83 -0.77733
8.84 -0.76994
8.85 -0.766142
8.86 -0.766994
8.87 -0.77346
8.88 -0.785051
8.89 -0.802294
8.9 -0.823844
8.91 -0.849188
8.92 -0.877191
8.93 -0.9067
8.94 -0.936672
8.95 -0.966085
8.96 -0.993974
8.97 -1.01973
8.98 -1.04289
8.99 -1.06301
9 -1.08034
9.01 -1.09457
9.02 -1.10635
9.03 -1.11586
9.04 -1.12354
9.05 -1.12987
9.06 -1.13508
9.07 -1.13957
9.08 -1.14336
9.09 -1.14648
9.1 -1.14871
9.11 -1.14956
9.12 -1.14868
9.13 -1.14499
9.14 -1.13805
9.15 -1.12676
9.16 -1.11022
9.17 -1.08799
9.18 -1.05851
9.19 -1.02225
9.2 -0.978033
9.21 -0.926362
9.22 -0.86744
9.23 -0.801459
9.24 -0.730004
9.25 -0.653534
9.26 -0.57418
9.27 -0.493388
9.28 -0.413214
9.29 -0.335408
9.3 -0.262576
9.31 -0.195871
9.32 -0.13788
9.33 -0.0895974
9.34 -0.052172
9.35 -0.027197
9.36 -0.0136605
9.37 -0.0133467
9.38 -0.0240477
9.39 -0.0456478
9.4 -0.0766292
9.41 -0.114892
9.42 -0.159206
9.43 -0.206742
9.44 -0.255697
9.45 -0.303782
9.46 -0.349187
9.47 -0.389852
9.48 -0.42506
9.49 -0.452845
9.5 -0.473617
9.51 -0.486782
9.52 -0.492752
9.53 -0.49265
9.54 -0.4869
9.55 -0.477572
9.56 -0.465787
9.57 -0.453383
9.58 -0.441817
9.59 -0.432751
9.6 -0.427028
9.61 -0.426242
9.62 -0.430383
9.63 -0.440057
9.64 -0.455144
9.65 -0.474933
9.66 -0.499275
9.67 -0.526686
9.68 -0.556498
9.69 -0.58744
9.7 -0.618571
9.71 -0.648912
9.72 -0.677915
9.73 -0.704851
9.74 -0.729773
9.75 -0.752576
9.76 -0.773528
9.77 -0.793092
9.78 -0.811578
9.79 -0.829502
9.8 -0.847019
9.81 -0.864088
9.82 -0.880291
9.83 -0.894537
9.84 -0.905718
9.85 -0.911075
9.86 -0.908743
9.87 -0.895179
9.88 -0.86663
9.89 -0.820677
9.9 -0.750547
9.91 -0.656034
9.92 -0.530621
9.93 -0.373434
9.94 -0.18256
9.95 0.0453033
9.96 0.305926
9.97 0.602977
9.98 0.929053
9.99 1.28221
10 1.65642
10.01 2.04438
10.02 2.43923
10.03 2.83202
10.04 3.21344
10.05 3.57485
10.06 3.90809
10.07 4.20215
10.08 4.45469
10.09 4.65216
10.1 4.79666
10.11 4.88139
10.12 4.9049
10.13 4.8714
10.14 4.77533
10.15 4.62888
10.16 4.431
10.17 4.19173
10.18 3.91784
10.19 3.61598
10.2 3.2968
10.21 2.96676
10.22 2.63525
10.23 2.30929
10.24 1.99602
10.25 1.69963
10.26 1.4275
10.27 1.17927
10.28 0.959876
10.29 0.768157
10.3 0.603731
10.31 0.466819
10.32 0.35234
10.33 0.260719
10.34 0.185806
10.35 0.125396
10.36 0.075606
10.37 0.0326641
10.38 -0.00608086
10.39 -0.043837
10.4 -0.0828094
10.41 -0.124759
10.42 -0.17082
10.43 -0.222055
10.44 -0.278089
10.45 -0.339462
10.46 -0.404939
10.47 -0.473988
10.48 -0.545461
10.49 -0.618135
10.5 -0.69075
10.51 -0.76212
10.52 -0.830851
10.53 -0.895928
10.54 -0.956398
10.55 -1.01093
10.56 -1.05948
10.57 -1.10035
10.58 -1.13399
10.59 -1.15949
10.6 -1.1766
10.61 -1.18575
10.62 -1.18585
10.63 -1.17831
10.64 -1.16248
10.65 -1.13937
10.66 -1.10957
10.67 -1.07347
10.68 -1.0326
10.69 -0.987361
10.7 -0.939451
10.71 -0.889872
10.72 -0.840019
10.73 -0.791072
10.74 -0.744595
10.75 -0.701369
10.76 -0.662875
10.77 -0.629747
10.78 -0.602636
10.79 -0.582497
10.8 -0.568796
10.81 -0.562605
10.82 -0.562822
10.83 -0.569528
10.84 -0.582141
10.85 -0.599669
10.86 -0.62194
10.87 -0.647528
10.88 -0.676021
10.89 -0.706424
10.9 -0.738074
10.91 -0.770352
10.92 -0.802702
10.93 -0.834657
10.94 -0.86593
10.95 -0.896233
10.96 -0.925363
10.97 -0.953277
10.98 -0.979674
10.99 -1.00467
11 -1.02797
11.01 -1.04957
11.02 -1.06933
11.03 -1.08698
11.04 -1.10262
11.05 -1.11581
11.06 -1.12678
11.07 -1.13536
11.08 -1.14165
11.09 -1.14593
11.1 -1.14822
11.11 -1.14914
11.12 -1.14891
11.13 -1.14809
11.14 -1.14706
11.15 -1.1462
11.16 -1.1457
11.17 -1.14566
11.18 -1.14579
11.19 -1.14559
11.2 -1.14411
11.21 -1.14035
11.22 -1.13216
11.23 -1.11832
11.24 -1.0959
11.25 -1.06294
11.26 -1.0172
11.27 -0.955068
11.28 -0.876373
11.29 -0.77638
11.3 -0.656276
11.31 -0.513954
11.32 -0.349327
11.33 -0.164597
11.34 0.0411998
11.35 0.26267
11.36 0.498245
11.37 0.742624
11.38 0.991251
11.39 1.23837
11.4 1.47892
11.41 1.70539
11.42 1.91373
11.43 2.09756
11.44 2.2516
11.45 2.37425
11.46 2.45752
11.47 2.505
11.48 2.51145
11.49 2.47979
11.5 2.41159
11.51 2.30724
11.52 2.17414
11.53 2.01263
11.54 1.83128
11.55 1.634
11.56 1.42691
11.57 1.21565
11.58 1.00569
11.59 0.801404
11.6 0.607688
11.61 0.427386
11.62 0.262729
11.63 0.116568
11.64 -0.0125761
11.65 -0.122204
11.66 -0.21562
11.67 -0.293256
11.68 -0.357296
11.69 -0.410799
11.7 -0.455143
11.71 -0.494022
11.72 -0.529174
11.73 -0.563011
11.74 -0.597109
11.75 -0.632879
11.76 -0.670804
11.77 -0.711471
11.78 -0.754258
11.79 -0.798583
11.8 -0.843205
11.81 -0.886789
11.82 -0.927238
11.83 -0.963228
11.84 -0.992292
11.85 -1.01292
11.86 -1.02356
11.87 -1.02182
11.88 -1.00795
11.89 -0.978986
11.9 -0.93615
11.91 -0.878307
11.92 -0.805558
11.93 -0.719398
11.94 -0.618897
11.95 -0.507251
11.96 -0.384689
11.97 -0.253823
11.98 -0.116659
11.99 0.0246186
12 0.167238
12.01 0.308475
12.02 0.445753
12.03 0.576196
12.04 0.696886
12.05 0.806244
12.06 0.899999
12.07 0.97843
12.08 1.03801
12.09 1.07862
12.1 1.09971
12.11 1.09967
12.12 1.08125
12.13 1.04257
12.14 0.987555
12.15 0.917026
12.16 0.833516
12.17 0.740369
12.18 0.639555
12.19 0.535071
12.2 0.429536
12.21 0.326017
12.22 0.226894
12.23 0.134941
12.24 0.0509072
12.25 -0.0226838
12.26 -0.0865123
12.27 -0.139988
12.28 -0.183719
12.29 -0.219389
12.3 -0.247581
12.31 -0.271121
12.32 -0.291506
12.33 -0.311088
12.34 -0.331681
12.35 -0.355278
12.36 -0.382765
12.37 -0.415717
12.38 -0.453811
12.39 -0.497128
12.4 -0.544783
12.41 -0.595228
12.42 -0.646731
